##TITLE=21
##JCAMP-DX=4.24
##DATA TYPE=INFRARED SPECTRUM
##DATE=16/11/2015
##SAMPLING PROCEDURE=Instrument type and / or accessory
##ORIGIN=Default
##XUNITS=1/CM
##YUNITS=TRANSMITTANCE
##RESOLUTION=4
##FIRSTX=3996.3359
##LASTX=399.24785
##DELTAX=-1.9287336
##MAXY=1.2889054
##MINY=0.25586697
##XFACTOR=1
##YFACTOR=1.2003867e-009
##NPOINTS=1866
##FIRSTY=0.58964503
##XYDATA=(X++(Y..Y))
3996+491212572+491370622+491566360+491774711+491997759+492233469+492475386
3983+492697441+492916566+493151234+493393051+493710741+494103707+494457049
3969+494728163+494976684+495219792+495418807+495680735+496041376+496357278
3956+496630527+496887787+497101600+497285768+497529721+497812255+497949451
3942+498169619+498561691+498851277+499067075+499171648+499285903+499685771
3929+500091995+500208385+500298557+500586653+500724097+500718436+500980910
3915+501528500+501893759+502013377+502135229+502101961+501901753+502051214
3902+502584851+503096690+503636633+503899753+503645522+503419991+503792400
3888+504027166+503855213+504234077+504563386+504566613+504950840+505160283
3875+505042651+505014447+504889864+505192459+505581006+505434326+505563776
3861+505995522+506252484+505933106+505064996+505177215+506839947+507841727
3848+507741673+507451095+507423984+507580246+507541168+507612720+508209717
3834+508672299+508783872+509044757+509292831+509414485+509380621+508903937
3821+509024945+509774679+509873789+510219137+510808536+510683357+510126134
3807+509920663+510396205+510372172+510241878+510994343+511436964+511529272
3794+511737523+511732955+511673717+511733997+511832860+511974226+512032272
3780+512011566+512324837+512703502+512693224+512402596+512163509+512394005
3767+512712688+512924663+513050041+512858077+512848642+513098107+512905348
3753+512157650+511901432+512666907+513106449+512449718+512667155+513630701
3740+513319069+512313813+511861560+512166836+512679469+513058830+512823914
3726+512326823+512161870+512108541+512081480+511943688+511450718+510424359
3713+509285085+508826575+508705716+508078430+506690238+504784597+502966992
3699+501291599+499286946+497084668+494859399+492659157+490937932+490193909
3686+489919617+489496014+489064765+487949971+485386655+483046982+483276734
3672+484010529+483568901+483394167+483221170+482414384+481480481+480809251
3659+480356849+480343293+480961393+481036470+480259575+480149193+480869383
3645+481277940+480927230+480299647+479769137+479254617+478603299+477798597
3632+476653663+475254249+474724783+474454116+473187230+471326873+469616771
3618+468542743+467579395+466025010+464329854+462713698+461040638+459485259
3605+457784591+455739718+453678409+451762588+449770299+447678056+445668388
3591+443528277+441044905+438765761+436966629+435044750+432761733+430408555
3578+428126880+425834081+423487309+421060741+418385504+415636728+413372531
3564+411359287+409006854+406472784+404012104+401558301+398973981+396312101
3551+393714622+391018331+388182660+385482893+382945571+380377562+377694306
3537+374973982+372368286+369803256+367119603+364365116+361615596+358860340
3524+356154590+353587003+351040892+348413944+345751368+343066523+340384358
3510+337770469+335286749+332771921+330068628+327443343+325046221+322671269
3497+320241598+317821982+315401473+312908591+310357590+307887624+305514857
3483+303088736+300621452+298210873+295815961+293409677+291001407+288519872
3470+285971129+283514421+281248635+279043825+276792637+274561187+272379938
3456+270185927+267963738+265772533+263584481+261354992+259233129+257280862
3443+255338103+253346584+251327333+249319204+247408522+245608421+243875279
3429+242226624+240672537+239120013+237474735+235821983+234333241+232955874
3416+231512516+230033009+228660806+227435059+226332753+225230149+223946356
3402+222585474+221492354+220721691+219947056+218987035+218028206+217357075
3389+216887467+216389457+215847428+215305424+214786832+214382843+214132013
3375+213937218+213680082+213363485+213153794+213195578+213439630+213759778
3362+214097205+214459162+214849124+215257135+215656655+216045723+216554260
3348+217272091+218085780+218868162+219593416+220300695+221118853+222121254
3335+223200595+224287483+225412977+226538720+227632014+228803141+230132740
3321+231519393+232859246+234185817+235588905+237074271+238521378+239847427
3308+241172161+242713040+244519745+246407189+248183853+249838094+251472796
3294+253174779+254980442+256887747+258831623+260745383+262665450+264645027
3281+266649754+268623671+270597166+272647675+274754616+276885441+279106390
3267+281434790+283821361+286233355+288655950+291090661+293541981+296038165
3254+298585989+301134532+303682034+306321594+309138918+312076605+314966400
3240+317789508+320647599+323544643+326493576+329592541+332823412+336049641
3227+339256580+342495570+345741115+348976679+352256833+355599700+358999571
3213+362480702+365969852+369421661+372884122+376348618+379809341+383285854
3200+386777933+390289278+393821826+397354970+400874707+404377288+407889329
3186+411430368+414952265+418420163+421846127+425250889+428644975+432011751
3173+435372271+438761442+442168388+445537349+448802334+451982558+455148035
3159+458346333+461558386+464679173+467690373+470698694+473721165+476715582
3146+479699671+482641305+485462775+488209565+491005562+493848781+496625909
3132+499283519+501832088+504328420+506844912+509348097+511786035+514205701
3119+516594531+518869702+521070937+523261795+525418341+527539732+529606353
3105+531573964+533472257+535359775+537244363+539073487+540840543+542559037
3092+544186862+545763443+547359290+548947590+550482759+551951839+553355324
3078+554740835+556136624+557467067+558660713+559750381+560787069+561773009
3065+562709494+563630933+564530723+565341184+566017578+566536319+566906047
3051+567175522+567331289+567297772+567073879+566698988+566132727+565319138
3038+564242627+562874993+561200939+559220369+556951901+554393898+551519447
3024+548285894+544650536+540636513+536251273+531459064+526205713+520407255
3011+514011452+507044126+499498077+491298027+482347648+472466743+461512604
2997+449488311+436226776+420311007+399908330+376368381+352688976+328919945
2984+303887678+278517412+255672105+238715949+230221175+231606611+243068591
2970+263346784+289846467+319204787+348021251+373624074+394759701+411407179
2957+423930376+432608053+437812841+440113733+439844159+437207354+432949825
2943+428180755+423560500+419124512+414753125+410509649+406513625+402940212
2930+400414285+399754501+401122632+403916395+407352514+410726763+413297726
2916+414348937+413463994+410991149+407761841+403949539+399273919+393602229
2903+387512845+383520372+383329376+384775465+385529891+385940981+386788013
2889+387882151+388853716+390040708+392201748+395689011+400351671+405994959
2876+412672451+420549548+429739858+440155840+451501058+463342523+475113131
2862+486331133+496742697+506283022+515008565+523025638+530449388+537336621
2849+543686344+549514446+554871327+559775209+564304249+568662328+572957247
2835+577144266+581227607+585271522+589246070+593054027+596633325+600002882
2822+603221836+606268192+609094826+611723338+614239830+616771169+619425353
2808+622265493+625298442+628464217+631648363+634739259+637673048+640421675
2795+642985537+645345220+647447643+649292458+650955388+652470944+653830882
2781+655079793+656232772+657262607+658175555+658944058+659577700+660173207
2768+660730380+661173845+661491584+661702368+661874470+662095185+662353885
2754+662620530+662921387+663285901+663754342+664356651+665083047+665924046
2741+666837094+667748205+668609512+669404879+670172886+670973466+671843959
2727+672801497+673842554+675005712+676359096+677887512+679515436+681154980
2714+682654795+683902514+684939897+685851951+686741909+687761764+688982372
2700+690357902+691806523+693266962+694737333+696209192+697633533+698995606
2687+700301223+701562349+702799243+703987427+705099986+706164877+707207772
2673+708226931+709200954+710091509+710896955+711639042+712313499+712942920
2660+713579690+714211395+714765589+715236364+715702273+716205819+716735037
2646+717250898+717724603+718197562+718678417+719089010+719398854+719660732
2633+719962533+720347405+720747670+721117100+721533900+722060586+722661356
2619+723282882+723901776+724504284+725081717+725631641+726136031+726591016
2606+727008760+727389064+727755365+728128320+728518208+728926120+729320377
2592+729705895+730102734+730514420+730941598+731343601+731702255+732054455
2579+732403775+732734474+733057824+733357589+733595086+733774339+733918784
2565+734037906+734142528+734245362+734312197+734304848+734248689+734168795
2552+734088851+734047538+734060300+734148337+734368257+734764749+735295357
2538+735864746+736442327+737075323+737777637+738490477+739163247+739795796
2525+740389317+740914314+741378783+741848515+742349727+742840116+743280601
2511+743700132+744183023+744757526+745340619+745881655+746442701+747078230
2498+747810038+748612406+749417008+750227867+751071150+751936082+752815365
2484+753676374+754495873+755330863+756232937+757154277+758043441+758922624
2471+759817200+760726226+761629790+762495914+763331699+764185757+765084951
2457+765989259+766809751+767503077+768121177+768727409+769326988+769880189
2444+770343267+770727146+771079247+771410045+771714179+771992840+772203823
2430+772321702+772388786+772411081+772367732+772288484+772241858+772301294
2417+772479207+772745454+773120247+773637846+774266720+774950861+775658189
2403+776373364+777088935+777797803+778480007+779162111+779811096+780349252
2390+780706566+780828121+780741374+780569768+780411718+780246864+780062348
2376+779875449+779591772+779193394+778812990+778416350+777782013+777198473
2363+777204630+778226570+780402134+783299328+785801817+786333617+784505436
2349+782470146+782550090+784398480+785896359+786294588+786488738+786916462
2336+787480587+788036221+788631182+789273166+789804072+790231349+790885746
2322+791931074+792929775+793396578+793495390+793725986+794261907+794877623
2309+795364139+795718275+796005626+796320932+796687531+797047924+797379368
2295+797707386+798011768+798295196+798563083+798770092+798859619+798879680
2282+798937428+799065884+799194788+799235653+799185353+799116184+799065934
2268+798984252+798820392+798596798+798393115+798286805+798331047+798587364
2255+799096323+799819839+800748726+801857016+802595081+803195354+803745427
2241+804312134+804874571+805369826+805784987+806175818+806571664+806953259
2228+807330385+807730402+808140102+808537189+808917593+809292087+809683663
2214+810085716+810478930+810874925+811289739+811705546+812109039+812505928
2201+812902121+813305366+813696296+814046906+814377506+814739786+815140597
2187+815509779+815823000+816175596+816644186+817166353+817651180+818121558
2174+818621182+819122742+819610946+820106647+820611733+821108973+821570661
2160+821972565+822352422+822758994+823151314+823483602+823798164+824120918
2147+824401516+824624912+824852627+825114059+825395649+825728186+826164103
2133+826729817+827424584+828223674+829098835+830004534+830909637+831842000
2120+832795417+833715069+834562274+835334303+836079220+836824833+837539461
2106+838201356+838807340+839349071+839853362+840388440+840950430+841500105
2093+842007873+842515243+843101861+843744590+844372422+844999161+845672775
2079+846399121+847129242+847845955+848598619+849379983+850100966+850696821
2066+851241035+851914847+852639008+853245390+853769444+854270656+854761839
2052+855239615+855708851+856172028+856648016+857138405+857594432+858037946
2039+858487022+858905113+859304038+859660656+859994732+860370915+860780565
2025+861181376+861569873+861923116+862184994+862433564+862795149+863136772
2012+863408780+863736102+864057466+864281210+864459072+864680929+864916689
1998+865106270+865246991+865247686+865233584+865523566+865754956+865774322
1985+865826856+865902033+865949404+865968868+866016834+866137992+866318039
1971+866452702+866414468+866415262+866724908+867003867+867114001+867270512
1958+867410141+867408552+867348867+867274584+867088081+866725703+866193207
1944+865398635+864720652+864282997+863294276+861682689+859860963+858065753
1931+856462507+855216377+854585268+854681399+855763173+857624622+859375143
1917+861580499+864127976+866041860+867623854+869226007+870815945+872175288
1904+873285663+874308149+875263602+876080220+876812227+877699753+878404549
1890+878790265+879629030+880533338+881025911+881554335+882137577+882661830
1877+883181415+883773495+884244916+884139549+884280965+885505644+886596157
1863+886937880+887157154+887579317+888130979+888656026+889088914+889493797
1850+889921422+890286880+890083495+890459380+892116153+893011325+893074386
1836+893480858+894017624+893999450+893978695+894928387+895558503+895821076
1823+896668381+897255795+897436239+897814210+898382754+898665586+898886450
1809+899540499+900264760+900655343+900624557+900615818+901297376+902222341
1796+902324828+901668693+901996711+903584663+904315677+904015068+904054494
1782+904417965+904788884+905317308+905308470+904412304+904053501+905262787
1769+906278819+906704457+906684297+906164017+906487268+907221957+907564970
1755+908206904+908304426+908004016+908880418+910226851+910976634+911139799
1742+911046051+911436932+912096741+910971272+910211855+912121767+913418446
1728+913333735+912995488+912656646+912417112+911244372+909426022+909456113
1715+910744052+911217856+910621008+909345681+907943139+907230795+906094898
1701+903606610+902974508+902814819+901782302+901566901+900179057+897792759
1688+895042195+891110648+888804295+889086134+888012801+884894993+881466248
1674+879621482+878080901+875619327+874529509+874196327+872413928+870687440
1661+870517323+870446913+868757268+865235173+864441693+867896358+868272144
1647+866151001+866674558+868473741+868988758+868621314+867944622+869056685
1634+872853271+875644055+876421049+877518017+879341828+881261175+883955032
1620+886170519+886786136+888788405+892821645+895537053+896828964+898236869
1607+899872390+901358253+902691278+903997788+905156030+906090032+907005463
1593+908036887+909040107+909947991+910818137+911635053+912422872+913180303
1580+913344560+912573723+913173947+915586065+916009717+915093988+915912891
1566+917102812+917325463+915792032+912460411+912598947+916296224+917523883
1553+916916707+916241207+915781902+915046717+913548441+911639721+909896648
1539+910692114+912799651+911882929+909844709+909557607+908874261+907054025
1526+905485438+903709593+901740295+901188732+900414220+898822594+897340704
1512+895378754+892229862+887492521+884384941+884473327+882982499+878265218
1499+872342624+866591933+861078194+853683641+843808048+834635763+828509684
1485+824960626+822598510+820758263+819208347+817236118+814252079+810021413
1472+805540985+800701455+793394889+783623621+773452237+763244952+751476281
1458+739630794+732986322+732451542+733921118+736206915+740421096+746772358
1445+753329786+758257651+760924050+760784669+759223829+758514265+757335020
1431+754699456+752044031+749845676+747672594+745725541+743410845+740709042
1418+739283510+738247766+736332740+734492493+733739085+734316418+736364370
1404+740409427+745616797+749781969+750502605+745381236+738382330+736586077
1391+736786086+731190218+719730844+707734656+699473084+697736814+703361928
1377+714997377+731223735+751578023+774309523+796745528+816614940+831386767
1364+840511782+845968617+849135980+850643194+851495266+852142463+852212476
1350+851393673+849877819+847942086+845693630+843090242+840328854+838254685
1337+837118192+836455900+836143374+836348646+837107566+838286166+839916225
1323+842142734+844916040+848135739+851757640+855622253+859743679+864318749
1310+869188965+874202286+879410153+884712165+889864717+894555780+898614740
1296+902058779+904853733+906802475+907717509+907512436+906024488+902889598
1283+897977772+891799556+885369392+880054073+877262495+877822499+881500807
1269+887050894+893038734+898579386+903259525+906974578+910000426+912593187
1256+914818306+916546582+917789634+919886446+924129525+928574897+930005643
1242+930175263+933447199+938060404+939513196+938254255+936886868+936628466
1229+937756518+939996533+942951872+946344568+950026750+953900399+957826385
1215+961525151+964704730+967328377+969555581+971560631+973317310+974731967
1202+975904212+977004953+977982850+978767094+979438026+980114420+980762412
1188+981191029+981315265+981317649+981365913+981375049+981103935+980501129
1175+979729001+978811783+977542613+975742437+973506990+971031513+968332789
1161+965411711+962550120+960095101+958115672+956544206+955319129+954258806
1148+953036907+951426312+949451353+947141920+944341504+940897366+936945361
1134+932721150+928219669+923463559+918715592+914100401+909332771+903916057
1121+897467323+889727372+880217833+868159626+852815878+833621122+809984073
1107+780860694+744971785+701882471+652474916+599196045+546506275+500187182
1094+464993238+443218979+435820900+442136262+458747790+481306492+506268175
1080+531075433+554515651+576394334+596395330+613010384+621473007+616873755
1067+603237577+586765131+560146625+511002785+440749361+364431976+297969801
1053+250602823+226191089+225463377+247329100+289911862+349786569+421068388
1040+496128669+569315087+637572845+697434021+745303725+779754391+806871429
1026+835981500+865291878+887665418+903507102+916387092+928181832+939859983
1013+951639430+963278751+974233932+984039214+992941279+1001511056+1009544267
999+1016426385+1022185815+1027350185+1032225565+1036586028+1040143776
988+1043029399+1045674199+1048270833+1050609065+1052488390+1053981800
976+1055196151+1055937891+1056143659+1056416163+1057575696+1059724844
964+1062203002+1064420673+1066227900+1067797579+1069266062+1070464226
953+1071222352+1071714031+1072272545+1072913685+1073323434+1073425325
941+1073546085+1073741823+1073693261+1073397320+1073091646+1072732545
930+1072071544+1071014796+1069671740+1068227885+1066656021+1064617107
918+1061863663+1058443757+1054498207+1049960478+1044590141+1038255414
907+1031023826+1023023189+1014197493+1004188131+992226452+976896806+955611991
893+925688181+886234672+837050761+779096965+718854789+669426777+647238200
880+665091091+720645531+793793069+862224817+915354178+952865996+978449702
866+995925020+1007908547+1016250708+1022437663+1027317810+1030933952+1033305651
853+1034906513+1036179854+1036998359+1036975121+1036257514+1035390943
841+1034548901+1033325513+1031468830+1029336466+1027335289+1025410977
829+1023188837+1020545726+1017782451+1015067639+1011984886+1008064760
818+1003398425+998185295+992175904+984909956+976380994+967432353+959872748
804+955876650+956477867+960734552+966265571+970842329+973596467+974639908
791+974499584+973873738+973019581+971669673+969849735+968037443+966509573
777+965010999+963123034+961037147+959263586+957726182+955948649+953782023
764+951552534+949554336+947693086+945736101+943687256+941746955+939929897
750+937992476+935918207+934001642+932262839+930504274+928691983+926836989
737+924949322+923012596+920994437+919110445+917545830+915963439+914135159
723+912609474+910939691+909048350+907086400+905337666+903827473+902330488
710+900868262+899602567+898494080+897324417+896013835+894687364+893473907
696+892368795+891326745+890275558+889114933+887862845+886725358+885883317
683+885294017+884709285+883954039+882957771+881388489+879553456+879616418
669+881987620+882573345+880356568+879123845+879633201+880075623+880039077
656+879995977+880122397+880478321+880951132+881238135+881336649+881581446
642+882139563+882866605+883528401+884011937+884429432+884991422+885872492
629+887065889+888064442+888776587+889362312+890207135+891649202+893318587
615+894676440+895904595+897213092+898531022+899866034+901195088+902504776
602+903963527+905696172+907465959+909057685+910761034+912729340+914554939
588+915943478+917332812+919105479+920956104+922585666+923998338+925365526
575+927075330+928903809+930530194+932257874+934112967+935623955+936869191
561+938389712+940295950+942338638+944299000+946104836+947748103+949274086
548+950878623+952716337+954627640+956290769+957695198+959217507+961023343
534+962638009+963871726+965293037+966934815+968260293+969329852+970324929
521+971322885+972355203+973470643+974922641+976552104+977965074+978913376
507+979721255+980652476+981231448+981883114+983004115+984044974+984514209
494+984309732+984244188+984793367+985253664+985124861+984881454+985228341
480+985853293+986000866+985525573+984503086+983686468+983490531+982441728
467+980491298+979051018+978216325+976779422+973825871+970707964+967765336
453+963759606+959445719+954871046+949558706+943929173+938301427+932773586
440+926851289+920460353+915167974+912288805+912220778+915485366+921744221
426+929850423+938678007+946581817+952571644+959916742+968772330+974418449
413+976398076+976531646+976739302+978414745+981314371+984415992+986087165
399+986190745
##END=
