##TITLE=21
##JCAMP-DX=4.24
##DATA TYPE=INFRARED SPECTRUM
##DATE=16/11/2015
##SAMPLING PROCEDURE=Instrument type and / or accessory
##ORIGIN=Default
##XUNITS=1/CM
##YUNITS=TRANSMITTANCE
##RESOLUTION=4
##FIRSTX=3996.3359
##LASTX=399.24785
##DELTAX=-1.9287336
##MAXY=1.315177
##MINY=0.2955879
##XFACTOR=1
##YFACTOR=1.224854e-009
##NPOINTS=1866
##FIRSTY=0.53752083
##XYDATA=(X++(Y..Y))
3996+438844815+438998151+439190077+439434801+439657676+439841670+440036807
3983+440249657+440475111+440711222+440963976+441243884+441534157+441840877
3969+442165311+442435535+442604832+442750285+442993355+443350295+443729183
3956+444023349+444194738+444329680+444523747+444747644+444952805+445203564
3942+445539580+445870437+446104407+446211075+446316868+446600182+446967098
3929+447213477+447379806+447583654+447763025+447874219+448087994+448448876
3915+448731217+448868202+449006794+449126309+449173901+449349087+449766953
3902+450248567+450633586+450839478+450851205+450912180+451190822+451395011
3888+451437201+451659979+451974680+452187725+452468217+452691189+452735423
3875+452779074+452906132+453215334+453583565+453758750+453915006+454154086
3861+454262603+454076615+453773398+454035835+455078530+455879128+455913630
3848+455691679+455577274+455583454+455648224+455895527+456380013+456765178
3834+456978028+457267522+457573270+457726265+457711958+457623733+457782908
3821+458158779+458378296+458676549+459076362+459101618+458875580+458899911
3807+459201035+459333203+459461381+459939150+460300130+460397991+460548018
3794+460645294+460622617+460626997+460715028+460853084+460945202+461001408
3780+461206423+461496355+461593194+461518837+461562342+461868138+462219823
3767+462404838+462438610+462385081+462450289+462674430+462685233+462427077
3753+462446396+462965967+463262323+463081395+463296679+463869438+463759899
3740+463127673+462817887+463068500+463557219+463849000+463758633+463567000
3726+463611672+463825691+464011095+464080099+463927395+463509043+463108987
3713+463131518+463397459+463347726+462878326+462272135+461802979+461418203
3699+460864033+460079348+459153979+458226858+457545483+457269566+457104940
3686+456755786+456410767+456144826+455643795+455015317+454826263+454934489
3672+454929282+455000572+455013663+454690981+454232433+453776853+453273924
3659+452884915+452768903+452565347+452085339+451824410+451944801+451912295
3645+451497007+450931742+450378253+449832258+449247820+448550824+447659568
3632+446798093+446391030+446143483+445370720+444195955+443109123+442303367
3618+441566712+440578568+439383851+438201154+437136269+436132067+435008495
3605+433714166+432388692+431094558+429769571+428418306+427066896+425625703
3591+424069422+422542632+421098324+419633627+418134720+416654937+415188829
3578+413685104+412096171+410385582+408537131+406681746+405018894+403488308
3564+401879764+400167228+398460142+396761523+394989570+393123479+391210793
3551+389281563+387313645+385300568+383310047+381418432+379561417+377595056
3537+375525799+373487271+371496872+369472846+367410839+365325839+363219768
3524+361158613+359158261+357148737+355085805+352980683+350884345+348866451
3510+346926125+344946577+342839752+340668813+338554372+336522196+334541163
3497+332586458+330618564+328640306+326660320+324652304+322633291+320645105
3483+318652978+316611944+314594318+312643213+310673738+308614359+306462837
3470+304294478+302242861+300332146+298432502+296466409+294510852+292639310
3456+290795701+288940608+287105564+285277284+283443577+281633229+279860717
3443+278101099+276321969+274519577+272750252+271124968+269622995+268123966
3429+266642456+265273162+263985572+262657739+261291851+259974261+258676185
3416+257334994+256036139+254879987+253814153+252788734+251787281+250695048
3402+249501085+248481530+247783610+247106007+246282683+245456002+244828400
3389+244364037+243909941+243454532+243033624+242611646+242216967+241943532
3375+241787495+241634427+241434131+241325005+241468511+241795208+242102367
3362+242350644+242669287+243093479+243538158+243949990+244356080+244879131
3348+245588121+246369911+247111457+247831543+248583575+249446778+250464679
3335+251543578+252623184+253715368+254778355+255817887+256939585+258202941
3321+259568828+260966566+262338536+263687100+265035469+266355590+267650041
3308+269004225+270536879+272261459+274018838+275666215+277223955+278792790
3294+280424668+282141949+283966433+285839654+287693117+289528818+291356076
3281+293188517+295039742+296912232+298818713+300761813+302780413+304924513
3267+307140562+309351841+311555627+313777807+316016654+318252508+320532427
3254+322927578+325386989+327809805+330210771+332690523+335281468+337914532
3240+340534285+343135548+345724352+348356758+351122670+354003548+356888635
3227+359724159+362548491+365412945+368318957+371252293+374212929+377204076
3213+380195759+383158365+386119828+389085622+392035674+394995921+397997165
3200+401026318+404049753+407038321+409986791+412931612+415878476+418775802
3186+421632981+424510695+427403252+430277658+433135372+435959947+438731674
3173+441469679+444211138+446974155+449715030+452377996+454973954+457540130
3159+460086306+462601144+465073498+467512470+469945798+472369538+474754836
3146+477091130+479383627+481628630+483815286+485974205+488134583+490266008
3132+492320302+494307928+496302026+498304153+500224284+502041348+503824639
3119+505607931+507371514+509095535+510755126+512350093+513919561+515476328
3105+517005649+518506892+519974363+521391760+522751394+524059008+525330758
3092+526574624+527792310+528981576+530127192+531214365+532241536+533231626
3078+534240695+535284655+536285597+537175150+537986016+538789047+539592030
3065+540337201+540988599+541572259+542117670+542621961+543051360+543405916
3051+543726263+543982131+544114055+544147633+544110406+543958773+543679060
3038+543298226+542793789+542130420+541307680+540340705+539241610+537987038
3024+536506380+534768880+532813128+530645352+528232366+525537769+522512509
3011+519077461+515153402+510703981+505694550+500012650+493468400+485891624
2997+477131276+466892995+454461244+438989732+420651601+400247862+377879660
2984+353683129+329111141+306874183+290174474+281810921+283439490+295054778
2970+314946660+340210338+367439988+393492610+416210696+434660752+448792337
2957+458985168+465718181+469444183+470602111+469584332+466836546+462981977
2943+458697572+454436426+450323021+446359837+442604784+439135136+436144232
2930+434183371+433913439+435451130+438254099+441585642+444772364+447193331
2916+448403474+448271501+446980383+444813387+441854989+438150837+433927357
2903+429728159+426640854+425324724+425103455+425140877+425349202+425819039
2889+426439148+427122469+428060490+429572828+431842016+434922313+438918442
2876+444024954+450354846+457868603+466341550+475395966+484590969+493469762
2862+501728496+509272667+516082178+522192212+527752601+532928117+537763677
2849+542237721+546348060+550125450+553610961+556859047+559942021+562927572
2835+565884266+568837165+571754102+574605538+577373713+580039648+582580958
2822+584981389+587223813+589276988+591148407+592956711+594832657+596826365
2808+598980758+601289753+603678992+606106771+608495475+610711961+612716230
2795+614551883+616251913+617806928+619192694+620445709+621606799+622661952
2781+623609219+624463978+625233919+625910768+626490389+627012977+627500090
2768+627906375+628219421+628488283+628747606+629006832+629249026+629458081
2754+629667963+629909037+630192205+630573088+631104825+631752184+632436381
2741+633101015+633735625+634370721+635012338+635634150+636248467+636920742
2727+637672872+638473616+639373339+640438419+641625398+642876223+644133033
2714+645275827+646218033+647001308+647713193+648427513+649237648+650189149
2700+651257830+652386463+653500837+654600711+655720828+656824448+657877021
2687+658910324+659960026+660980092+661894318+662725330+663567826+664437477
2673+665272138+666048016+666769878+667440984+668069560+668643292+669164469
2660+669656449+670125216+670585614+671045962+671489328+671915953+672352944
2646+672800105+673236463+673677444+674113461+674490889+674810067+675116544
2633+675449154+675812615+676171989+676527323+676915749+677356924+677857760
2619+678406480+678966393+679484553+679942420+680410117+680914018+681372712
2606+681749702+682091314+682453899+682845098+683225008+683581121+683955580
2592+684380892+684824257+685242756+685635755+686009193+686367447+686726042
2579+687085319+687419534+687733894+688069180+688421352+688731868+688965206
2565+689126960+689258885+689436649+689642152+689781862+689852374+689900453
2552+689962547+690079288+690267223+690502653+690789179+691183395+691694937
2538+692264874+692836222+693401098+694000038+694651826+695299526+695882894
2525+696433317+696992791+697516207+697985266+698473791+698996963+699474635
2511+699897708+700365600+700921084+701492432+702052004+702643937+703285797
2498+703982257+704692294+705371235+706074313+706836613+707621591+708413721
2484+709194903+709935451+710655950+711407594+712200162+713005091+713806176
2471+714612273+715422019+716219259+716988908+717718215+718439931+719228801
2457+720065507+720815982+721419837+721963934+722536840+723119088+723637297
2444+724064458+724438820+724820675+725232605+725650374+726015295+726276565
2430+726477833+726676523+726841441+726950007+727038768+727155558+727336875
2417+727595128+727920292+728326722+728849554+729462168+730098773+730723796
2403+731358162+732036860+732725193+733347491+733923706+734467706+734939733
2390+735250980+735310251+735142705+734873844+734595834+734322058+734098794
2376+733980495+733860931+733641608+733443551+733392115+733324815+733280045
2363+733534405+734446732+736265061+738827490+741121885+741473522+739512466
2349+737437831+737573161+739610229+741374055+741950902+742160103+742427164
2336+742676365+742956467+743556332+744413719+745062295+745377240+745786541
2322+746602955+747470902+747868768+747901907+748077092+748602698+749272296
2309+749863450+750346281+750776166+751232622+751718908+752183734+752627002
2295+753071097+753476019+753854955+754244743+754602851+754856627+755042859
2282+755252352+755500191+755735961+755915235+756035188+756123073+756192466
2268+756231250+756249158+756258842+756260545+756286579+756413199+756713983
2255+757216863+757897946+758761513+759767030+760390787+760907244+761441317
2241+762008529+762540703+763021442+763459892+763874547+764285697+764680157
2228+765069069+765485086+765927429+766372303+766803941+767249253+767733252
2214+768214623+768647282+769063591+769524329+770007501+770466584+770923040
2201+771403584+771886658+772343162+772768230+773181960+773626688+774096380
2187+774525488+774899557+775304382+775833199+776444548+776998961+777468653
2174+777956497+778492856+779031649+779568544+780089186+780588416+781087695
2160+781561766+782010679+782472731+782932009+783361701+783787986+784215146
2147+784598267+784946351+785315117+785709236+786109340+786536501+787037094
2133+787663236+788408407+789190075+789986732+790836041+791724767+792619624
2120+793506793+794366273+795151202+795849754+796524851+797203598+797856407
2106+798478656+799061148+799577021+800063015+800603852+801176222+801735842
2093+802255852+802754449+803270371+803817387+804396230+805012250+805642042
2079+806263270+806894522+807556042+808240920+808922440+809556174+810110490
2066+810642811+811242335+811874560+812445616+812949275+813443931+813938684
2052+814405894+814867946+815353015+815839690+816295659+816722820+817135674
2039+817548917+817993110+818452778+818866118+819236344+819613382+820006673
2025+820392958+820748292+821064210+821389471+821768164+822150750+822483992
2012+822796406+823146290+823508146+823817348+824090638+824377748+824663203
1998+824898925+825069536+825237227+825494750+825798794+826009309+826128630
1985+826261868+826455253+826645232+826777984+826910347+827117066+827359892
1971+827526513+827659849+827926131+828286721+828559719+828758651+829003814
1958+829265230+829437593+829514285+829564116+829593703+829511657+829255789
1944+828935686+828676217+828332367+827688462+826743336+825622246+824466022
1931+823398558+822561949+822178098+822478931+823466588+824834592+826474621
1917+828350469+830083249+831506729+832801058+834062102+835251320+836303601
1904+837213009+838028400+838747634+839379665+840015880+840646256+841198772
1890+841796739+842479865+843068391+843568157+844086317+844607104+845122247
1877+845668534+846167618+846464752+846735803+847355474+848193542+848842215
1863+849258378+849645830+850140534+850724778+851264447+851687715+852058427
1850+852413372+852739607+853283850+854224694+855101595+855603793+856008083
1836+856449745+856789507+857120121+857706214+858371044+858888425+859474615
1823+860128155+860648358+861105398+861607889+862097727+862552820+863094435
1809+863738826+864328228+864749258+865084154+865569126+866211668+866673379
1796+866863844+867240201+868068732+868885291+869325104+869619221+869996843
1782+870471499+870998029+871349276+871379933+871504802+872144326+872978599
1769+873569753+873879636+874027376+874329085+874867780+875387303+875868090
1755+876277148+876574671+877083585+877926131+878752714+879332384+879749326
1742+880216292+880676738+880776205+880849977+881602107+882561151+883045636
1728+883289436+883477469+883537713+883344133+883010405+883103350+883742583
1715+884250621+884314369+884096458+883754457+883400776+882918724+882267910
1701+881919680+881936712+881818851+881547897+880957717+879818329+878308716
1688+876703919+875504872+874892987+874135310+872761174+871171365+869848909
1674+868734826+867600402+866736932+866246997+865625185+864859138+864366574
1661+863994500+863187770+861964391+861392605+862076315+862411893+861667354
1647+861184621+861403992+861491488+861155131+860746560+860965444+862245369
1634+863685103+864403461+864889211+865708106+866827834+868178028+869473817
1620+870389259+871589961+873650922+875705070+877137893+878351832+879598082
1607+880772798+881862550+882931960+883938401+884837006+885716924+886673048
1593+887651751+888566414+889427451+890274863+891104074+891853771+892394219
1580+892762206+893493508+894717568+895504443+895680991+896096668+896835659
1566+897219899+896877411+896052774+895853160+896908069+897862830+897928427
1553+897623313+897280728+896857362+896166742+895268527+894659465+894889834
1539+895579384+895510672+894709490+894090891+893625481+892819530+891816301
1526+890876722+890022012+889348715+888746758+887939834+886946337+885692398
1512+883941418+881841138+880143785+879234183+878089345+875832663+872789398
1499+869375421+865509757+860801646+854971373+848238798+841790899+837105367
1485+834502986+833223061+832341488+831292710+829865143+827938783+825282581
1472+821668795+817070661+811472558+804721150+796828457+788189522+779511755
1458+772324086+768672733+768619447+770338699+772810178+776323427+781002341
1445+785913230+789881718+792147256+792705368+792248377+791338142+790091648
1431+788657706+787279434+786099462+785236137+784677928+784382935+784620603
1418+785518283+786654410+787771218+789010461+790553457+792504099+794943315
1404+797744970+800445650+802568022+803275626+801641534+798638903+796018029
1391+792809214+786598886+777358384+767915785+761438154+760002800+764168274
1377+773080255+785817267+801607762+818954684+836108172+850999625+861734703
1364+868264550+871735268+873262205+873842653+874165967+874321883+874068350
1350+873266390+871988119+870368529+868466208+866377315+864405797+862938034
1337+862076997+861647013+861555430+861880107+862678272+863885009+865442019
1323+867365848+869654258+872263842+875149634+878311733+881794325+885595851
1310+889619279+893785095+898047262+902329283+906500840+910362222+913752646
1296+916633670+918986704+920690967+921608161+921693418+920837636+918794000
1283+915486886+911288175+906967321+903583904+902263102+903694757+907728404
1269+913432349+919675280+925636747+930864771+935232438+938862964+941930269
1256+944571483+946791668+948570093+950350173+952651138+954955412+956275727
1242+957100559+958734261+960696729+961708717+961938794+962119819+962571409
1229+963411813+964580690+965916771+967302003+968700275+970125799+971575362
1215+972911444+973961000+974763642+975506428+976274325+976941587+977410598
1202+977841263+978411297+978921476+979205374+979346496+979520611+979743875
1188+979858816+979742512+979498518+979287906+979065031+978642542+978015670
1175+977355415+976638808+975631978+974223389+972546085+970742841+968779790
1161+966670945+964662735+962975017+961631538+960588600+959774766+959045021
1148+958201795+957140267+955890513+954403285+952508361+950120680+947372894
1134+944445349+941303688+937933021+934609362+931517921+928397185+924826319
1121+920612523+915656524+909510917+901400508+890703483+876981491+859552184
1107+837175928+808324960+772163646+729258612+681785956+633851248+591202666
1094+559430528+541984870+539730572+551140748+572699082+600287886+630213179
1080+659422693+686003888+709232957+728675439+743309564+750901521+749293318
1067+739094259+720694180+688938587+637158264+565976044+485793521+411958553
1053+357588112+329789012+330292257+357694635+408388418+476218560+552969636
1040+629908843+700256741+760515558+809680750+848311695+877918150+901737935
1026+923318750+942491836+957505043+968945827+978281465+986415817+993910644
1013+1001026097+1007751373+1013807343+1019024952+1023685180+1028170125
1001+1032400661+1035998194+1038959511+1041711578+1044495082+1047036732
989+1049003385+1050540638+1052062903+1053690280+1055200574+1056423466
978+1057472730+1058447638+1059152370+1059474809+1059810873+1060794638
966+1062499096+1064321512+1065806599+1067005939+1068117978+1069191378
955+1070123949+1070779241+1071209224+1071711422+1072378977+1072873487
943+1073039816+1073217240+1073531016+1073725570+1073741823+1073684304
932+1073547075+1073247508+1072730613+1072041647+1071301002+1070494759
920+1069429631+1068014131+1066272592+1064219223+1061824923+1058959180
908+1055480287+1051357295+1046599061+1041037309+1034257920+1025590907
897+1013888415+997344670+973783479+941348555+899250105+849237648+797501316
883+755447635+738084119+756610527+807350296+871492247+929679932+973345125
870+1003012117+1022400583+1034918564+1042855053+1047900494+1051362648
858+1053893787+1055497221+1056236796+1056622788+1057073697+1057362363
847+1057014912+1056145213+1055306269+1054672487+1053826730+1052479163
835+1050922445+1049492153+1048112761+1046464265+1044488075+1042529014
824+1040732486+1038660430+1035833033+1032353945+1028531493+1024124409
812+1018576380+1011910083+1005031131+999462663+996732202+997485597+1001012277
798+1005512793+1009253589+1011518251+1012341332+1012214419+1011800884
787+1011260729+1010324751+1009005604+1007666505+1006554466+1005496929
775+1004132429+1002587487+1001298413+1000210608+998925719+997311969+995627365
762+994156585+992832377+991432644+989981037+988649432+987357828+985866513
748+984296363+982914052+981609212+980250551+978905417+977569433+976256223
735+975005884+973706397+972311044+970972043+969696108+968404698+967428039
721+966199793+964733782+963244121+961964391+960897316+959837736+958782924
708+957878285+957124890+956345217+955458778+954536426+953669550+952901166
694+952214731+951484694+950637964+949801647+949117061+948581869+948202982
681+947926675+947574358+946955466+945668534+944020330+944271526+946799356
667+947362578+945186092+944278826+945233879+945986593+946086740+946116619
654+946305138+946738431+947369585+947880154+948173882+948552282+949178863
640+949892452+950521368+951047119+951555741+952148744+952942140+953987122
627+954963490+955884868+956705029+957531612+958702047+960187523+961479711
613+962530824+963596244+964803273+966161253+967436311+968555163+969933387
600+971680863+973262302+974486459+975868771+977579263+979122258+980358582
586+981698654+983293621+984934915+986452508+987851365+989263555+990693264
573+991920633+993004156+994347732+995973551+997363551+998301962+999401446
559+1001088774+1002888514+1004500708+1006085456+1007607234+1009055143
548+1010623053+1012171888+1013470694+1014767846+1016330988+1018135886
536+1019825161+1021020997+1022056441+1023394372+1024698920+1025527937
525+1026114711+1026910832+1027913964+1028826681+1029605965+1030554303
513+1031581474+1032281535+1032767188+1033494597+1034525175+1035413950
501+1035889579+1036298247+1036913149+1037321720+1037193251+1036984683
490+1037034805+1037003953+1036670809+1036441413+1036782344+1037244736
478+1036940108+1035873228+1034782698+1034075727+1033520778+1032675897
467+1031564831+1030727347+1030086557+1028655194+1026069261+1022894509
455+1019727933+1017083118+1014783321+1011797088+1007857263+1003627700+999571668
442+995626294+991337071+986895922+983327003+981264583+980995284+983118046
428+987644062+993440757+999155018+1003921622+1008233425+1013565392+1019750123
415+1024714784+1026865479+1027142759+1028041655+1029573750+1030306804
403+1030949541+1032533607+1034651309
##END=
