##TITLE=21
##JCAMP-DX=4.24
##DATA TYPE=INFRARED SPECTRUM
##DATE=16/11/2015
##SAMPLING PROCEDURE=Instrument type and / or accessory
##ORIGIN=Default
##XUNITS=1/CM
##YUNITS=TRANSMITTANCE
##RESOLUTION=4
##FIRSTX=3996.3359
##LASTX=399.24785
##DELTAX=-1.9287336
##MAXY=1.30709
##MINY=0.29584491
##XFACTOR=1
##YFACTOR=1.2173225e-009
##NPOINTS=1866
##FIRSTY=0.51054502
##XYDATA=(X++(Y..Y))
3996+419399978+419543246+419679659+419875318+420093745+420285976+420459994
3983+420652372+420891266+421134812+421354169+421598694+421906284+422249667
3969+422578654+422868470+423129300+423379750+423613258+423820227+424036304
3956+424260509+424435359+424605556+424875249+425199584+425469130+425722272
3942+426001904+426226452+426366194+426476118+426677261+427042971+427412696
3929+427628283+427801909+428055639+428265693+428355003+428525005+428882097
3915+429246485+429461926+429545311+429538946+429556622+429837478+430383129
3902+430906111+431268198+431447650+431446964+431517374+431813017+432025324
3888+432119432+432458212+432855259+433076232+433345092+433532378+433512352
3875+433517102+433653759+433974961+434298465+434426456+434649241+435016861
3861+435149063+434870361+434516304+434897781+436128974+436935113+436817404
3848+436522691+436489249+436610434+436717860+436969681+437514304+437987735
3834+438186527+438326368+438458717+438550328+438600565+438613736+438845285
3821+439252027+439505023+439870978+440281489+440197908+439837242+439817069
3807+440192033+440444343+440651019+441141782+441460928+441470965+441504408
3794+441514347+441490845+441568844+441749471+441980874+442179617+442334098
3780+442581169+442841215+442870887+442754598+442804688+443107137+443411887
3767+443581008+443675116+443702291+443818629+444067169+444102961+443897216
3753+443991814+444592844+444968983+444848483+445135117+445776982+445669017
3740+445000026+444670990+444887703+445303258+445542005+445435901+445248223
3726+445340128+445644927+445914375+446061217+446026550+445758964+445474827
3713+445571922+445935968+446015387+445693989+445286953+445076899+444972851
3699+444721226+444299110+443763986+443197916+442845034+442843908+442831912
3686+442483829+442018478+441607623+441166998+440972074+441340673+441681656
3672+441604049+441578245+441524727+441137522+440653908+440222831+439774127
3659+439449792+439343149+439029879+438397953+438081109+438215318+438098687
3645+437484437+436742293+436100036+435502287+434858757+434116809+433215730
3632+432362439+431944827+431647520+430809457+429622821+428614902+427958544
3618+427350610+426447425+425348189+424242295+423197164+422246925+421263586
3605+420105056+418836944+417565748+416292838+415034715+413817966+412510341
3591+411057195+409685452+408477492+407214840+405841310+404460312+403082106
3578+401675745+400235379+398732487+397125546+395518238+394104411+392809271
3564+391375931+389783337+388156762+386508398+384816628+383104048+381367672
3551+379592003+377804704+376042745+374298583+372556601+370795890+368983766
3537+367145913+365334524+363525902+361684425+359802088+357838521+355836810
3524+353941081+352138188+350291472+348387566+346492132+344603870+342725352
3510+340883018+339030941+337099444+335105421+333160655+331327135+329548112
3497+327754913+325912530+324033156+322162717+320320824+318496044+316679367
3483+314830007+312915843+311009049+309173742+307375500+305519628+303523450
3470+301467561+299557976+297825957+296089508+294270799+292463328+290712042
3456+288970525+287214881+285449225+283693704+281986681+280308303+278627721
3443+276982295+275361228+273690439+272018083+270499987+269131181+267766293
3429+266388894+265096399+263871155+262623045+261358924+260122296+258918645
3416+257739770+256607582+255530062+254475530+253481175+252559530+251556949
3402+250414062+249429671+248818922+248263967+247536831+246763131+246163056
3389+245732004+245343795+244945548+244528329+244123692+243799406+243568884
3375+243403240+243260511+243107328+243029206+243170369+243495488+243843669
3362+244164528+244530630+244985062+245479229+245925239+246337147+246870753
3348+247578377+248343166+249086337+249818982+250577405+251429252+252411097
3335+253438845+254451709+255480853+256517954+257574542+258722497+259962234
3321+261231104+262483327+263718902+264995240+266346883+267727391+269073967
3308+270387591+271783522+273353348+274993315+276567768+278105596+279684309
3294+281307310+282971660+284680641+286403063+288129279+289883918+291682503
3281+293523000+295361662+297144137+298891579+300673076+302562072+304592622
3267+306704158+308830114+310959963+313092260+315226368+317375778+319567541
3254+321807436+324052937+326283455+328571432+330988551+333464035+335900910
3240+338349292+340854179+343347950+345859790+348504100+351231796+353925609
3227+356582209+359235211+361889290+364557568+367265580+370011931+372795715
3213+375604005+378406591+381214954+384030565+386822182+389573577+392312681
3200+395108436+397955114+400760638+403508506+406249471+408980595+411689464
3186+414402152+417115575+419791149+422442486+425121340+427806854+430439585
3173+432996715+435516535+438065097+440592360+443016016+445392127+447779452
3159+450163104+452523645+454821023+457041969+459252534+461499676+463765815
3146+465988915+468095384+470097119+472099196+474180742+476297053+478339966
3132+480254448+482074430+483883101+485701711+487466413+489163202+490837615
3119+492475011+494069417+495673468+497265279+498793437+500283942+501741935
3105+503137890+504506133+505859392+507151104+508391307+509621178+510834303
3092+511991463+513082130+514158254+515268066+516367792+517367582+518267095
3078+519175225+520149946+521120309+522011791+522812985+523551896+524275727
3065+524987513+525639073+526222035+526772094+527306484+527811251+528269600
3051+528665081+528975951+529185418+529299406+529350181+529355665+529312577
3038+529210928+529023593+528732210+528323901+527791812+527137853+526340821
3024+525379027+524255946+522970795+521510795+519850679+517930469+515707222
3011+513169236+510257363+506858497+502881810+498232753+492739953+486223077
2997+478508401+469276487+458050573+444338134+427882650+408705002+386965206
2984+363294010+339325311+317678888+301424302+293301807+294926668+306245613
2970+325503463+349763227+375667389+400269580+421649371+438971171+452186089
2957+461641524+467759835+470979984+471767124+470553558+467829657+464197185
2943+460174619+456066367+452050264+448247300+444692583+441401877+438625879
2930+436932860+436840270+438410634+441197503+444467545+447516223+449845721
2916+451171953+451375397+450468246+448585150+445903064+442588024+438898607
2903+435330326+432532588+430847403+430086556+429904852+430047238+430347337
2889+430777287+431392859+432278760+433565576+435412879+437970989+441396589
2876+445880492+451549316+458377846+466167045+474511590+482858486+490738953
2862+497977407+504582125+510549236+515907141+520770316+525264843+529481208
2849+533437869+537081358+540408296+543487233+546377611+549113949+551713188
2835+554239912+556806885+559433544+562033322+564538894+566944237+569263648
2822+571463099+573461162+575269441+576996686+578717859+580471348+582295736
2808+584243268+586354633+588584784+590814151+592948480+594962897+596844965
2795+598588710+600212592+601670291+602906429+604006987+605067933+606059987
2781+606943831+607742185+608499752+609206005+609788183+610245847+610655233
2768+611048461+611411478+611715200+611959773+612199108+612443829+612662403
2754+612879753+613131182+613438478+613843065+614345727+614926975+615565364
2741+616199200+616808260+617407527+617984466+618560427+619161603+619778791
2727+620437500+621185078+622032053+622984103+624056654+625205441+626335083
2714+627373604+628284574+629076709+629780514+630450582+631204477+632118532
2700+633147994+634207030+635257841+636313744+637366023+638370514+639316053
2687+640247783+641198218+642137049+643020012+643848037+644690850+645563139
2673+646359485+647046348+647698692+648340459+648925184+649439793+649953961
2660+650515330+651063577+651533139+651952268+652387507+652845073+653287901
2646+653713053+654153824+654609383+655017740+655355198+655672777+655995987
2633+656331731+656705177+657090865+657444774+657808722+658249346+658750980
2619+659272101+659802231+660325457+660839528+661355654+661840346+662260357
2606+662634636+663003284+663388628+663787242+664189675+664573355+664947584
2592+665351437+665752842+666131527+666542137+666979922+667395918+667796343
2579+668177966+668502057+668791629+669088055+669386489+669688546+669988057
2565+670243354+670450324+670658518+670863871+671026872+671161571+671296172
2552+671436845+671571642+671714714+671927510+672255763+672709902+673247328
2538+673791804+674342548+674947446+675593572+676236563+676847875+677428389
2525+678013555+678601756+679139623+679607961+680052649+680515014+680983450
2511+681452277+681965123+682544854+683132419+683686003+684244777+684851829
2498+685536831+686265412+686966327+687666656+688397586+689136449+689894113
2484+690652023+691370419+692080638+692818031+693577116+694353338+695139744
2471+695932565+696725288+697482904+698190527+698900991+699657481+700429492
2457+701180497+701893213+702541787+703123770+703667022+704209100+704764348
2444+705290708+705742350+706129212+706499182+706893193+707289604+707602482
2430+707819783+708032041+708258694+708450925+708623963+708816929+709030607
2417+709284043+709642262+710117210+710646067+711208856+711821882+712447883
2403+713065659+713699004+714351495+714972502+715571916+716155417+716702342
2390+717163531+717465686+717531689+717323691+716918516+716497771+716187586
2376+715944971+715708965+715554730+715474576+715397654+715527359+715928910
2363+716572294+717483264+718579317+719714002+721199807+723488371+725676266
2349+725757252+723443570+721353651+721780076+723766877+725475662+726418312
2336+726760715+726827600+726969839+727410513+728074314+728622414+728874920
2322+729113814+729730659+730645987+731308417+731477293+731528117+731831546
2309+732372840+732959768+733466151+733852523+734195025+734602844+735051498
2295+735464752+735872620+736296107+736712788+737101316+737436913+737702688
2282+737911127+738109675+738320708+738499279+738622570+738744293+738885603
2268+738996848+739052031+739090516+739147069+739256307+739485849+739867864
2255+740377870+740996429+741751792+742628831+743225454+743761264+744293646
2241+744842236+745373346+745865137+746325837+746774051+747225203+747660980
2228+748053718+748433579+748852463+749317619+749795749+750260758+750721898
2214+751183381+751636247+752088476+752559752+753047284+753532759+754017794
2201+754516783+755021844+755505801+755962437+756407272+756863468+757339150
2187+757795786+758216384+758667144+759208732+759803250+760358645+760859642
2174+761381840+761944825+762493806+763026385+763564251+764084932+764563993
2160+765009954+765484217+766011605+766508783+766959690+767436597+767906061
2147+768305948+768686053+769091473+769508448+769953969+770454917+771010802
2133+771644442+772365530+773127994+773928599+774793886+775683459+776558637
2120+777411340+778229965+779008978+779737950+780427359+781110697+781785564
2106+782422435+783009902+783546936+784050626+784584722+785141195+785695171
2093+786223783+786725563+787234737+787785334+788357426+788935247+789549057
2079+790206003+790867503+791510299+792150352+792797604+793420961+793996432
2066+794579198+795219350+795841385+796371026+796872316+797418311+797965529
2052+798454726+798910921+799370397+799835846+800317257+800814729+801289579
2039+801735051+802186937+802623792+803005660+803377343+803789912+804212909
2025+804607361+804994958+805377903+805747726+806149033+806559398+806914434
2012+807249982+807621274+807989286+808309117+808608530+808934139+809272282
1998+809556664+809754134+809938287+810211504+810538729+810802692+811003689
1985+811212568+811448622+811647611+811780694+811937231+812188513+812477105
1971+812716342+812940253+813233790+813559742+813822383+814059906+814372295
1958+814719889+814988063+815156302+815273668+815341189+815304418+815148860
1944+814961133+814786724+814489955+813957083+813202747+812272045+811271863
1931+810355752+809664237+809363110+809658851+810582503+811862268+813404184
1917+815172264+816792817+818102695+819288204+820461865+821566682+822518733
1904+823349941+824139824+824871048+825519720+826158305+826785726+827336176
1890+827916396+828551064+829080068+829542188+830059735+830602449+831111084
1877+831612178+832097409+832468358+832875247+833594916+834415939+834993516
1863+835395704+835820219+836331009+836899282+837447088+837930164+838369565
1850+838767640+839143093+839770319+840760365+841604794+842089535+842537651
1836+843018475+843373755+843744313+844399643+845098649+845592498+846144515
1823+846775853+847275675+847730450+848282271+848864841+849411081+850003346
1809+850649373+851219997+851651465+852068146+852682935+853420035+853918877
1796+854155176+854616513+855497762+856290191+856711572+857055298+857507723
1782+858034866+858603629+859029809+859210485+859545887+860341645+861161886
1769+861629489+861866963+862056845+862455116+863056390+863585982+864067295
1755+864500135+864876959+865514761+866442134+867254834+867794414+868222455
1742+868730992+869200652+869309254+869493749+870409077+871417534+871853801
1728+872072081+872287815+872387897+872250701+872078446+872432846+873248092
1715+873750558+873750656+873542168+873315564+873137924+872842672+872418548
1701+872345495+872552024+872468589+872145233+871488238+870370004+869022229
1688+867698151+866851667+866485222+865718352+864261779+862723045+861578959
1674+860661770+859704921+858986427+858537626+857900510+857203756+856844068
1661+856541375+855752177+854635021+854296779+855117314+855347443+854481568
1647+853932685+853991050+853842396+853355892+852954586+853257279+854495572
1634+855695869+856165431+856509646+857253405+858328844+859640583+860873098
1620+861756501+862989212+865036287+866984652+868322733+869479550+870657519
1607+871771346+872864902+873998020+875076398+876029330+876944266+877906991
1593+878875003+879796501+880702624+881634795+882575976+883445669+884111870
1580+884635390+885553950+886916904+887751442+887994595+888526929+889309076
1566+889638504+889280775+888650220+888868696+890226558+891083815+890892465
1553+890430639+890060571+889687467+889134569+888526244+888353010+888960944
1539+889676989+889380269+888451623+887861218+887449140+886736130+885924311
1526+885243422+884678870+884280011+883858434+883148558+882225395+881076413
1512+879560496+877871149+876660374+876059491+874947133+872722124+869940690
1499+866989842+863627797+859394981+854113165+848052925+842223891+837919098
1485+835519974+834416233+833743863+832941152+831825073+830291725+828026761
1472+824681461+820280748+815008970+808800125+801555354+793570301+785620256
1458+779270493+776332082+776605495+778343169+780686818+783925768+788190362
1445+792697032+796393990+798543644+799144037+798847023+798097046+796977931
1431+795722256+794604806+793739519+793254974+793177758+793489461+794460216
1418+796151864+798095185+800064849+802155160+804406071+806803286+809347686
1404+811846061+813898277+815346379+816032606+815539003+813840304+811095642
1391+806801964+800195533+791632708+783163942+777327417+775978515+779657355
1377+787653230+799182768+813508722+829228135+844771768+858253832+867914277
1364+873709624+876682799+877832174+878095991+878164442+878158174+877852445
1350+877079797+875864126+874320006+872512461+870556654+868757433+867438546
1337+866650426+866260185+866223658+866593040+867374305+868505269+869958415
1323+871765177+873929863+876409092+879149984+882142353+885429288+889023323
1310+892822419+896740888+900760320+904812754+908754041+912395865+915609746
1296+918378742+920677100+922390830+923395272+923626185+922991811+921302660
1283+918465017+914787057+911000203+908098612+907135300+908795366+912991557
1269+918869751+925316707+931496712+937006992+941757845+945772087+949119737
1256+951938677+954327029+956330723+958119564+959908111+961608915+962946408
1242+964009802+965159666+966347722+967297325+968046568+968761634+969519103
1229+970339637+971210898+972091069+972917773+973679257+974427129+975180877
1215+975830136+976263269+976560674+976893530+977296697+977632392+977837355
1202+978075416+978492293+978881751+979097093+979190712+979307344+979470295
1188+979510739+979287856+978956763+978743869+978566229+978180982+977601545
1175+977010455+976341415+975371933+974087908+972628495+971052353+969321975
1161+967449210+965633635+964144257+963045902+962186295+961432156+960756260
1148+960077917+959248765+958226501+957010437+955453195+953431679+951099732
1134+948634604+945970586+943091225+940236444+937591619+934985084+932025129
1121+928494159+924361424+919300436+912559893+903444218+891518123+876125886
1107+855970262+829495183+795803977+755289235+709935359+663718301+622387334
1094+591761746+575637893+574837238+587513409+610233019+639156137+670528666
1080+701008831+728456427+752012582+771165038+785082096+792557241+792459509
1067+784038336+765481475+732492899+680630519+610283402+529953757+454435679
1053+398085676+369170049+369726301+398084574+449963675+518495559+594998396
1040+670612932+738439592+795019921+840135001+875598253+903780795+926775336
1026+946051278+962018741+974768406+984957562+993391760+1000636041+1007053227
1013+1012881379+1018227141+1022986024+1027048152+1030600275+1033987683
1001+1037219877+1039949703+1042139263+1044234518+1046455317+1048505918
989+1050107718+1051377347+1052649523+1054080634+1055480311+1056615976
978+1057564306+1058454760+1059126836+1059467819+1059845721+1060801983
966+1062364416+1064056014+1065494569+1066654030+1067702147+1068734401
955+1069621330+1070206544+1070651233+1071264160+1072008899+1072554355
943+1072821795+1073095012+1073454014+1073649379+1073635670+1073642035
932+1073741823+1073707646+1073350701+1072807399+1072306402+1071777300
920+1070989670+1069917854+1068665949+1067261963+1065638424+1063649420
908+1061119268+1057915278+1054012379+1049369540+1043665658+1036116430
897+1025529787+1010448470+988960346+958891526+919202606+871814630+822788229
883+782925880+766625562+784381865+832171344+892264037+946843805+987776599
870+1015349935+1033131308+1044447217+1051423275+1055602133+1058291417
858+1060167021+1061230318+1061518812+1061522729+1061724851+1061915222
847+1061502948+1060599371+1059842294+1059306925+1058528010+1057265725
835+1055775954+1054461866+1053342261+1052021318+1050339022+1048606686
824+1046986672+1045110382+1042564855+1039448216+1036026533+1032077511
812+1027075964+1021027768+1014829646+1009869229+1007450910+1008169012
800+1011362427+1015404676+1018810789+1020905653+1021661359+1021553443
789+1021234493+1020803319+1019916390+1018650971+1017468301+1016561591
777+1015652726+1014319444+1012726948+1011495118+1010665379+1009667890
766+1008239618+1006701765+1005347625+1004056255+1002650507+1001293330
754+1000228565+999259964+997995133+996541302+995299288+994273890+993211671
741+992013333+990771025+989632031+988502829+987194617+985887089+984799311
727+983706734+982470009+981624895+980309925+979120400+978228183+977159990
714+975973208+974949768+974131878+973460389+972865578+972236688+971537975
700+970878923+970325242+969797902+969249704+968691910+968078198+967433150
687+966900033+966583238+966425183+966184085+965686614+965298430+965724806
673+966128169+963499796+959082289+960076056+965333194+967297912+965843886
660+964630956+964612056+965016888+965389502+965780135+966237456+966736984
646+967266282+967790390+968320177+968926348+969572277+970140061+970631559
633+971160955+971801890+972521657+973227322+974072436+974948201+975768735
619+976754767+978017541+979326635+980577756+981711169+982766925+983908955
606+985089862+986296720+987703937+989257948+990641173+991764891+993017285
592+994584712+996075168+997300338+998589161+1000090683+1001533350+1002792697
579+1004052044+1005437424+1006935812+1008375443+1009691491+1011093224
567+1012398205+1013188186+1013743631+1014758453+1016418323+1018284625
555+1020026754+1021646670+1023086399+1024331351+1025626050+1027113568
544+1028661116+1030060205+1031284200+1032679569+1034289594+1035590658
532+1036535364+1037596898+1038795628+1039798992+1040469306+1040998897
521+1041650507+1042426288+1043233602+1044232658+1045411313+1046445133
509+1047165977+1047612722+1047963106+1048429241+1049022975+1049652159
498+1050184493+1050317184+1049974830+1049702396+1049904812+1050193600
486+1050034566+1049602020+1049599866+1050059341+1050141013+1049451016
474+1048518061+1047802603+1047084109+1045998877+1044796328+1044086844
463+1043670554+1042555944+1040437773+1037839562+1035282676+1033050616
451+1030866638+1028131426+1024735694+1020947762+1017346871+1014116440
440+1010359062+1006310839+1003535673+1002259678+1002137073+1003793124
428+1007164277+1011102135+1015161326+1019693507+1024811294+1029789044
417+1033619770+1036492472+1038623765+1039901914+1041104463+1042436473
405+1043145565+1043797566+1045572207+1048531477
##END=
