##TITLE=21
##JCAMP-DX=4.24
##DATA TYPE=INFRARED SPECTRUM
##DATE=16/11/2015
##SAMPLING PROCEDURE=Instrument type and / or accessory
##ORIGIN=Default
##XUNITS=1/CM
##YUNITS=TRANSMITTANCE
##RESOLUTION=4
##FIRSTX=3996.3359
##LASTX=399.24785
##DELTAX=-1.9287336
##MAXY=1.310883
##MINY=0.29592705
##XFACTOR=1
##YFACTOR=1.220855e-009
##NPOINTS=1866
##FIRSTY=0.52181441
##XYDATA=(X++(Y..Y))
3996+427417193+427652613+427833157+427993391+428182381+428411063+428664987
3983+428921400+429184747+429441111+429662617+429892276+430178471+430472770
3969+430725863+430970706+431237079+431508237+431753714+431955935+432168555
3956+432456410+432756568+432987740+433203045+433419132+433577120+433789154
3942+434158737+434519581+434717359+434807338+434963618+435268316+435574333
3929+435771378+435966959+436211704+436396935+436542425+436843267+437296433
3915+437646340+437799446+437894112+437962073+438000740+438197590+438624100
3902+439106608+439514907+439734557+439724500+439748472+439983843+440160725
3888+440236839+440529624+440866643+441048896+441291785+441477797+441503380
3875+441581398+441807297+442223847+442603634+442717292+442852675+443108307
3861+443210931+442993722+442666517+442989963+444185908+445021009+444888994
3848+444521755+444452134+444632678+444854184+445175287+445679472+446039437
3834+446149384+446288429+446495093+446663334+446725631+446691016+446894409
3821+447332928+447599985+447907466+448246047+448150258+447848099+447893161
3807+448252980+448424541+448560901+449008648+449320621+449382625+449520547
3794+449646459+449679707+449707047+449770858+449895403+450023268+450143077
3780+450400027+450725963+450861200+450814087+450854756+451137045+451450678
3767+451598804+451633224+451637081+451792823+452082826+452115097+451874795
3753+451919907+452454850+452776050+452646525+452891612+453403706+453202804
3740+452581983+452408860+452792698+453297030+453549099+453439786+453220575
3726+453190891+453323248+453499739+453642788+453598604+453299520+453014204
3713+453135869+453489096+453513703+453129766+452666396+452410617+452266543
3699+451949298+451434225+450823266+450219386+449874409+449929969+449964388
3686+449602324+449096527+448658447+448180967+447889549+448118915+448378355
3672+448314935+448330802+448289157+447888133+447383118+446931074+446459063
3659+446096071+445957123+445671514+445091410+444745701+444791106+444638146
3645+444022793+443244570+442543729+441908701+441269278+440565069+439701456
3632+438859080+438425296+438105072+437268897+436085158+435035923+434283624
3618+433560569+432570995+431446135+430372343+429364607+428381038+427268237
3605+425939594+424560371+423292315+422092074+420865664+419550935+418084223
3591+416564637+415212803+414008363+412713553+411282579+409804345+408307119
3578+406829861+405398374+403893752+402189081+400442985+398913073+397504898
3564+395974888+394312717+392615004+390905866+389179371+387429882+385656958
3551+383870901+382065046+380221550+378342023+376467061+374625640+372792762
3537+370917141+368975195+367009156+365101214+363256986+361332884+359262707
3524+357220456+355309927+353425714+351465215+349436537+347424702+345498282
3510+343624565+341710179+339709036+337668055+335666326+333721451+331834088
3497+330000185+328146119+326223873+324263692+322312714+320410192+318571626
3483+316722076+314755353+312752453+310857571+309005458+307039321+304928914
3470+302810940+300863111+299083718+297302739+295433684+293543343+291699725
3456+289899363+288139816+286402361+284641619+282867035+281107781+279382117
3443+277687967+275966135+274198606+272502455+270996026+269608406+268202575
3429+266776116+265405217+264098007+262807250+261519739+260261473+259043509
3416+257809165+256558906+255390960+254332401+253371778+252457707+251418774
3402+250238379+249225907+248533146+247863845+247066361+246266412+245666633
3389+245245054+244838293+244408904+243979416+243558252+243210249+242992136
3375+242857388+242697593+242493956+242393285+242534039+242859292+243217133
3362+243537064+243878672+244315190+244801653+245229090+245620789+246165789
3348+246907372+247665652+248355727+249050807+249818289+250716859+251749153
3335+252807078+253838199+254869541+255886260+256904712+258027693+259289840
3321+260608231+261940731+263290856+264626628+265926930+267193887+268451591
3308+269775792+271275093+272964995+274707112+276363669+277909253+279399644
3294+280933803+282605885+284403709+286219669+287996035+289743230+291516789
3281+293372637+295260488+297133229+299017760+300900485+302811233+304844354
3267+306989034+309161420+311315839+313464840+315646966+317874228+320142036
3254+322432743+324715540+327001559+329358102+331840020+334397050+336949516
3240+339503617+342043951+344519180+347011179+349672177+352481812+355298552
3227+358068105+360817567+363585997+366384502+369189841+371989542+374807526
3213+377667693+380550904+383419273+386260618+389102306+391971773+394847050
3200+397704214+400563380+403440464+406312226+409142904+411935476+414730832
3186+417530776+420301330+423062266+425851177+428622707+431310800+433940356
3173+436577821+439253221+441930915+444545970+447100487+449622146+452092981
3159+454507329+456873929+459189657+461484440+463810664+466161055+468484985
3146+470747301+472924276+475032266+477143380+479289012+481399150+483407835
3132+485324492+487211952+489136713+491071140+492923546+494693834+496431997
3119+498114942+499732904+501341933+502950912+504535041+506114386+507672542
3105+509133444+510514083+511883737+513232397+514546247+515826703+517028409
3092+518141405+519235361+520351726+521474926+522572007+523611819+524610278
3078+525623190+526659486+527653552+528536450+529308766+530037240+530776211
3065+531517134+532220025+532860033+533432423+533937536+534355892+534698379
3051+535026170+535337020+535563359+535699524+535775393+535773001+535674869
3038+535487246+535219017+534867694+534401541+533810648+533084517+532183311
3024+531106101+529872417+528465658+526851601+525009594+522914786+520530561
3011+517803117+514656390+510999179+506745606+501809111+496045179+489263064
2997+481227931+471591288+459884687+445582951+428473556+408693741+386407988
2984+362210168+337747342+315650945+299030551+290717035+292377351+303940072
2970+323612357+348422454+374996761+400321955+422355567+440219263+453869322
2957+463641300+469979379+473350590+474207320+472969095+470148254+466378948
2943+462197486+457928241+453795064+449918056+446264604+442834855+439902407
2930+438077293+437972081+439647019+442547293+445897414+449006841+451382034
2916+452709359+452837566+451821188+449835791+447021053+443537649+439686223
2903+435965934+433066393+431394140+430689930+430501917+430621091+430963187
2889+431456974+432098593+433007855+434352561+436278054+438934315+442501791
2876+447182557+453102719+460209500+468253471+476825549+485434829+493662322
2862+501282956+508207680+514418675+519973648+524999781+529645883+534002958
2849+538084530+541879126+545382939+548593135+551561272+554394611+557154814
2835+559871517+562584363+565293841+567969045+570579902+573075099+575421243
2822+577633273+579708210+581633800+583426155+585163049+586966731+588879188
2808+590899445+593064507+595356556+597675994+599911898+601999675+603935958
2795+605729387+607376204+608861517+610174342+611352516+612447545+613449520
2781+614321336+615081349+615793565+616465405+617041847+617534022+618003641
2768+618438158+618795779+619085294+619328037+619547346+619765824+619968143
2754+620169632+620432001+620774830+621195871+621685947+622231485+622835218
2741+623460433+624069293+624682937+625301415+625893920+626483446+627123308
2727+627818875+628586456+629478581+630487293+631583544+632767723+633965425
2714+635042196+635948675+636717768+637393856+638062914+638837671+639754109
2700+640783230+641873328+642964794+644050597+645124584+646142328+647122675
2687+648127043+649154893+650140903+651039620+651879896+652707235+653525932
2673+654326125+655098978+655820812+656480642+657070657+657587340+658078637
2660+658595467+659122599+659598565+660017214+660453048+660919982+661382181
2646+661830123+662244183+662642766+663052139+663438956+663778074+664075059
2633+664383761+664758860+665155881+665533666+665937376+666394057+666885695
2619+667407457+667939861+668427301+668869189+669330508+669793586+670196123
2606+670574055+670980840+671401784+671795729+672163994+672541974+672937823
2592+673340312+673734550+674132255+674557202+674987373+675396502+675779511
2579+676130395+676453109+676759272+677051862+677339864+677632845+677915671
2565+678163394+678367226+678547526+678707613+678826495+678922577+679020563
2552+679126409+679258619+679436283+679677903+680022635+680480245+680988531
2538+681512880+682083707+682699646+683331794+683967555+684578465+685163012
2525+685757030+686325806+686821985+687296389+687807507+688327755+688793859
2511+689213533+689683641+690243239+690816459+691380598+691967146+692566534
2498+693222605+693964798+694708650+695419939+696146606+696900077+697658235
2484+698419907+699171767+699893455+700627348+701401861+702175446+702941757
2471+703726230+704520516+705310164+706078427+706820083+707569111+708344064
2457+709117551+709834796+710451907+711002717+711571543+712166928+712706753
2444+713157527+713569537+713970219+714355230+714730037+715080677+715391380
2430+715669031+715893320+716046768+716180296+716328959+716484311+716680966
2417+716965257+717338941+717790301+718305813+718863751+719457281+720089722
2403+720741691+721378087+722002277+722600103+723201590+723798538+724324693
2390+724696082+724860417+724816331+724590090+724244527+723882219+723608571
2376+723438817+723263887+723048729+722876143+722745104+722576766+722476827
2363+722803984+723871673+725587768+727577120+729529026+730901365+731023420
2349+729988393+728829113+728767744+729954266+731333880+732263305+732810747
2336+733084345+733203422+733490252+734114784+734821483+735313560+735695788
2322+736288830+737096932+737786690+738124441+738263682+738535327+739025989
2309+739595205+740126731+740583754+740992639+741413143+741870899+742329582
2295+742765905+743197589+743630885+744045726+744415895+744707607+744915296
2282+745091592+745308118+745567705+745804248+745972098+746091370+746199804
2268+746285194+746314584+746298815+746284656+746333186+746512704+746871790
2255+747405123+748059143+748852062+749810146+750472710+751020054+751540887
2241+752065676+752548916+753000276+753440993+753874386+754305827+754725355
2228+755129992+755529258+755932724+756360600+756808494+757262832+757743192
2214+758246547+758730765+759182515+759654575+760169794+760672955+761128904
2201+761570402+762033235+762496507+762945035+763404500+763871043+764314347
2187+764728651+765144566+765615601+766158014+766723667+767256755+767763576
2174+768297592+768858850+769397406+769915848+770441417+770969916+771476445
2160+771938594+772389368+772873536+773356435+773791538+774198909+774611992
2147+775036207+775462814+775875360+776270770+776676384+777133261+777665909
2133+778290831+779030095+779849182+780682477+781525146+782396424+783275612
2120+784126043+784944105+785736536+786496793+787218920+787895789+788529743
2106+789131426+789707771+790246327+790744751+791269051+791822156+792373503
2093+792895948+793414487+793970961+794545255+795091525+795636965+796234156
2079+796874897+797513635+798139388+798787256+799458267+800082798+800631021
2066+801198431+801852500+802495877+803033505+803516063+804028059+804550651
2052+805032036+805505073+805997980+806475460+806929066+807385454+807838084
2039+808255366+808650336+809064445+809483191+809882995+810303744+810754225
2025+811168089+811526297+811860874+812198479+812572163+812961860+813314551
2012+813653473+814027255+814380483+814661746+814935296+815256399+815584044
1998+815862037+816078709+816283859+816550965+816857958+817101970+817269283
1985+817430836+817630567+817823560+817971247+818135972+818387406+818672136
1971+818889101+819080874+819353057+819666983+819929939+820178052+820473914
1958+820768799+820988889+821137796+821251161+821313653+821260242+821059681
1944+820821625+820633074+820321296+819719516+818868596+817855246+816779598
1931+815793783+815061355+814744549+815029718+815963684+817299846+818914098
1917+820727789+822383833+823745480+824979311+826177599+827315739+828326941
1904+829187772+829940119+830603513+831209688+831836661+832451721+832990716
1890+833583514+834247005+834794594+835251763+835747991+836278198+836809187
1877+837356775+837867746+838218191+838578693+839268256+840098133+840689075
1863+841062369+841439568+841950149+842571068+843161424+843630311+844012392
1850+844358443+844731443+845385464+846363369+847154189+847582456+847990901
1836+848473849+848868331+849264962+849910389+850599659+851100768+851650993
1823+852278454+852794503+853249036+853740284+854243639+854765449+855382560
1809+856049079+856624593+857058328+857457985+858021880+858697870+859158653
1796+859396611+859882293+860763824+861523495+861920321+862272426+862745414
1782+863268884+863798603+864164768+864280184+864565207+865351144+866204846
1769+866702538+866920968+867055815+867397765+867960195+868470776+868932046
1755+869333852+869692792+870333142+871255976+872049530+872571828+872988671
1742+873497885+873989718+874135598+874339089+875207926+876119629+876483158
1728+876679227+876897462+876998230+876852350+876662139+876990321+877780750
1715+878264382+878233428+877962857+877652153+877397692+877053888+876605799
1701+876514013+876691237+876551606+876164057+875478498+874341432+872935455
1688+871525962+870597269+870162753+869348205+867846537+866252302+865052646
1674+864095050+863113532+862371925+861894055+861221091+860479777+860075336
1661+859747154+858966587+857877660+857533562+858295284+858487154+857645560
1647+857150406+857252152+857130487+856669997+856311448+856680641+857987412
1634+859228175+859721571+860101114+860882852+861982325+863303938+864529176
1620+865392350+866610265+868661475+870636424+872010374+873199094+874404315
1607+875530054+876605994+877700096+878738737+879662352+880552183+881487028
1593+882432515+883348222+884258460+885187544+886107937+886925316+887514207
1580+887987391+888909932+890285933+891098722+891290593+891755379+892475797
1566+892782009+892449726+891852047+892034251+893286243+894075208+893876307
1553+893413571+893032857+892656341+892092837+891432470+891172151+891702749
1539+892392800+892121252+891216188+890594098+890106170+889332243+888483618
1526+887748553+887100880+886615491+886121705+885351683+884372606+883167678
1512+881591018+879820047+878495017+877784265+876608923+874328348+871437496
1499+868304878+864722414+860275115+854785466+848504509+842460437+837986677
1485+835487086+834347677+833653915+832789960+831573705+829928695+827552721
1472+824092116+819552251+814087697+807626928+800117804+791892753+783702121
1458+777100403+773981504+774222050+776018702+778418159+781686991+785991631
1445+790565623+794350455+796601786+797276458+796961946+796115421+794892135
1431+793547576+792348799+791400089+790802459+790579635+790769943+791681109
1418+793337641+795220610+797096549+799069594+801207414+803553704+806136537
1404+808722300+810876719+812433899+813144796+812473542+810517145+807684880
1391+803420664+796705826+787847260+779062952+773018294+771619689+775436304
1377+783721308+795628177+810397873+826607136+842649866+856595007+866614268
1364+872615572+875667146+876846199+877149286+877273196+877298681+876966789
1350+876120801+874796454+873132598+871254707+869272141+867411923+865991592
1337+865123340+864681403+864598601+864947679+865750997+866915598+868399984
1323+870254245+872497911+875074056+877891381+880938463+884287949+887960832
1310+891865912+895901543+899992147+904079530+908094558+911860202+915188988
1296+918037559+920395273+922145153+923160945+923385234+922697917+920874218
1283+917852621+914002807+910056716+907006802+905963084+907641684+911916836
1269+917887871+924428951+930697898+936259511+941014681+945042598+948446667
1256+951331562+953754210+955744294+957527764+959381830+961168229+962530169
1242+963611187+964875092+966194947+967166018+967854604+968481577+969155517
1229+969949949+970859894+971820810+972763369+973644997+974487080+975328284
1215+976064325+976555280+976878775+977253044+977743413+978166603+978413642
1202+978645547+979028995+979397895+979619840+979715141+979820108+979987275
1188+980037366+979812589+979478158+979253967+979065417+978677770+978061635
1175+977386817+976673038+975716419+974369321+972745011+971041805+969252184
1161+967311703+965419848+963854418+962668433+961764248+961026059+960367157
1148+959661678+958749975+957612421+956261027+954560750+952407502+949907813
1134+947240860+944425390+941444608+938508157+935786328+933057175+929946039
1121+926264758+921915495+916523392+909371254+899797738+887325559+871252168
1107+850309753+822961983+788276552+746658536+700240677+653136917+611100203
1094+579947291+563464967+562444976+575111272+598042990+627202351+658690426
1080+689277441+716973996+740940888+760570233+774843555+782387343+781999306
1067+773096946+754150914+720764296+668199741+596919350+515847648+440125329
1053+383972402+355229005+355736705+383922457+435707275+504447747+581599674
1040+658290671+727491242+785494574+831876597+868383970+897333299+920962586
1026+941006284+957761621+971072661+981631504+990366159+997922446+1004675219
1013+1010794966+1016391438+1021420304+1025766443+1029557964+1033107034
1001+1036462085+1039319640+1041651381+1043907741+1046312032+1048525038
989+1050184499+1051441765+1052734963+1054179901+1055527194+1056621785
978+1057609748+1058582966+1059283661+1059550815+1059825390+1060762578
966+1062399777+1064152977+1065582584+1066730586+1067794125+1068794294
955+1069619387+1070210622+1070688687+1071283144+1071988428+1072518049
943+1072805709+1073092001+1073398799+1073551808+1073602387+1073686459
932+1073741823+1073600727+1073160059+1072470594+1071773611+1071184622
920+1070453170+1069357310+1067948403+1066354656+1064555661+1062343534
908+1059560482+1056172622+1052115509+1047207038+1041103696+1033175678
897+1022279865+1006685711+984273948+953035549+912112124+863406366+813050668
883+772150091+755428392+773614021+822731055+884646400+940896239+983026740
870+1011387470+1029714975+1041477477+1048832031+1053261168+1056084644
858+1058074436+1059250364+1059638206+1059743271+1059987870+1060157087
847+1059745517+1058812040+1057948768+1057312324+1056445439+1055125682
835+1053666684+1052393404+1051201853+1049701064+1047866038+1046093016
824+1044453572+1042449134+1039720371+1036510810+1033022767+1028878947
812+1023594448+1017279218+1010810686+1005571983+1002987148+1003692724
800+1006989482+1011258873+1014876880+1017019875+1017787065+1017728283
789+1017391411+1016889325+1015961999+1014689501+1013499610+1012556270
777+1011561570+1010127471+1008483827+1007217676+1006322085+1005247218
766+1003716549+1002089408+1000719266+999402047+997910436+996485125+995395124
752+994386460+993029890+991451083+990071762+988902181+987720102+986466254
739+985186628+983948110+982720724+981340329+979870590+978599361+977509263
725+976433420+975641624+974379574+973013240+971818076+970707472+969664438
712+968647181+967658144+966817331+966158331+965479216+964609695+963641945
698+962803572+962177869+961651372+961113353+960558539+960009877+959510330
685+959133521+958884529+958587202+958072520+957481090+957031439+956499083
671+955420506+954433910+955083341+956601805+957164918+956947172+956772291
658+956904306+957206710+957510676+957908966+958524124+959149925+959543138
644+959861458+960370672+961038948+961662113+962151212+962599594+963182431
631+964030959+965069111+965912463+966554375+967090148+967794748+968928982
617+970403213+971785463+972959438+974045045+975094524+976263617+977602903
604+978959570+980400504+981977652+983352286+984437698+985770735+987503234
590+989083995+990306596+991506057+992885670+994312739+995629372+996940830
577+998415353+1000010175+1001427967+1002563275+1003847002+1005358728+1006540417
563+1007357503+1008407372+1009973681+1011846300+1013702124+1015238749
552+1016470041+1017777203+1019387159+1021059216+1022465877+1023615344
540+1024779652+1026334927+1028112050+1029425461+1030403952+1031667858
528+1033032629+1034052717+1034710936+1035241144+1035860793+1036628471
517+1037576302+1038771076+1039917124+1040619088+1041033782+1041591428
505+1042333035+1043050817+1043768208+1044550923+1045125656+1045095972
494+1044598671+1044269806+1044290799+1044360615+1044272149+1044049520
482+1044028136+1044196377+1043987712+1043301176+1042522757+1041782127
471+1041018843+1040097668+1039012159+1038251218+1037898625+1036918767
459+1034635360+1031718144+1028926304+1026327018+1023880740+1021188790
447+1017678387+1013795862+1010508869+1007433079+1003260454+998489075+995192512
434+994140299+994598543+996346568+999844668+1004894137+1010343069+1015036430
420+1018712926+1022131056+1026250367+1030840324+1034440169+1035900827
409+1035766566+1035565224+1036415607+1038395829+1040419601+1041854188
##END=
