##TITLE=21
##JCAMP-DX=4.24
##DATA TYPE=INFRARED SPECTRUM
##DATE=16/11/2015
##SAMPLING PROCEDURE=Instrument type and / or accessory
##ORIGIN=Default
##XUNITS=1/CM
##YUNITS=TRANSMITTANCE
##RESOLUTION=4
##FIRSTX=3996.3359
##LASTX=399.24785
##DELTAX=-1.9287336
##MAXY=1.3213074
##MINY=0.29275188
##XFACTOR=1
##YFACTOR=1.2305634e-009
##NPOINTS=1866
##FIRSTY=0.56052554
##XYDATA=(X++(Y..Y))
3996+455503165+455661020+455830646+456029092+456260281+456515592+456789067
3983+457067579+457360186+457661124+457922393+458144912+458386466+458668708
3969+458976427+459253825+459435851+459596758+459860110+460179067+460447116
3956+460662466+460863286+461072727+461311860+461558985+461783489+462061227
3942+462435401+462768260+462938467+462987291+463108916+463435187+463803840
3929+464037499+464221995+464455703+464663013+464809050+465024498+465353335
3915+465645071+465822156+465949254+466001663+465968920+466048841+466357432
3902+466796076+467257583+467571357+467629869+467664598+467855536+467966505
3888+467987478+468238042+468554722+468749293+469010755+469192490+469189972
3875+469213948+469336978+469593790+469820814+469856560+469990827+470291281
3861+470422012+470183073+469798290+469984240+470961599+471730147+471830217
3848+471776355+471832203+471908104+471950534+472163172+472665463+473110452
3834+473329484+473541298+473774037+473922787+473929714+473819423+473893967
3821+474175821+474382840+474732070+475151001+475163740+474937055+474956478
3807+475226998+475317285+475387324+475804608+476175974+476350007+476553297
3794+476663733+476649105+476668528+476770585+476923258+477037036+477101554
3780+477274667+477519903+477603311+477519128+477506922+477730555+478024470
3767+478194774+478249605+478235752+478312863+478484378+478422040+478093347
3753+477980102+478327104+478562797+478463550+478753154+479336480+479258012
3740+478665580+478294941+478370987+478721573+479061842+479134934+479019848
3726+478986523+479051961+479089500+479042129+478798540+478267768+477688173
3713+477485319+477547076+477321796+476651721+475764309+474878979+473931651
3699+472773477+471452507+470055103+468689038+467623475+467052646+466666508
3686+466144358+465730174+465477867+464760613+463458098+462588656+462614569
3672+462898652+463110563+463059414+462629294+462051781+461476351+460954589
3659+460713035+460874087+460993629+460792471+460758856+461134968+461400015
3645+461237412+460859556+460481603+460109705+459665587+459081245+458298892
3632+457496390+457049996+456749930+456013205+454893490+453772515+452875561
3618+452067198+451034621+449786354+448530095+447387760+446310718+445115780
3605+443743321+442316080+440902547+439454188+437972165+436466117+434833165
3591+433090697+431471307+430009966+428469480+426790367+425086649+423400222
3578+421717525+420023688+418246297+416292208+414282998+412464968+410784112
3564+409005413+407108867+405209319+403301947+401329234+399301570+397241477
3551+395129363+392965639+390821170+388746037+386698199+384606646+382457841
3537+380310465+378194427+376056254+373874319+371680491+369450143+367170074
3524+364921804+362744373+360582441+358370015+356089582+353786869+351547366
3510+349394347+347242224+345023283+342769224+340574598+338467279+336377446
3497+334271605+332171818+330099252+328017605+325856763+323644579+321476932
3483+319324930+317114562+314941199+312891351+310871460+308745784+306452056
3470+304109261+301961546+300027438+298086935+296040526+293967960+291953883
3456+289989065+288026815+286066235+284119049+282184650+280268439+278399235
3443+276567886+274709411+272805067+270935283+269217929+267641866+266105109
3429+264597778+263153778+261720943+260253209+258811340+257449900+256135614
3416+254802099+253475170+252226323+251051995+249970230+248939687+247767006
3402+246468438+245407210+244714708+244026396+243128594+242199091+241528191
3389+241106960+240699001+240211847+239709048+239248341+238863461+238570394
3375+238353808+238172122+237997725+237900681+238003077+238274323+238551164
3362+238778018+239077843+239543781+240084845+240538989+240909532+241416520
3348+242162666+242978803+243739650+244489840+245279748+246175104+247233813
3335+248360551+249435826+250467507+251498050+252573373+253781727+255152297
3321+256577988+257950568+259283430+260638161+262020743+263391869+264724319
3308+266080358+267637725+269459823+271338713+273068564+274684200+276300998
3294+277958290+279696762+281538696+283421897+285311952+287238359+289201845
3281+291165936+293110192+295055514+297035686+299054438+301132912+303330154
3267+305638050+307954810+310216110+312484457+314817128+317188162+319605791
3254+322079898+324564056+327046203+329572743+332190175+334883677+337612344
3240+340364697+343111624+345818374+348540599+351404090+354416839+357451312
3227+360437324+363411058+366436885+369517567+372590984+375657304+378783783
3213+381945137+385065682+388176662+391328279+394484959+397600443+400695874
3200+403832767+407012526+410174970+413325013+416511433+419694123+422802656
3186+425845945+428883954+431945843+435017273+438080712+441097263+444043533
3173+446951877+449856539+452769291+455670901+458524996+461315831+464067724
3159+466806442+469504618+472141570+474739966+477311673+479861148+482403309
3146+484906526+487318053+489665643+492018319+494387269+496727497+498999283
3132+501180541+503282846+505370379+507475445+509553774+511552377+513478953
3119+515384072+517275629+519101166+520840050+522550889+524271754+525956970
3105+527568852+529145036+530700199+532181641+533581321+534965841+536383152
3092+537779490+539071980+540276460+541454735+542611262+543715768+544789226
3078+545897365+547032144+548094365+549022657+549856159+550655803+551440675
3065+552201812+552921341+553581148+554171836+554664681+555000785+555226161
3051+555445484+555608328+555609249+555455607+555178693+554760586+554200268
3038+553482579+552542468+551349758+549930800+548325505+546532615+544485382
3024+542113089+539455939+536577142+533406706+529874350+525985015+521711720
3011+516952604+511631958+505763977+499355488+492314752+484424482+475497373
2997+465507801+454305078+440778064+423530614+403379155+382237817+360074920
2984+336258776+311907743+289784153+273197043+264859749+266342886+277802372
2970+297776407+323440756+351316516+378163161+401695054+420892887+435737869
2957+446630886+453989125+458264793+459971466+459417251+456862739+452973694
2943+448638885+444397946+440310939+436309618+432464069+428881532+425720009
2930+423535652+423065184+424452901+427145700+430397364+433518443+435872669
2916+436942978+436468442+434688678+432131986+428906381+424883165+420095326
2903+415091264+411705236+411145160+411930371+412418469+412743868+413371610
2889+414183605+414974483+416020138+417872558+420807881+424731994+429516395
2876+435253597+442119185+450204461+459377921+469273864+479421874+489337386
2862+498699023+507346070+515177441+522235856+528702081+534723608+540345288
2849+545559421+550340528+554702607+558707562+562443159+566000750+569444854
2835+572828557+576179759+579494924+582737482+585834681+588759057+591536718
2822+594159720+596598129+598860955+600983991+603043963+605132609+607298125
2808+609598877+612085626+614700006+617320247+619855288+622247343+624479168
2795+626562971+628487610+630208282+631701591+633010839+634196380+635288341
2781+636307937+637264711+638133668+638886619+639535480+640111927+640615041
2768+641028643+641375790+641666121+641886993+642091542+642324475+642559297
2754+642784771+643020949+643314331+643727352+644265922+644898120+645607332
2741+646357716+647111636+647860422+648583924+649270565+649952168+650671553
2727+651446688+652297918+653267915+654389373+655662876+657037078+658391470
2714+659590670+660589148+661458154+662259251+663012009+663821534+664820690
2700+666001000+667248395+668467890+669641079+670806034+671971329+673100634
2687+674188720+675251571+676273104+677247848+678188347+679106322+680021682
2673+680910741+681722156+682451131+683119511+683739842+684311833+684846286
2660+685373618+685909572+686440488+686940454+687395421+687817597+688246457
2646+688697889+689147480+689586221+689994156+690337041+690632748+690939450
2633+691304277+691716039+692108862+692458237+692832170+693292950+693820379
2619+694369895+694903815+695399372+695878946+696365930+696837560+697265451
2606+697657306+698040635+698422511+698778087+699127946+699524257+699961690
2592+700411717+700831035+701210102+701615131+702038663+702407897+702738721
2579+703080395+703413398+703715257+703997596+704252616+704467239+704656676
2565+704835214+705012300+705192775+705334744+705408707+705453753+705501028
2552+705552274+705615871+705725823+705917924+706211257+706620598+707120950
2538+707660004+708221533+708829561+709486946+710142782+710757930+711345711
2525+711924290+712486933+713012037+713487784+713947692+714409150+714841207
2511+715271568+715748575+716266510+716812103+717370532+717945962+718581357
2498+719299966+720053547+720782813+721499582+722235725+722995748+723783235
2484+724579101+725329630+726053519+726839892+727679158+728494980+729299032
2471+730130257+730963178+731782245+732595500+733389090+734178756+734989638
2457+735793109+736548191+737220398+737807550+738361765+738893650+739364021
2444+739790604+740206338+740600614+740979342+741355793+741691751+741935050
2430+742103368+742238991+742333249+742387402+742447948+742551409+742702920
2417+742917495+743232141+743647923+744142996+744721865+745379057+746051797
2403+746698477+747352763+748022499+748638519+749223782+749796015+750300146
2390+750643031+750745378+750607236+750326932+750026526+749751792+749563082
2376+749513483+749448626+749187115+748869370+748706137+748567027+748434455
2363+748534089+749299925+751269610+754033564+756361682+756695654+754662080
2349+752560695+752821382+754929161+756527675+756864989+756943070+757222018
2336+757606800+757984172+758545604+759294825+759869965+760223941+760819327
2322+761851275+762787657+763165706+763211818+763427992+763951934+764585924
2309+765146484+765584789+765950681+766352707+766815522+767241863+767620107
2295+767996316+768361045+768720592+769089633+769396432+769559567+769643121
2282+769776952+770003346+770249647+770405517+770445042+770455020+770510335
2268+770572721+770568120+770481030+770367882+770335817+770471876+770812048
2255+771342141+772012556+772852161+773884011+774596469+775191710+775728052
2241+776257224+776771721+777251004+777701128+778135606+778555651+778959857
2228+779351130+779745357+780148498+780544081+780931044+781339221+781786826
2214+782249156+782702332+783138312+783570611+784028194+784505685+784965980
2201+785405448+785846321+786275617+786672072+787053900+787451761+787859745
2187+788244479+788621705+789067276+789615194+790193094+790703134+791146186
2174+791611713+792136091+792675290+793209016+793733442+794228661+794690748
2160+795120044+795538491+795994330+796465863+796886634+797271174+797632465
2147+797936455+798221893+798544192+798898314+799279173+799698734+800169201
2133+800734701+801426477+802195267+803007408+803867356+804747357+805638838
2120+806544172+807422235+808213161+808923778+809627372+810335326+810996101
2106+811593425+812144588+812660974+813178279+813758941+814358880+814905732
2093+815391554+815889776+816452128+817044414+817612385+818168343+818768960
2079+819425474+820107368+820804471+821514072+822212725+822846570+823380247
2066+823901719+824519192+825174737+825758692+826269701+826756782+827230979
2052+827685898+828135005+828593217+829062086+829540933+830017552+830457165
2039+830856285+831259861+831663921+832031267+832389506+832766054+833141827
2025+833515179+833894439+834234757+834528381+834859205+835233138+835565124
2012+835860202+836190832+836523496+836772752+836971828+837204519+837465690
1998+837688790+837819570+837922450+838136541+838412825+838585454+838680681
1985+838809910+838971593+839095978+839169312+839251267+839398224+839587903
1971+839731955+839845297+840044179+840315425+840545210+840739926+840959539
1958+841161424+841286294+841347809+841355268+841261978+841018050+840629877
1944+840213708+839865059+839423412+838661597+837546967+836228322+834940773
1931+833818490+832931805+832483473+832752976+833784875+835270628+837050489
1917+839035529+840860921+842402279+843820414+845174903+846425349+847518473
1904+848461151+849307053+850080492+850806658+851517033+852151556+852681553
1890+853288467+854010079+854639855+855170530+855706629+856234010+856734460
1877+857242756+857709494+857995078+858258380+858875757+859731443+860410237
1863+860856437+861244223+861706214+862276219+862846224+863302887+863665679
1850+863965988+864202941+864643523+865512674+866369716+866888669+867334482
1836+867808001+868128653+868398446+868921371+869551050+870060509+870646401
1823+871298265+871807239+872233193+872695669+873170544+873643288+874184715
1809+874771673+875268442+875596553+875860824+876302859+876920333+877363627
1796+877524825+877852646+878628701+879389741+879764546+879998593+880332226
1782+880768061+881253883+881560101+881513311+881506530+882016957+882780710
1769+883343740+883649474+883786744+884033675+884499831+884980035+885445997
1755+885820511+886061824+886530596+887359448+888173768+888733892+889121000
1742+889536394+889938905+889989764+890001001+890679214+891605618+892112461
1728+892381770+892546262+892500731+892141426+891630030+891559893+892084561
1715+892537349+892565152+892290999+891846736+891349096+890716704+889899768
1701+889341194+889151224+888894800+888554579+887942240+886767161+885135517
1688+883302666+881826988+881014895+880167250+878718794+876983979+875447174
1674+874120778+872826061+871823805+871190541+870429017+869527800+868917399
1661+868452695+867540532+866140222+865321058+865862291+866311204+865761252
1647+865390129+865699543+865906563+865678425+865351185+865657694+867086485
1634+868741185+869671270+870314996+871251281+872489327+873983024+875430608
1620+876459795+877729616+879906563+882162074+883767660+885052109+886317474
1607+887530042+888681677+889799213+890831112+891748991+892614751+893478187
1593+894309654+895099660+895894896+896703792+897483238+898159708+898581787
1580+898750928+899234425+900306043+901087717+901280205+901674190+902384566
1566+902737186+902337872+901383472+900989390+901939043+902950793+903090194
1553+902803157+902466908+902028264+901264221+900222731+899410251+899441057
1539+900034602+899976962+899194610+898542068+898015269+897124999+895981502
1526+894827445+893702934+892757737+891944094+890985141+889843775+888436877
1512+886528368+884186735+882070432+880670800+879192313+876722904+873398391
1499+869586603+865248015+860053548+853746001+846500329+839505464+834314484
1485+831283886+829639551+828448779+827146408+825510695+823380635+820482463
1472+816581067+811642104+805608468+798309564+789827396+780638194+771372027
1458+763363958+758723512+757919654+759344328+761960452+765979792+771266919
1445+776581751+780707411+782983605+783464244+782893464+781887091+780531100
1431+778872573+777108842+775427501+773994302+772784591+771674467+770811128
1418+770337948+769996807+769596525+769347704+769619871+770757024+773024305
1404+776338259+780074873+783273063+784025627+780642844+775709791+773432289
1391+772163049+766999679+757232383+746754131+739636381+738221298+743027834
1377+753053008+767236390+784678314+803783270+822744756+839314526+851397975
1364+858965171+863246216+865389451+866451187+867176674+867653487+867622294
1350+866944759+865701868+864050655+862078790+859918893+857878442+856322552
1337+855379486+854920692+854855109+855222454+856030187+857209238+858767064
1323+860785913+863269950+866096338+869143115+872434400+876081503+880103895
1310+884355974+888713549+893163832+897673014+902081060+906122730+909608053
1296+912518238+914862292+916538401+917402612+917348653+916225983+913788252
1283+909936262+905060315+900025206+895962708+894016805+894931487+898557956
1269+903815585+909457802+914690244+919138686+922752949+925724842+928234840
1256+930384759+932114731+933432892+935219438+938349525+941590921+942843886
1242+943219950+945570688+948790190+949952675+949348764+948685179+948730516
1229+949627954+951209902+953254423+955582977+958059554+960603750+963167416
1215+965581123+967630681+969318609+970795546+972159722+973320366+974179636
1202+974880131+975639039+976371986+976921842+977344792+977776656+978201641
1188+978455934+978439563+978300549+978220047+978135767+977828289+977261578
1175+976567187+975733588+974605784+973067042+971198541+969178142+967015048
1161+964695697+962460723+960582341+959074016+957835389+956810077+955886967
1148+954853712+953553182+951994386+950202997+948028472+945282489+942065021
1134+938620384+934961753+931071691+927165742+923393575+919510197+915072605
1121+909839969+903665624+896072175+886290155+873658303+857727125+837942600
1107+813207148+782142837+744091169+699651500+650953843+602119255+558834515
1094+526246090+507203956+502632872+511507088+530420089+555084338+581804007
1080+607868033+631904735+653582706+672567005+687587619+695095915+691481798
1067+679236521+662057754+633741073+584322240+514498307+436952472+367245539
1053+316563181+290734242+291319796+317082836+365116617+430302234+505109885
1040+581101575+652244347+715583308+769033107+811074182+841736175+865848729
1026+890094775+913450647+931302251+944193918+954707529+964134507+973176703
1013+982120959+990857711+998936013+1006036568+1012442054+1018626377+1024444323
999+1029389244+1033479253+1037221293+1040851830+1044059029+1046581815
988+1048613645+1050544533+1052511748+1054307109+1055760603+1056987605
976+1058081310+1058830919+1059163971+1059574038+1060682370+1062482962
964+1064429350+1066102359+1067415096+1068532147+1069630017+1070618226
953+1071300895+1071761239+1072271086+1072831016+1073200783+1073352391
941+1073519013+1073721383+1073741823+1073588084+1073408771+1073170559
930+1072703724+1071907712+1070851885+1069734931+1068562662+1067069644
918+1065100588+1062658207+1059772629+1056403457+1052404509+1047672710
907+1042208934+1036058226+1029124294+1021038630+1011135324+998233097+980219036
893+954707432+920375473+876755454+825092007+771476602+727812311+709482296
880+728319735+781130991+848354784+909511277+955599349+987160622+1008120128
866+1022095523+1031434539+1037719127+1042160594+1045552241+1048020003
854+1049511471+1050447659+1051312160+1051870250+1051634750+1050868866
843+1050170503+1049572114+1048621104+1047115686+1045394434+1043812776
831+1042275486+1040408729+1038167168+1035915144+1033778593+1031367503
820+1028273549+1024498863+1020216366+1015289464+1009276414+1002111534+994664365
806+988602878+985598532+986359185+990125733+994963318+999008959+1001417046
793+1002242701+1002130619+1001753295+1001172828+1000087745+998584652+997094249
779+995847775+994675118+993222206+991566827+990113333+988836247+987361053
766+985565305+983736425+982163971+980736827+979216490+977673776+976315412
752+975035129+973479046+971667506+969999244+968535094+967051569+965485702
739+963882345+962343699+960923917+959502489+958072051+956734806+955313378
725+953736854+952508883+951121360+949525752+947908251+946539425+945418596
712+944255433+942979218+941808693+940885874+940040650+939049922+937912334
698+936808748+935885154+935104061+934317059+933457013+932598325+931861697
685+931280164+930832801+930409656+929810008+928923710+927500828+925792460
671+925926727+928359033+928915282+926816996+925994248+926833368+927404439
658+927522043+927649626+927841921+928264193+928903366+929357413+929552227
644+929857669+930418568+931046601+931643634+932271279+932941548+933612883
631+934373536+935293255+936090236+936905138+937739608+938630943+939863759
617+941417517+942783146+943855829+944953408+946252582+947674495+948999147
604+950166766+951481149+953120447+954687476+955952357+957393257+959225527
590+960961989+962376152+963750984+965143060+966428381+967821328+969542968
577+971398682+973141150+974668752+976059278+977634929+979349304+980684902
563+981581856+982546428+983887839+985514252+987344294+989329722+991168579
550+992660241+994180384+995938449+997529600+998783921+1000081739+1001805898
536+1003716345+1005224863+1006301905+1007424575+1008855400+1010315481
525+1011348930+1012017166+1012722406+1013564724+1014427675+1015431190
513+1016655577+1017828331+1018758028+1019578646+1020299968+1020764380
501+1021163500+1021834932+1022612925+1022956440+1022813841+1022794660
490+1023177505+1023534873+1023347422+1022789526+1022697787+1023091772
478+1022949852+1021923959+1020647744+1019716691+1019269037+1018721798
467+1017677208+1016737823+1015876228+1014172219+1011547037+1008463933
455+1005048068+1001397478+997659992+993804320+989717410+985360514+980905968
442+976260194+970774718+964885085+960485564+958834060+959558094+961877639
428+965754624+971247849+977521006+983738944+990469151+997937729+1004350384
415+1008522058+1010606103+1011559146+1012816858+1014493646+1016275348
403+1018966985+1022137469+1024461083
##END=
