##TITLE=32
##JCAMP-DX=4.24
##DATA TYPE=INFRARED SPECTRUM
##DATE=16/11/2015
##SAMPLING PROCEDURE=Instrument type and / or accessory
##ORIGIN=Default
##XUNITS=1/CM
##YUNITS=TRANSMITTANCE
##RESOLUTION=4
##FIRSTX=3996.3359
##LASTX=399.24785
##DELTAX=-1.9287336
##MAXY=1.0282676
##MINY=0.067561924
##XFACTOR=1
##YFACTOR=9.5764885e-010
##NPOINTS=1866
##FIRSTY=0.2499738
##XYDATA=(X++(Y..Y))
3996+261028668+261131334+261274301+261418294+261582205+261743284+261852858
3983+261948989+262119310+262345679+262521167+262633604+262754009+262924019
3969+263143853+263397763+263620616+263730626+263817390+263992348+264216632
3956+264453271+264631808+264684463+264712347+264881673+265073934+265093384
3942+265160760+265359992+265523934+265636963+265644058+265706050+266010904
3929+266278757+266330852+266427512+266649493+266662874+266520904+266593072
3915+266883953+267087542+267241276+267476639+267545726+267404129+267402542
3902+267557179+267735062+268083081+268299585+268113890+267962272+268167883
3888+268163495+267985207+268219232+268287199+268222780+268534574+268717063
3875+268701597+268673028+268548889+268738038+268896161+268715663+268799937
3861+269159034+269539822+269490527+268792748+268545155+269238671+269553328
3848+269367135+269280745+269469708+269704977+269663089+269639376+269905641
3834+270007280+269884355+269881181+269994147+270265672+270448504+270232778
3821+270301616+270484665+270215817+270362456+270758182+270704157+270449873
3807+270548493+270964727+270816439+270555277+270720526+270607528+270464095
3794+270529634+270514354+270552414+270700391+270864862+270992922+270920536
3780+270734997+270796553+270978202+271036366+270970049+270894675+270976397
3767+271011283+271032570+271031200+270869499+270970671+271325412+271373057
3753+271046294+271063783+271610007+271569270+270763472+270768981+271311314
3740+271076978+270517466+270290132+270415080+270606501+270654520+270334572
3726+269979956+269902498+269876544+269856315+269812187+269640496+269193733
3713+268703775+268587043+268551348+268212914+267545913+266731277+266023477
3699+265289598+264350667+263387836+262330181+260995416+259717803+259002970
3686+258596430+258076721+257671099+257371177+256814543+256399305+256640239
3672+256421727+255731557+255662563+255692034+255419918+255158679+254917294
3659+254540489+254324608+254468384+254171216+253288162+252741954+252587581
3645+252254096+251623008+250966478+250396292+249853227+249354991+248844914
3632+247984391+246891134+246371176+245965788+245004637+243794322+242694593
3618+241924179+241119174+239959787+238750328+237559369+236393292+235367800
3605+234222666+232872652+231561180+230284034+228860436+227403834+226066984
3591+224621103+222965332+221461801+220124375+218612364+217010042+215505173
3578+214017778+212489289+210974166+209387404+207592712+205785307+204239374
3564+202713095+200968771+199214052+197544028+195800264+193917190+192081683
3551+190375871+188517086+186459692+184519963+182791697+181101351+179309117
3537+177465271+175724821+174041010+172239721+170323114+168375544+166427630
3524+164563789+162834605+161092117+159237082+157333733+155441790+153607373
3510+151881565+150253304+148551537+146682016+144850353+143167616+141527062
3497+139894849+138274462+136639214+134986555+133336556+131743882+130193064
3483+128562313+126870092+125266564+123784382+122325882+120773998+119064949
3470+117293496+115696985+114351048+113050180+111641520+110187361+108796042
3456+107441804+106051823+104673902+103371159+102130898+100906976+99658219
3443+98401970+97167871+95893098+94579354+93388061+92354261+91340781+90356267
3427+89478667+88599238+87651321+86761693+85958805+85097123+84116989+83154173
3412+82309895+81520101+80756058+80001368+79124841+78162165+77400442+76915229
3396+76444799+75796478+75114772+74654907+74369721+74046357+73629081+73181073
3381+72759338+72381927+72039246+71723204+71407932+71047325+70706036+70549789
3366+70610443+70717543+70727144+70714976+70784421+70879983+70907237+70885741
3350+70966716+71213772+71492874+71709666+71896295+72083864+72350931+72803389
3335+73377178+73929135+74416915+74854746+75267985+75737707+76347743+77029612
3319+77671951+78295508+78940819+79600063+80251388+80857588+81444828+82132517
3304+83014373+84025402+84988832+85846710+86674813+87535235+88510296+89641294
3288+90807885+91916071+93013179+94149785+95314766+96436762+97495475+98584755
3273+99735413+100951983+102311489+103789735+105275270+106736236+108208063
3260+109691724+111152946+112630243+114192326+115809726+117414997+119055006
3246+120816843+122630472+124389423+126172717+128053068+129914794+131748456
3233+133749009+135945496+138172060+140324605+142385018+144423149+146557862
3219+148816480+151105705+153363981+155639669+157956217+160308399+162688511
3206+165049904+167386354+169740511+172131142+174545315+176963409+179398402
3192+181877056+184365871+186843716+189312116+191745849+194175675+196634615
3179+199089960+201495513+203848908+206237407+208697202+211154212+213566114
3165+215920925+218226846+220543628+222886333+225185361+227373943+229486498
3152+231656548+233920270+236154412+238289405+240379024+242461875+244529741
3138+246576711+248582819+250544238+252477696+254362466+256213455+258062032
3125+259842953+261509912+263136353+264782835+266447864+268141929+269812062
3111+271339198+272744591+274175222+275683374+277170925+278541338+279807561
3098+281028380+282260868+283511064+284716851+285844278+286883291+287851226
3084+288796287+289710011+290588101+291496067+292444054+293333908+294090038
3071+294735566+295305472+295832339+296354600+296839890+297237172+297572586
3057+297883229+298148125+298324795+298406299+298417191+298347980+298165086
3044+297877503+297521269+297095854+296552369+295850171+294984684+293946324
3030+292764219+291470829+290010041+288334680+286471539+284418906+282096366
3017+279446441+276479556+273215285+269624874+265617481+261116427+256085737
3003+250442148+244071433+236907695+228914227+219942524+209654478+197747446
2990+184406545+170029339+154680836+138479607+122224126+107330401+95238444
2976+86840817+82396332+81571682+83365752+86584167+90683917+95985751+103191618
2961+112557647+123276382+133704554+142197814+147841870+150450327+150098994
2947+147026829+141809790+135510543+129694384+125900251+124825138+126070682
2934+128630988+131693700+135097032+139056857+143694234+148906060+154435982
2920+159926335+164963125+169151170+172185696+173963490+174592555+174260455
2907+173234014+171814664+170253794+168884267+167883407+166887433+165379779
2893+163178266+160302081+156636701+151986581+146506249+140943214+136689505
2880+135412296+138025484+144054980+152206835+161439155+171273871+181442072
2866+191643401+201495949+210720193+219282789+227312123+235025134+242631170
2853+250232864+257795938+265160355+272116894+278502625+284252101+289416546
2839+294114436+298475760+302640123+306716105+310740489+314692923+318543345
2826+322273704+325847436+329239268+332456174+335474439+338275080+340926841
2812+343530054+346166971+348895474+351734113+354661071+357572126+360365267
2799+363027048+365527471+367822936+369905195+371740453+373310286+374683593
2785+375926694+377036786+378018570+378901297+379704201+380419283+381011222
2772+381493432+381920278+382297144+382593161+382806553+382991470+383214664
2758+383488710+383779280+384056686+384299487+384488138+384666520+384894103
2745+385122899+385344320+385684092+386216186+386937804+387846921+388887740
2731+389950747+390957987+391896700+392798784+393738773+394830100+396161084
2718+397739692+399487409+401196442+402653370+403862799+404927362+405925266
2704+406957246+408041571+409147804+410288145+411412740+412444720+413374937
2691+414208743+414956564+415637757+416219613+416670857+417051490+417453471
2677+417945140+418606011+419490637+420532140+421609587+422656194+423633838
2664+424536701+425392167+426227093+427038991+427768700+428422537+429098875
2650+429805679+430488241+431139277+431771424+432403571+433023238+433589192
2637+434111795+434609689+435062427+435486224+435906659+436300486+436686876
2623+437110797+437545081+437954499+438320443+438602922+438818866+439060671
2610+439340380+439599674+439854052+440131800+440391375+440570814+440675721
2596+440771073+440894092+441059652+441273480+441506197+441713272+441887670
2583+442065491+442271850+442493582+442710429+442951860+443248965+443553602
2569+443816320+444052896+444280915+444511890+444757335+444965499+445096111
2556+445184742+445246858+445284109+445307480+445337013+445450011+445711079
2542+446081784+446507852+447006555+447580943+448185455+448807363+449449219
2529+450083824+450689301+451272122+451866364+452480056+453075637+453652140
2515+454233966+454824567+455414265+456007667+456647470+457327012+457985176
2502+458630113+459312892+460024551+460720557+461403803+462087423+462751997
2488+463407297+464069942+464721259+465364671+466016921+466667211+467335053
2475+468040768+468753672+469457395+470151254+470826938+471492103+472189322
2461+472964062+473774933+474542328+475244683+475869267+476421559+476959691
2448+477515438+478074421+478608476+479081162+479491328+479885311+480284740
2434+480656846+480976856+481265994+481555942+481820154+481984344+482059593
2421+482163037+482351968+482579831+482816688+483085754+483432714+483909446
2407+484497558+485087785+485635285+486169683+486684506+487197898+487719412
2394+488218052+488688467+489134390+489500800+489752812+489971526+490261131
2380+490600249+490935664+491291556+491668827+492011057+492351855+492625061
2367+492504469+492082478+491592333+491315674+491768536+492739334+493168701
2353+492175154+490260042+489780416+492531482+496672038+498529360+497802950
2340+496972971+497034776+497486737+497758572+497992877+498405563+498785107
2326+498958727+499180832+499749432+500424524+500802325+501014721+501436588
2313+502066027+502659802+503150258+503699718+504392923+505151636+505873254
2299+506509851+507108387+507688968+508188946+508620616+509045346+509466684
2286+509837389+510144235+510427399+510714795+510982087+511189130+511319431
2272+511370904+511370437+511358705+511351827+511343020+511352170+511439307
2259+511641277+511957024+512385799+512912573+513505446+514130341+514751627
2245+515324988+515843203+516289561+516689333+517106096+517587154+518123948
2232+518623833+519022173+519387650+519800803+520245014+520682099+521099298
2218+521493654+521869183+522223518+522549348+522838269+523088601+523326049
2205+523592065+523911173+524294512+524756773+525317623+525946876+526558265
2191+527122601+527668513+528210505+528734259+529227454+529732287+530276021
2178+530809050+531301498+531794568+532311787+532812264+533281620+533747802
2164+534205955+534648175+535100104+535565041+536023381+536462053+536875144
2151+537299251+537728836+538089458+538371595+538621180+538897901+539259457
2137+539692776+540160328+540686261+541318687+542027297+542723209+543399640
2124+544097482+544797253+545473123+546131131+546776815+547423371+548072291
2110+548690154+549246522+549753223+550255941+550782558+551321189+551883159
2097+552471208+553043324+553560979+554051684+554548862+555028675+555469463
2083+555881122+556258923+556610955+556946992+557245374+557496390+557735394
2070+557999481+558269107+558560518+558995331+559549148+560129479+560744167
2056+561391905+562061365+562756842+563465638+564129621+564721218+565245221
2043+565681652+566064121+566429535+566787481+567172377+567571775+568011505
2029+568565633+569225259+569918993+570616959+571284801+571876896+572471605
2016+573150027+573776666+574317785+574887723+575445772+575921166+576335439
2002+576732223+577115314+577499152+577885604+578155728+578355707+578724420
1989+579095686+579393071+579702033+579975332+580201826+580390913+580619398
1975+580948090+581338899+581698588+581946305+582201554+582619749+582994064
1962+583248317+583500204+583690100+583768275+583810411+583813150+583694706
1948+583417984+582941284+582161409+581413650+580941991+580357676+579629897
1935+578899254+578210313+577675791+577466289+577752222+578594835+580205000
1921+582341097+584248834+586319953+588537025+590257729+591655778+592967249
1908+594236273+595352621+596324632+597281893+598206788+598974588+599633965
1894+600439483+601142180+601560934+602197531+602864066+603347551+603932737
1881+604545122+605098628+605676408+606393544+607083419+607256199+607371157
1867+608163853+609038334+609585242+610062441+610618436+611254473+611888580
1854+612461443+613012459+613618060+614156068+614047769+614029968+614895984
1840+615547270+615881128+616558182+617455567+617994322+618299487+618985503
1827+619393864+619727473+620616643+621364526+621819069+622385147+623068611
1813+623507657+623821038+624395581+625113340+625734252+626057654+626279978
1800+626906927+627795350+628259727+628056885+628172341+629087091+629668916
1786+629722194+629984414+630398750+630843148+631578832+632165200+632060387
1773+631799910+632094931+632368292+632842005+633342482+633347896+633663705
1759+634183041+634635904+635521774+635994429+635931691+636424636+637252748
1746+637928058+638403078+638737062+639455816+640423222+639918077+639095194
1732+639792911+640447496+640729259+641049487+641442536+642082307+642063386
1719+641043449+640508927+640683263+640871603+640928865+640726520+640418056
1705+640621894+640533139+639193721+638466564+637554179+636214699+635973765
1691+635458351+634749306+633844079+631488396+629342340+628797672+628086574
1678+626628836+624909875+623970540+623073964+621462679+620751705+620669734
1664+619791021+618974175+619244798+620019818+620117598+618497910+617634571
1651+619306042+619334673+617901147+618045981+619172101+620089278+620847742
1637+621023074+621599360+623683860+625546534+626651118+628124229+629830182
1624+631390056+633579992+635647874+636557396+638046191+640728574+642776352
1610+644141289+645546620+646997697+648367426+649663524+650910079+652015970
1597+652930534+653764682+654608852+655392710+656071195+656672439+657199990
1583+657765633+658540529+659058308+658585778+658455259+659459573+659426150
1570+658553039+658631462+659162437+659857540+659818764+657723372+656392481
1556+656896754+656442585+655513146+654822213+654484122+654240263+653681156
1543+652570223+650541366+649370620+649329106+647859792+645828258+644923155
1529+643844463+642186311+640706728+638751999+636067873+633947398+631753541
1516+629330639+627324126+625356825+622690313+618176438+613440425+610439370
1502+607052796+601915457+595357662+587938644+580348091+571433680+559920102
1489+547119263+534995664+524191006+514311368+505166978+497032785+489671557
1475+481974853+472406978+461442237+451096821+442025035+434077034+426756356
1462+419021965+411064877+406922734+411742926+423759596+437078494+449101356
1448+459385807+467736878+473712910+477494867+479853662+481171357+482462010
1435+484525099+485897971+486043210+486052017+486249973+486564444+487297731
1421+488012720+488750085+490656359+493079666+495170235+497328459+499799286
1408+502417904+505082456+508039040+510841517+512615467+512947428+510759452
1394+506271033+501159275+494491563+484565680+473031064+463669361+459544676
1381+462707868+473104944+488031922+504528390+521345490+537746761+553086457
1367+566667357+576829941+582857508+585915326+587078230+586952815+586261571
1354+585329954+583974478+582092820+580218319+579427054+580335581+582173546
1340+583834872+585430721+587372939+589671049+592402291+595703160+599636828
1327+604143857+609114765+614427810+619925399+625524128+631209123+636881980
1313+642495461+648031949+653226426+657882521+661991832+665565315+668738216
1300+671609064+674190556+676583707+678890406+681025508+682810382+684112642
1286+684730815+684233700+682228619+678810925+674664767+671031534+669506577
1273+671305081+676528499+684088181+692465082+700517336+707627516+713570996
1259+718351448+721962337+724412936+725703557+725734118+724641608+722630303
1246+719330555+714335124+708527827+703534138+699980884+698152504+699147669
1232+703738661+711451455+721007255+731015295+740437154+748675071+755604754
1219+761469313+766524557+770848412+774487371+777571891+780253590+782647239
1205+784775556+786644082+788359682+790019701+791537127+792823640+793932208
1192+794977476+796009177+796884342+797445379+797788138+798058760+798212058
1178+798089569+797621146+796883471+795874488+794395402+792321732+789770054
1165+786874932+783664437+780230623+776852078+773794384+771029158+768316775
1151+765455574+762278876+758530871+754025274+748853515+743240906+737399874
1138+731552307+725935217+720693313+715725641+710885252+706255547+701864161
1124+697320534+692050373+685665794+677806922+667708010+654205782+636169014
1111+612765862+583418358+547924781+507420026+465234837+425596689+391062427
1097+362062101+338982164+323463838+317447350+321714317+335084813+354481942
1084+375793935+394457123+405681282+405126625+390083880+362174134+330283697
1070+307335648+300240499+303348234+302486482+285664465+251685326+209675360
1057+171169867+143425899+129096384+129411890+145839107+179756643+231242259
1043+297713686+373635057+451497308+524105488+586456135+636060591+672455225
1030+695731905+705707954+700339950+673849166+623554711+562000432+516576491
1016+510504670+544092751+598623738+655619079+707163824+752266790+791124907
1003+823368653+848362178+865880419+876698085+882234636+883513805+880783123
989+873975868+863142143+848177323+828064085+800487575+761825578+707577848
976+635035488+549465485+469144138+419931363+419801404+467945509+547745528
962+638156170+723370966+795403327+851949166+893936306+923896070+944897171
949+959725000+970272604+977643883+982717364+986312195+988833002+990351237
935+991038995+991110448+990566465+989284931+987250534+984495578+981039544
922+976788635+971387022+964575597+956422762+947006443+936372386+924928393
908+913649959+904036524+897450535+893515746+889377804+881036380+865128552
895+839377746+802514316+755521911+702969429+651728045+608189248+579133715
881+575570938+608072111+673248482+751469861+821802555+874164768+908200234
868+927370963+934935998+933060128+924748269+916197779+915175601+924635862
854+939940578+954430067+965015389+971644823+975027039+976189383+976238241
841+975741250+974582392+972564303+970067770+967594515+965043024+962025288
827+958545851+954937701+951309323+947358974+942709725+937286327+931243947
814+924460095+916423899+907057932+897303834+888995211+884313721+884349758
800+887976021+892640145+896203606+897800265+897506862+896014706+894086803
787+891792988+888815397+885328305+881709885+877963810+873864581+869150416
773+863955006+859039118+855213313+852462278+849886637+846592802+841994341
760+835761069+828616906+822938633+821257763+823488280+826834335+829017424
746+829804394+829503523+828296242+826526928+824527636+822526165+820470668
733+818174924+815775050+813494866+811235345+808839766+806229084+803921514
719+801501226+798972265+796755006+794709157+792537271+790321257+788248084
706+786324538+784407030+782439915+780505726+778646288+776832659+775115005
692+773586438+772205879+770846296+769523932+768376900+767479577+766673436
679+765703292+764371654+762269104+760186658+761776159+766376984+765329786
665+759349958+757553071+759948588+761849540+762447859+762756884+763135618
652+763861157+764932131+765850927+766588416+767615884+769011069+770546234
638+772174386+773924031+775794299+777799443+779930997+782156970+784396885
625+786801675+789187606+791337521+793566171+796208098+799179215+802216681
611+805166077+808117091+811237897+814494326+817706999+821033261+824766142
598+828472943+831732173+835034099+838779365+842669590+846360956+850016097
584+853818874+857568497+861196813+864875669+868599088+872462612+876312691
571+880036609+884040111+888294008+892197988+895703316+899241197+903035073
557+907110463+911360750+915573007+919452776+922904702+926280446+929872227
544+933569692+937186743+940778212+944620574+948662354+952393741+955867202
530+959471867+962746719+965390762+968180946+971248723+974096542+976651644
517+979329546+982416244+985252424+987306177+988712130+989996092+991297979
503+991855654+992019285+992417251+992471089+991469514+989183852+986177319
490+982968878+979544587+976029798+973182352+972286150+973571107+975565856
476+976409590+974882517+971412292+967095968+962256574+958933050+959879854
463+965629455+974284820+983239874+991725820+998093097+1000946019+1002177450
449+1002254566+1000258261+996312517+991743372+987748895+983607094+979470209
436+977443220+977610647+979509981+985009997+994084677+1003768818+1012921672
422+1021984713+1029667943+1037876483+1047924793+1055791259+1059831919
411+1061285362+1062922663+1066335191+1069973279+1072608795+1073741823
399+1072799376
##END=
