##TITLE=32
##JCAMP-DX=4.24
##DATA TYPE=INFRARED SPECTRUM
##DATE=16/11/2015
##SAMPLING PROCEDURE=Instrument type and / or accessory
##ORIGIN=Default
##XUNITS=1/CM
##YUNITS=TRANSMITTANCE
##RESOLUTION=4
##FIRSTX=3996.3359
##LASTX=399.24785
##DELTAX=-1.9287336
##MAXY=0.95433462
##MINY=0.048651416
##XFACTOR=1
##YFACTOR=8.8879337e-010
##NPOINTS=1866
##FIRSTY=0.2251032
##XYDATA=(X++(Y..Y))
3996+253268314+253419708+253505011+253580524+253731280+253908945+254050547
3983+254213191+254458689+254720115+254915150+255095565+255321867+255562788
3969+255823745+256119390+256379424+256570334+256731418+256871445+257024817
3956+257236533+257448467+257587185+257686538+257813119+257939498+258087303
3942+258307637+258495613+258600599+258666136+258745840+258922046+259133880
3929+259272012+259403236+259599243+259750200+259776874+259822862+259997610
3915+260180121+260294362+260466276+260673834+260748927+260774277+260884427
3902+261031462+261226814+261415562+261401898+261290574+261393800+261535218
3888+261435697+261477578+261732230+261837535+262001302+262195280+262185941
3875+262179084+262161463+262171137+262290240+262232214+262131772+262234478
3861+262400373+262452917+262245727+262116029+262561038+262963396+262771312
3848+262519460+262573478+262778907+262871856+262884162+263053327+263191157
3834+263112677+263107748+263241521+263346775+263428860+263415497+263495989
3821+263823891+263862318+263723280+263849794+263914425+263784726+263768279
3807+264011196+264094052+263909010+263991798+264121162+264029705+264060655
3794+264121564+264049321+263991078+264014767+264116635+264183848+264107230
3780+264095091+264240231+264304779+264239443+264214680+264328972+264406462
3767+264322500+264258221+264232938+264251364+264404568+264465645+264262194
3753+264120072+264418802+264688711+264302800+263985478+264291551+264298274
3740+263757516+263398983+263451694+263629108+263730372+263631958+263374388
3726+263192297+263097320+262970287+262864613+262763349+262503918+262080318
3713+261814835+261739155+261433970+260805109+260018551+259230131+258399429
3699+257328442+256073201+254788704+253436222+251999644+250744202+249821976
3686+249031025+248337868+247891265+247549532+247159765+247004499+246875437
3672+246339675+245948567+245842139+245513215+245052027+244679277+244288185
3659+243882089+243693845+243498944+242898182+242243133+241889178+241459157
3645+240655648+239695717+238805195+237983680+237208706+236504987+235712694
3632+234687142+233789679+233133507+232179057+230908996+229689784+228664751
3618+227699237+226519609+225186374+223849568+222500255+221201088+219884032
3605+218400226+216852073+215338742+213778300+212181191+210640398+209099455
3591+207434429+205684803+203963679+202243612+200501263+198785303+197061782
3578+195297838+193534901+191762693+189883100+187939547+186139173+184451613
3564+182638480+180717326+178833928+176937637+174989775+173100610+171291785
3551+169413148+167369940+165255898+163184540+161211078+159317670+157389055
3537+155413430+153517407+151704089+149855446+147969835+146065346+144102060
3524+142191451+140435840+138719285+136922347+135054307+133186702+131396579
3510+129679010+127970728+126231741+124462198+122759575+121160496+119563354
3497+117940670+116340267+114778064+113202734+111573947+109962018+108446046
3483+106972785+105439285+103864810+102346098+100938893+99576729+98101104
3470+96513720+95055464+93871594+92747896+91417118+89963690+88645922+87487167
3454+86327523+85106769+83873332+82696076+81601684+80519615+79375731+78190436
3439+77006147+75864292+74860988+74004684+73168768+72313579+71499039+70719983
3424+69918671+69064325+68201248+67384059+66572067+65780617+65094292+64470360
3408+63835991+63163321+62359192+61451553+60743537+60362522+60009882+59422910
3393+58732058+58259808+58047887+57853427+57547610+57190875+56857474+56554947
3377+56267249+55991300+55673646+55265919+54889070+54738725+54828995+54952511
3362+54941048+54879828+54905811+54977957+54982526+54941995+55021737+55254028
3346+55483264+55661231+55837891+55999842+56226446+56618367+57058846+57448902
3331+57826954+58175892+58519587+58972502+59505124+59994605+60479504+61044006
3315+61623970+62150213+62645050+63110308+63559518+64128718+64940547+65895935
3300+66759100+67436078+68039359+68705541+69512268+70480059+71504077+72482308
3285+73450941+74409146+75318001+76211809+77118200+78055599+79038524+80086333
3269+81230100+82449563+83720035+85021189+86303364+87537598+88767967+90105963
3254+91553984+92964340+94297533+95700806+97276010+98934548+100574216+102197496
3238+103797010+105360520+106968619+108747483+110671060+112581292+114453742
3225+116366899+118314317+120260250+122234283+124264414+126315887+128363974
3211+130447897+132580969+134692647+136778071+138929652+141157348+143386453
3198+145584626+147785145+150016748+152282939+154601689+156963913+159320353
3184+161651493+163961006+166270066+168631804+171015806+173320993+175560711
3171+177821687+180130999+182443680+184704925+186955255+189261817+191574650
3157+193799463+195917847+198015745+200197872+202447415+204689379+206872965
3144+208932285+210900316+212918643+215009650+217082918+219091925+221024060
3130+222899092+224792013+226728542+228625067+230405826+232113286+233823495
3117+235536890+237244836+238959472+240656134+242302534+243869464+245357244
3103+246833490+248326551+249796710+251216221+252570681+253863125+255123848
3090+256363262+257545623+258641491+259681294+260727048+261790910+262835944
3076+263850699+264833231+265760453+266602237+267337610+267986791+268600278
3063+269216850+269809783+270299791+270661677+270933230+271158341+271353661
3049+271468270+271456669+271363821+271204665+270934504+270556942+270070320
3036+269432087+268616910+267630271+266506874+265266689+263866476+262242324
3022+260370997+258260895+255920768+253318410+250374135+247042322+243334960
3009+239251529+234721377+229651525+223971873+217587815+210417818+202422350
2995+193447972+183192248+171456155+158471544+144618524+129992132+114782641
2982+99833662+86496269+75967937+68812954+65061984+64372306+65934664+68769388
2966+72402068+77078784+83379392+91551276+101000968+110361517+118112769
2953+123311222+125719325+125387886+122525276+117698692+111944886+106707788
2939+103340441+102377366+103404745+105561632+108190111+111199445+114764006
2926+118894893+123492668+128427222+133406675+138014048+141868177+144683357
2912+146327409+146879383+146561507+145620202+144286850+142825040+141574259
2899+140673392+139770983+138411184+136418264+133759691+130372452+126126620
2885+121131869+116103578+112317284+111209622+113581846+119008991+126333650
2872+134653541+143582393+152880985+162233713+171301777+179888669+187978259
2858+195634039+202993823+210267431+217615679+225002774+232209940+239031513
2845+245344955+251067007+256213311+260895895+265264727+269481864+273632945
2831+277715773+281737323+285716371+289631510+293427478+297030675+300395164
2818+303529595+306472160+309313126+312133638+314979600+317944497+321065281
2804+324256950+327441443+330555051+333493525+336185512+338650392+340924546
2791+342979741+344761590+346310564+347746170+349086781+350272982+351317714
2777+352243578+353035820+353715430+354323854+354840470+355225777+355536511
2764+355846306+356172061+356528968+356893653+357219074+357495136+357731397
2750+357948713+358156103+358352194+358568906+358858147+359248550+359787397
2737+360564047+361579641+362717556+363876328+365001602+366049352+367037282
2723+368066590+369273076+370771720+372564333+374516755+376416801+378092088
2710+379537015+380805803+381942511+383084081+384336908+385653913+386947950
2696+388176903+389336312+390425674+391440127+392366762+393174764+393857661
2683+394429871+394906852+395353891+395911649+396724110+397787184+398963660
2669+400162535+401352793+402500700+403568770+404551738+405485783+406389550
2656+407267900+408107287+408902547+409710750+410532701+411305059+412048949
2642+412791732+413467085+414059849+414644030+415250811+415841598+416356536
2629+416805821+417266842+417760522+418259835+418729708+419130406+419483490
2615+419844621+420196364+420522757+420858438+421181343+421449123+421673648
2602+421886069+422085009+422246194+422385248+422553139+422764922+422961147
2588+423105029+423252935+423424246+423580669+423752483+423991728+424281740
2575+424582548+424849625+425075357+425337671+425667451+425977380+426209885
2561+426392396+426529572+426608169+426649413+426674729+426686565+426675366
2548+426662993+426717246+426915047+427283991+427773345+428337273+428956327
2534+429602373+430280106+431015345+431769897+432479988+433161812+433834180
2521+434444750+435006900+435628703+436311466+436954226+437562650+438224858
2507+438968547+439741408+440500554+441248166+441984679+442733364+443522421
2494+444339308+445142817+445898946+446638108+447393700+448142821+448865285
2480+449576683+450316918+451090785+451869648+452653843+453443302+454235644
2467+455025808+455799976+456618004+457516272+458415579+459280081+460114170
2453+460879788+461572308+462232705+462882406+463496195+464062738+464605408
2440+465100127+465524465+465916646+466307553+466700874+467070690+467370794
2426+467586165+467736385+467844456+467926172+468009430+468142549+468368415
2413+468715999+469179568+469705807+470289653+470951559+471635696+472285364
2399+472868874+473413421+473979562+474567297+475108558+475538764+475823779
2386+475995760+476143834+476345860+476591510+476887456+477243356+477464629
2372+477292211+476929538+476725366+476479784+476121603+475711147+475590837
2359+476509056+478168583+479209761+478188702+475340192+474018894+477063327
2345+482130263+484385137+483424266+482217243+482034364+482563754+483057703
2332+483497263+484196725+484859335+485191898+485645743+486663314+487693259
2318+488071424+488131009+488555045+489324955+490096274+490774241+491455395
2305+492201028+493010606+493771429+494369928+494915011+495525682+496114825
2291+496632245+497111842+497526657+497820491+498055679+498348205+498679863
2278+498934834+499070032+499122676+499107218+499013934+498867705+498738878
2264+498664371+498628359+498641838+498744678+498980805+499375870+499927794
2251+500600832+501322726+502005254+502624643+503164395+503655794+504122750
2237+504577936+505052437+505537130+506013005+506506484+506998186+507441536
2224+507845989+508230190+508604365+508979311+509330852+509638132+509927875
2210+510205682+510471819+510738593+510969690+511184894+511509677+511990548
2197+512565173+513198242+513861959+514498281+515091884+515670230+516232582
2183+516766366+517298305+517848485+518379217+518864012+519359469+519903613
2170+520440012+520923163+521361081+521802084+522290734+522786828+523260423
2156+523742300+524218813+524627592+524963206+525299490+525664343+525996403
2143+526278333+526556274+526854400+527215095+527694021+528267640+528893031
2129+529573681+530307075+531067195+531836870+532613118+533369146+534082724
2116+534798012+535550385+536272413+536902263+537486209+538070759+538649508
2102+539227284+539826252+540437258+541024993+541594521+542155532+542714229
2089+543271149+543792392+544260118+544699512+545107385+545454165+545759299
2075+546066412+546364906+546623432+546845140+547063395+547365411+547823414
2062+548400016+549030001+549693517+550403406+551168957+551953856+552721151
2048+553459307+554140024+554705830+555133889+555477584+555796097+556133086
2035+556518192+556952052+557455088+558060662+558756703+559508506+560291627
2021+561055972+561787455+562534564+563277079+563946899+564561794+565176421
2008+565757920+566255255+566694782+567111441+567526088+567949721+568323393
1994+568619943+568928162+569253348+569522201+569763156+570010013+570265856
1981+570518749+570731739+570935542+571208687+571559088+571906472+572224616
1967+572568982+572924479+573230351+573498936+573740562+573906877+573976287
1954+573946779+573794346+573492834+573002138+572281619+571412892+570543025
1940+569665782+568730596+567732640+566684857+565692064+564885169+564430821
1927+564553546+565496309+567295192+569538564+571964682+574510908+576839651
1913+578835832+580642628+582280426+583737358+585026432+586191641+587287643
1900+588303639+589217364+590095077+590929938+591614779+592233162+592875955
1886+593492930+594127407+594784619+595395424+595955529+596517311+597121745
1873+597661463+598106087+598633801+599258756+599880023+600527242+601191093
1859+601832210+602459445+603048119+603563158+604031455+604512025+604913863
1846+605214370+605574763+605926036+606275566+606836073+607562494+608232514
1832+608800734+609412880+609962725+610379451+610939422+611616418+612234800
1819+612824346+613404839+613953409+614467644+614977989+615495979+616032278
1805+616539605+616941979+617347640+617883670+618435527+618830390+619117351
1792+619432611+619738483+620007873+620326352+620665286+620987051+621370447
1778+621771145+622030677+622181970+622330043+622382956+622440696+622698484
1765+622995973+623292389+623602285+623866041+624321999+624939845+625447910
1751+625935923+626484896+627015561+627533350+628011975+628494825+629042792
1738+629366502+629431486+629595319+629741649+629833592+630113242+630418041
1724+630635457+630760193+630674890+630385851+629916414+629376293+629043596
1711+628908667+628720355+628473432+628156293+627586866+626853606+625855851
1697+624485095+623255706+622189011+621080268+620030808+618778015+617098436
1684+615126801+613117476+611357490+609840269+608398963+606927010+605415892
1670+604144858+603222481+602363076+601587633+601104516+600894074+600871876
1657+600854976+600861615+601043623+600893202+600473123+600610198+601174328
1643+601722697+602516113+603599439+604870742+606499956+608190667+609683075
1630+611404769+613444271+615468417+617520661+619592287+621380372+623216743
1616+625434766+627499283+629267048+631074247+632843555+634404634+635843056
1603+637244259+638538765+639661658+640656127+641577230+642398342+643105046
1589+643744754+644334300+644850748+645312138+645713573+645936690+646079600
1576+646285951+646246921+645972837+645841730+645732887+645562079+645485695
1562+645252921+644731511+643992081+642931824+641922065+641223475+640613677
1549+639974907+639296772+638556536+637595264+636321748+634898013+633314736
1535+631718918+630318789+628862729+627183285+625461121+623661032+621556478
1522+619102262+616380466+613569410+610881145+608303131+605673479+602683165
1508+598927066+594408734+589626915+584823702+579562721+573072151+565081260
1495+556023808+545883532+533812831+520007024+506340035+494197644+483499074
1481+473733879+464897699+457011794+449098830+439405391+427647972+416071856
1468+406546175+398726393+390991714+382392366+374300378+370737049+375411267
1454+386541451+399593343+411986916+422731491+431248755+437199574+440934281
1441+443159881+444751675+446472833+448089238+448995688+449335460+449433907
1427+449459995+449733207+450357022+451189602+452404236+454114094+456064940
1414+458209932+460620256+463221206+465967278+468949913+472090715+474956896
1400+477088442+477600497+475365977+470760263+465113506+458071448+448214276
1387+436376181+426290528+421720592+424745376+435078959+450114356+467114817
1373+484503435+501438476+517619232+532028836+542919105+549742372+553109710
1360+554076684+553855076+553207219+552241453+550778989+548783949+546772378
1346+545825423+546584670+548424360+550293658+551933067+553717766+555955337
1333+558768774+562239188+566394879+571138272+576335610+581896628+587758086
1319+593831930+599952316+605999402+611994449+617905264+623517250+628635924
1306+633183629+637152652+640629839+643750522+646629512+649315161+651787418
1292+653990016+655888688+657380089+658066943+657423747+655166090+651411600
1279+646816147+642734660+640943355+642782543+648360729+656507406+665598188
1265+674383031+682179374+688748407+694058008+698118102+700983210+702599616
1252+702788263+701674959+699544185+696058011+690674642+684289762+678795135
1238+674903503+672825774+673775512+678718550+687188401+697719148+708736432
1225+719109046+728205863+735932327+742534355+748213336+753058530+757185954
1211+760750725+763865037+766582273+768921410+770950988+772821091+774619034
1198+776244896+777630674+778854698+780011122+781117451+782017831+782586923
1184+782943762+783258620+783498167+783404615+782869457+782066250+781021015
1171+779490986+777330972+774665911+771641798+768251591+764557859+760869559
1157+757469494+754367253+751433071+748450804+745070053+740944707+735930449
1144+730116874+723734274+717108909+710571730+704384416+698652321+693216442
1130+687922534+682870989+678116330+673318549+667876634+661290097+653067170
1117+642342747+627964696+608811330+583962151+552846122+515458548+473210792
1103+429681674+389213554+354321172+325301682+302362541+286957831+280871882
1090+284819445+297687585+316565861+337477134+355929362+367264959+367156251
1076+352763144+325839154+295301638+273513105+266917280+270108798+269484966
1063+253487642+221188413+181695465+146027472+120635557+107469315+107360389
1049+121702445+152091995+199179865+261243764+333601731+409349619+481469296
1036+544706285+596116345+634637073+659777437+671191798+666781840+640287284
1022+588842217+525763797+479343651+473093801+507312306+563185070+621963346
1009+675510283+722780110+763901720+798352228+825338217+844573936+856821145
995+863488559+865643946+863582447+857227678+846543157+831316028+810482346
982+781583736+740679543+683155065+606781082+517833731+435475130+385480993
968+385057024+433256537+514149456+607033706+695552293+770973118+830619786
955+875200007+907103349+929548408+945556411+957055942+965165533+970874089
941+975051474+978095103+980010138+980891808+981094537+980802816+979777766
928+977794395+974888714+971189684+966691807+961072914+953955645+945244638
914+934990591+923316631+910720563+898268343+887585432+880212991+875844008
901+871351764+862330726+845184807+817416870+777649720+727213675+671277437
887+617162078+571391097+540669462+536086180+568723488+635851640+717823526
874+792697993+849212644+886489431+907975295+916933294+915498694+906902430
860+897942755+896984970+907161224+923587563+939252610+950869298+958287811
847+962173006+963630809+963849969+963354848+962061481+959866662+957058490
833+954135172+951185430+947858597+944069101+940131396+936184772+931827927
820+926618718+920680675+914233561+906934285+898072454+887556595+876606709
806+867405072+862217994+862160522+866173404+871462551+875437274+877111219
793+876828484+875376717+873268408+870632921+867480652+863873699+859963758
779+855875364+851489816+846481191+840915010+835511521+831160980+828054313
766+825335870+821905895+817012081+810331322+802666958+796594253+794821525
752+797165826+800717855+803119160+803923775+803447229+802092635+800218776
739+798014501+795669932+793302762+790879126+788383062+785909196+783523517
725+781098405+778419462+776139742+773618530+770818070+768418979+766289009
712+764007612+761629041+759316326+757115941+754990598+752898318+750856602
698+748918967+747139868+745498448+743870440+742237068+740694430+739284644
685+738032052+736980446+736032720+735043415+733751189+731262703+728534536
671+731231519+738721789+737762997+729055477+726240062+729372012+731644691
658+731908447+731811676+732119157+733172775+734795820+736174087+737099415
644+738181601+739711228+741467861+743253533+744979049+746724148+748702691
631+751021777+753563175+756068761+758722489+761389427+763897361+766565172
617+769588883+772792120+776070668+779211269+782180659+785338361+788741846
604+792168535+795714931+799551841+803407662+807013073+810683467+814741548
590+818875545+822827936+826796020+830865235+834905009+838940557+843219744
577+847673025+851968776+856097944+860308526+864669193+868818681+872477406
563+875964586+879849647+884146538+888427938+892683317+896956468+900950774
550+904753884+908973519+913628859+917929707+921577635+925123628+929076892
536+933202639+936984961+940504866+944220930+948190288+951878387+954942335
523+957728645+960626614+963633961+966659751+969657174+972436107+974847135
509+976955511+978843788+980483934+981781122+982637174+983068319+982912667
496+981529571+978785712+975477522+972077993+968440058+964714807+961895502
482+961235138+962592817+964276352+964968504+964128346+961173508+956401479
469+951306881+947896085+948527210+954044034+962739751+972565068+981852007
455+988666556+992530090+993979443+993125336+990288931+986170493+981498320
442+976508138+970943833+965545710+962045655+961280875+963365846+969038456
428+978367913+989524084+1000497442+1010606366+1020336589+1030208916+1039760954
415+1048072940+1053929502+1056932893+1059205706+1062758137+1067369350
403+1071719891+1073741823+1073001051
##END=
