##TITLE=32
##JCAMP-DX=4.24
##DATA TYPE=INFRARED SPECTRUM
##DATE=16/11/2015
##SAMPLING PROCEDURE=Instrument type and / or accessory
##ORIGIN=Default
##XUNITS=1/CM
##YUNITS=TRANSMITTANCE
##RESOLUTION=4
##FIRSTX=3996.3359
##LASTX=399.24785
##DELTAX=-1.9287336
##MAXY=0.92826349
##MINY=0.043423507
##XFACTOR=1
##YFACTOR=8.6451274e-010
##NPOINTS=1866
##FIRSTY=0.22357914
##XYDATA=(X++(Y..Y))
3996+258618674+258652785+258702047+258818979+259027196+259183531+259235844
3983+259351311+259608445+259875455+260087481+260344098+260648046+260912695
3969+261179430+261536535+261902414+262119714+262246678+262408426+262611041
3956+262854937+263089060+263267768+263445872+263671739+263816216+263779812
3942+263807235+263965863+264119440+264292787+264422957+264568692+264821689
3929+265002499+265101799+265350246+265693838+265784984+265704180+265788018
3915+266017746+266120199+266219257+266516328+266740075+266761086+266836306
3902+266957100+267054158+267304346+267436429+267272734+267269838+267619360
3888+267648834+267462835+267722400+267813063+267713506+267924187+268048083
3875+268082539+268117736+268033277+268238615+268329675+268028037+268003337
3861+268264194+268548355+268484873+268003406+268084573+268808212+268873676
3848+268503299+268387711+268571038+268770016+268722788+268723477+268968149
3834+269041456+268985110+269066208+269117986+269193947+269246381+269137877
3821+269426692+269677362+269364347+269494689+269860534+269741671+269449271
3807+269532799+269885665+269689083+269554224+269946958+269959678+269797810
3794+269777937+269695495+269685808+269753237+269837420+269957575+269953042
3780+269877650+270032261+270209090+270156295+269959127+269831473+269957748
3767+270043568+270032347+269959833+269791622+269930928+270272107+270271090
3753+269970055+270083626+270627351+270491389+269708318+269802085+270231859
3740+269759942+269130586+269044507+269266530+269371483+269295160+268958980
3726+268663426+268573193+268411152+268233203+268073179+267800274+267263702
3713+266731233+266580017+266405084+265804151+264837960+263745546+262752121
3699+261668463+260290251+258807138+257206799+255401794+253747419+252678412
3686+251932728+251139005+250532142+250083839+249438367+249007041+249218619
3672+248969655+248330319+248201408+247903975+247232407+246715554+246355604
3659+245907749+245631224+245699015+245317778+244371719+243730022+243359145
3645+242715086+241780507+240874161+240095002+239331719+238555681+237738396
3632+236615335+235313670+234539045+233794740+232508381+231071375+229814008
3618+228830287+227715621+226209445+224662160+223174410+221725994+220339767
3605+218767248+217007471+215296474+213617779+211851125+210107327+208500749
3591+206831464+204956324+203089527+201286866+199415914+197557563+195739734
3578+193835120+191853717+189946620+188075755+186032714+183928777+182056050
3564+180215831+178164897+176066320+174017057+171984617+169957279+167963103
3551+165989043+163866887+161621042+159478357+157474099+155524618+153557556
3537+151528804+149496364+147489520+145471093+143462112+141459120+139433592
3524+137474389+135651890+133846807+131964247+130047929+128152553+126333811
3510+124614342+122929105+121161874+119296964+117494545+115812230+114123657
3497+112411023+110801420+109320047+107836348+106268362+104687595+103161175
3483+101593155+99960997+98440403+97058227+95658107+94151535+92553221+90994578
3468+89658810+88520504+87324491+85975167+84635866+83393969+82158888+80921179
3452+79783020+78707515+77583127+76416829+75258916+74134201+73048820+71945629
3437+70835090+69841347+68986421+68183020+67382941+66580949+65763293+64915569
3422+64081672+63313864+62558682+61747020+60931915+60185127+59536432+58990199
3406+58414535+57621506+56685664+55970277+55620828+55340787+54850099+54261792
3391+53841790+53560896+53238470+52877327+52530723+52174647+51826315+51575783
3375+51438025+51262044+50905284+50477590+50228881+50233828+50350217+50405335
3360+50388344+50416491+50496671+50490406+50410898+50496882+50785227+51041223
3344+51191500+51330383+51465306+51633267+51938245+52351196+52802012+53252479
3329+53605211+53871226+54222368+54714103+55244547+55762305+56283761+56816536
3314+57335846+57797064+58172854+58524866+59084427+59977221+60953969+61745378
3298+62376501+62987228+63667979+64458479+65325806+66207107+67088771+67963389
3283+68829970+69724738+70657680+71624401+72596267+73494788+74385026+75454085
3267+76703997+78001732+79282308+80552379+81817994+83042887+84265618+85585096
3252+86966920+88315252+89669273+91111622+92622555+94177321+95777608+97369345
3236+98904246+100449040+102157891+104057248+106011340+107951324+109899632
3223+111836953+113722263+115597928+117516849+119464830+121440813+123474468
3209+125597115+127780245+129960161+132124865+134291009+136497477+138771383
3196+141067343+143315550+145510996+147719300+149998066+152312926+154605586
3182+156890144+159190387+161505196+163854822+166269309+168699325+171041781
3169+173310344+175602814+177944407+180283416+182579643+184848120+187102049
3155+189315162+191496560+193709690+195972840+198237232+200440951+202568071
3142+204658305+206748109+208859871+210977115+213062488+215113630+217114682
3128+219068921+221003423+222871048+224649319+226443585+228317691+230203259
3115+232047839+233846053+235572769+237226886+238855510+240478928+242048155
3101+243559484+245084155+246615841+248090939+249474288+250750667+251968855
3088+253201212+254444549+255655550+256806533+257880625+258926311+260022465
3074+261104916+262035773+262821188+263563218+264309903+265016289+265650609
3061+266256040+266815398+267260548+267612689+267920395+268175960+268351014
3047+268415617+268343637+268132352+267812546+267398285+266857542+266150329
3034+265266890+264234666+263064033+261707142+260129159+258350250+256387118
3020+254190138+251680851+248830798+245618968+242036020+238097811+233739117
3007+228849626+223379783+217284358+210479291+202890738+194472215+185124903
2993+174565281+162509066+149202206+135185815+120661947+105830271+91447397
2980+78664441+68565817+61767187+58277445+57630499+59049191+61698103+65125539
2964+69561827+75616082+83501878+92595692+101597740+109036326+113973131
2951+116236264+115949958+113285740+108712323+103213953+98197739+94960486
2937+94030845+95038128+97155061+99726064+102641452+106112949+110189611
2924+114702950+119488746+124332526+128853975+132600299+135239377+136751181
2910+137304033+137027740+136103727+134770666+133283295+132025299+131158260
2897+130302822+129007483+127075799+124436565+121055138+116907470+112142341
2883+107354450+103728264+102685931+104994542+110276164+117492063+125752132
2870+134613667+143843521+153165098+162273340+170955961+179129571+186853947
2856+194308192+201713348+209224802+216810217+224240659+231257201+237714764
2843+243567637+248892901+253834963+258482144+262936638+267298658+271578443
2829+275780095+279927089+283984524+287898068+291638195+295168434+298498213
2816+301675897+304730513+307717182+310713779+313800455+317042948+320401615
2802+323741253+326970474+330054977+332946570+335628292+338107450+340316305
2789+342211767+343893152+345442677+346840625+348099475+349266798+350319879
2775+351195285+351915529+352571619+353159521+353611358+353963258+354302162
2762+354654476+355002308+355305084+355580971+355907878+356244300+356492712
2748+356680659+356878465+357131738+357463264+357866702+358434058+359309878
2735+360468963+361754977+363022376+364171601+365196931+366199301+367336875
2721+368738339+370418793+372328630+374393974+376455148+378302761+379844737
2708+381182530+382446309+383694506+384997516+386387500+387777795+389082114
2694+390326347+391541485+392679989+393704388+394598238+395347336+395970159
2681+396499215+396993110+397570670+398369271+399451825+400746148+402103038
2667+403421285+404669344+405815984+406842623+407803868+408790484+409805989
2654+410770163+411666840+412542557+413417377+414272031+415089110+415890261
2640+416659353+417339091+417932888+418478906+419018994+419580627+420128817
2627+420629502+421113951+421614429+422132558+422655685+423128034+423513545
2613+423866755+424219310+424535807+424820140+425089063+425334063+425572030
2600+425794725+425961092+426074956+426186476+426341777+426523691+426686058
2586+426832741+426983284+427122693+427261136+427469008+427775956+428123857
2573+428454591+428759263+429042389+429321276+429611745+429884012+430107776
2559+430261250+430332506+430335815+430292896+430260664+430263318+430275970
2546+430341917+430528347+430840810+431273963+431827426+432463935+433147672
2532+433875638+434638318+435396034+436127378+436854585+437582378+438295831
2519+438978292+439628039+440282474+440961833+441648741+442340510+443062546
2505+443830191+444635445+445452385+446270084+447122635+448001592+448852075
2492+449652020+450412391+451169452+451949092+452755312+453568736+454352444
2478+455117882+455914621+456747006+457582458+458448006+459369606+460269420
2465+461106320+461961525+462903258+463888702+464834744+465708392+466506269
2451+467255988+468016461+468773522+469424441+469939467+470423847+470957281
2438+471500679+471970304+472323101+472606606+472906693+473218226+473471740
2424+473658239+473806610+473922267+474010587+474120935+474324222+474643821
2411+475056531+475553632+476173559+476892527+477591329+478228217+478832735
2397+479429393+480044391+480680486+481313513+481891798+482338946+482643343
2384+482905682+483198254+483427362+483511476+483523162+483483656+483271509
2370+482856524+482224669+481308067+480551247+480285116+480489334+481300724
2357+482554575+483621996+483640818+482457878+481966052+484110375+487480969
2343+488825036+487985860+487262031+487550260+488470861+489353403+490016904
2330+490604875+491089186+491467044+492049431+493057489+494118395+494772761
2316+495174061+495720147+496443390+497200003+497967440+498771040+499571709
2303+500338836+501048255+501663149+502222887+502772317+503284723+503762484
2289+504219630+504623826+504927705+505156985+505387988+505637814+505844273
2276+505943072+505932903+505868266+505801354+505707518+505535395+505310907
2262+505128510+505073560+505181874+505455900+505894569+506493433+507226156
2249+508018621+508720904+509301291+509824798+510342926+510841440+511320925
2235+511791308+512245352+512712150+513202735+513666500+514082313+514470651
2222+514877260+515315997+515730224+516108289+516461017+516747384+516956290
2208+517132792+517333183+517564841+517791432+518081901+518547114+519142187
2195+519766458+520412653+521084773+521722971+522302979+522869577+523442483
2181+524018974+524592225+525141897+525668265+526181154+526682391+527185661
2168+527697723+528209371+528710746+529185818+529634690+530097972+530581939
2154+531025399+531407497+531772704+532140220+532478538+532730087+532910691
2141+533143004+533483218+533884518+534333184+534877857+535549976+536291903
2127+537042621+537824089+538638927+539457418+540262052+541041072+541816680
2114+542584082+543305636+543993131+544658769+545295175+545883180+546413099
2100+546962115+547586662+548215173+548777117+549304760+549872151+550494664
2087+551103009+551632617+552077628+552453866+552779601+553063728+553322516
2073+553577409+553819272+554027213+554214953+554478050+554944332+555551125
2060+556207559+556941868+557745984+558579713+559417234+560252376+561033258
2046+561683660+562204201+562624220+562953506+563213363+563506728+563925678
2033+564400681+564902711+565515365+566251914+567052239+567909961+568790400
2019+569572764+570268188+570991879+571678408+572303403+572949599+573561942
2006+574068316+574505881+574945515+575403867+575865012+576287306+576585601
1992+576839287+577213250+577487483+577637544+577835798+578058838+578257437
1979+578420252+578625435+578924799+579269528+579587507+579841987+580124872
1965+580504350+580792475+580994349+581218699+581371345+581400234+581340527
1952+581139342+580739111+580171479+579422726+578335001+577156060+576156619
1938+575064826+573851687+572595010+571360050+570329205+569760228+569923148
1925+570909730+572848145+575446993+577961934+580645069+583331341+585484316
1911+587385707+589193745+590858376+592264528+593451915+594569874+595636468
1898+596588818+597471050+598430226+599196491+599695936+600453996+601229707
1884+601789134+602413095+603036091+603589244+604177767+604927002+605683822
1871+606005386+606294269+607122103+607903330+608395397+608900908+609495222
1857+610126491+610722598+611258584+611807118+612458312+613064967+613021807
1844+613013672+613762494+614269867+614573780+615267997+616132441+616686353
1830+617132916+617975022+618462469+618773760+619537543+620159298+620558426
1817+621096549+621779803+622296484+622698922+623256625+623880241+624442220
1803+624765921+624971656+625539632+626390977+626871599+626708335+626793414
1790+627522656+627877865+627828707+628078842+628436189+628733760+629283052
1776+629720239+629543875+629274227+629534153+629660393+629887432+630156322
1763+630066071+630384188+630883839+631266075+632061229+632545161+632669815
1749+633344106+634171595+634742399+635109467+635356018+636030654+636996793
1736+636554643+635812164+636412683+636762860+636685295+636734454+636969491
1722+637505132+637423500+636373522+635699713+635508526+635210680+634837199
1709+634337135+633818385+633787153+633414155+631818332+630807033+629479755
1695+627603391+626767422+625707447+624534401+623206640+620461902+617882772
1682+616721240+615280132+613153770+610894273+609448270+608044324+605946644
1668+604735815+604214101+603049535+602034099+602142620+602868001+603078286
1655+601728807+601142422+602932741+603149300+602064091+602488867+603770779
1641+604899217+606026621+606750002+607959796+610541615+612776291+614314957
1628+616307909+618531071+620576628+623147346+625453105+626597401+628378895
1614+631282485+633474069+635032041+636695086+638354201+639826886+641171608
1601+642462758+643624153+644616768+645534645+646407776+647151979+647761185
1587+648267800+648680028+649148998+649839767+650252960+649686294+649478973
1574+650349278+650153885+649167682+649119489+649433193+649868725+649687673
1560+647699685+646480790+646768846+645937772+644670752+643681102+643040457
1547+642579760+641927807+640682505+638342549+636664681+636072780+634222960
1533+631879143+630530353+628972175+626930755+625078315+622706023+619579463
1520+616945659+614154589+611046920+608323762+605741667+602575739+597429338
1506+591626985+587327930+582833965+576727492+569067046+560236898+551037648
1493+540536802+527286529+512314539+497830651+484965580+473491907+463078932
1479+453900056+445756678+437446762+427107663+414982243+403397602+393432293
1466+384864450+376917499+368586451+360273777+355922357+360426113+372175604
1452+385562907+397946563+408712954+417479603+423722279+427652405+430133355
1439+431672470+433118370+435011281+436124206+436157576+436097972+436209285
1425+436456594+437136505+437894083+438710885+440422848+442429278+444175196
1412+446164907+448614453+451336197+454201591+457384514+460486978+462677874
1398+463245126+460814368+455745980+450098859+443088229+432743201+420441211
1385+410167955+405409237+408374568+418975523+434483500+451912516+469889688
1371+487608795+504423573+519473403+530918774+537918097+541448715+542649409
1358+542433953+541661655+540640738+539175223+537131286+535010509+533954016
1344+534733932+536693169+538607694+540305971+542153170+544383158+547218560
1331+550775963+555050302+559915782+565243201+570966955+577006033+583280045
1317+589686847+596045938+602307332+608491163+614356532+619689500+624432292
1304+628545193+632161545+635446682+638450105+641231246+643863533+646288982
1290+648346467+649825840+650410502+649663059+647237748+643223922+638346479
1277+634015364+632044682+633825831+639503323+647892872+657322470+666474217
1263+674573090+681330688+686791758+690999736+693934903+695521280+695622079
1250+694453100+692300263+688652058+682849912+675938495+670052029+665912928
1236+663617649+664415077+669350366+678005563+688966727+700604250+711638428
1223+721349946+729654761+736820726+743036892+748377514+752941735+756853038
1209+760245592+763250050+765886405+768178995+770289637+772319819+774194046
1196+775804278+777206225+778497927+779701310+780690132+781363734+781820639
1182+782176745+782404197+782329322+781859111+781112702+780080857+778501443
1169+776231881+773414612+770196077+766561592+762586376+758620054+754997496
1155+751735319+748605035+745326518+741641495+737238676+731883990+725659826
1142+718854724+711774251+704720254+698037393+691908857+686135945+680518229
1128+675169403+670138004+665040348+659252888+652251841+643556862+632308124
1115+617220960+597090606+571036039+538523856+499685814+456168515+411706829
1101+370652071+335466648+306383147+283478219+268033759+261722672+265255634
1088+277556332+295761473+316012826+333953698+344936580+344613189+330220655
1074+303504447+273255863+251668492+244935490+247736281+247119956+232035222
1061+201436444+164021050+130400019+106640506+94377152+94252799+107559866
1047+135960750+180512144+240167982+310830574+385754576+457838144+521733141
1034+574241715+613873703+639757527+651648564+647813308+621675833+569796356
1020+505757987+458563594+452051408+486561265+543319184+603474449+658643613
1007+707647492+750584129+786815359+815365459+835813585+848878772+855987857
993+858250800+856038463+849349259+838124928+822037565+799972795+769607348
980+727177602+668005989+589756758+499034413+415461314+364836481+364105447
966+412283389+493759049+588077028+678776517+756811257+819082473+865978606
953+899866019+923992962+941314457+953836902+962822902+969243976+973930300
939+977293483+979439771+980574000+980942654+980631708+979524712+977481913
926+974522063+970734656+965973801+959909729+952315334+943028523+932025647
912+919543329+906112246+892796440+881352517+873445934+868728584+863936634
899+854461945+836418585+807189022+765607242+713296922+655628538+600028462
885+553051697+521485004+516570193+549621602+618084577+702106031+779318384
872+838095075+877243477+900026387+909712534+908515149+899727162+890375334
858+889289849+899941653+917346090+934056863+946423559+954254852+958368236
845+960029075+960472053+960054378+958567214+956158036+953347868+950462067
831+947388388+943832432+939820261+935617179+931293096+926589535+921161835
818+914955735+908007432+900014804+890506470+879527794+868137924+858413444
804+852825720+852661766+856770117+862268211+866580918+868645435+868554082
791+866937713+864549426+861676379+858208192+854373005+850482454+846373414
777+841668060+836194304+830329556+824794989+820233801+816838283+813974199
764+810526695+805496882+798435370+790285132+783865645+781929367+784177280
750+787672426+790055404+790867105+790409649+789018871+787085558+784868256
737+782472592+780008326+777519722+774939765+772318096+769768268+767254913
723+764615110+762128161+759403142+756527131+753974683+751690297+749412875
710+747097739+744793911+742545377+740323387+738085264+735866928+733785105
696+731912465+730174199+728457514+726790057+725249184+723783118+722348835
683+721109739+720130430+719231238+718067775+716004154+713824979+715146122
669+719269020+718180708+712837398+711518186+713924813+715571863+715835098
656+716033456+716705541+717846389+719171255+720216889+721030106+722157717
642+723760227+725517384+727300946+729250600+731359242+733452786+735504824
629+737648974+739903368+742493047+745338239+748100696+750927893+754088720
615+757357033+760488489+763584162+766817726+770250614+773807535+777460084
602+781419994+785649207+789546721+793044073+796849131+801111851+805308522
588+809196590+813102240+817254992+821478207+825729827+830058598+834317458
575+838774951+843373990+847621129+851726308+856100445+860410325+864351965
561+868420258+872907949+877434457+881932352+886559383+890925454+894780980
548+898619821+902853378+907263781+911493063+915545567+919652194+923876167
534+927987759+931819291+935595736+939325022+942642977+945803045+949042194
521+952278448+955315310+958072665+961000385+964046486+966696630+968772454
507+970661987+972610399+974000418+974764339+974968695+974260138+972552278
494+970055676+967347066+964422172+960765969+956646173+953423847+952643034
480+954122131+955961402+956537790+954988230+951356916+946534906+941384576
467+938148529+939372526+945438390+954600961+964429067+973803164+980913076
453+984284050+985163869+984235719+981843709+978359526+973798200+968490810
440+962569181+957037786+953859999+953391511+955613777+961614487+971162672
426+982848940+995790163+1008631206+1018955792+1028261633+1037840361+1045010739
413+1049516908+1052418015+1055015071+1058523041+1063212054+1068804742
401+1072982935+1073741823
##END=
