##TITLE=32
##JCAMP-DX=4.24
##DATA TYPE=INFRARED SPECTRUM
##DATE=16/11/2015
##SAMPLING PROCEDURE=Instrument type and / or accessory
##ORIGIN=Default
##XUNITS=1/CM
##YUNITS=TRANSMITTANCE
##RESOLUTION=4
##FIRSTX=3996.3359
##LASTX=399.24785
##DELTAX=-1.9287336
##MAXY=0.9764601
##MINY=0.053163365
##XFACTOR=1
##YFACTOR=9.0939933e-010
##NPOINTS=1866
##FIRSTY=0.23109405
##XYDATA=(X++(Y..Y))
3996+254117238+254160103+254177554+254267315+254452441+254675467+254868081
3983+255033479+255203530+255377546+255567407+255772507+255954667+256104449
3969+256297030+256568312+256839922+257060113+257210878+257336000+257536364
3956+257771860+257920724+257976288+258090906+258298448+258472366+258696309
3942+258916369+259015487+259141526+259243068+259328978+259539436+259684810
3929+259656758+259722580+259960697+260074348+260082180+260248512+260548813
3915+260709164+260731235+260776099+260788978+260817981+261087330+261395873
3902+261492040+261587340+261604020+261451682+261476097+261784083+261742562
3888+261498054+261788212+262036620+262026018+262238213+262292909+262217092
3875+262347391+262456766+262704928+262796835+262520457+262513444+262663734
3861+262614102+262315636+262020595+262474954+263445349+263435960+262785234
3848+262494470+262667781+262986647+263144671+263334565+263694904+263719187
3834+263501372+263526819+263597343+263594033+263551578+263428095+263762806
3821+264188638+263991567+264110773+264449417+264251543+263920682+264029385
3807+264419415+264246004+264158964+264738182+264876363+264666167+264632412
3794+264542209+264478780+264539407+264608555+264651125+264579995+264447434
3780+264552450+264719847+264675900+264536835+264563789+264844542+264898107
3767+264677031+264473848+264313268+264427263+264700512+264673999+264436833
3753+264573276+265089672+265066765+264503965+264782112+265282401+264722599
3740+264048081+264006658+264258408+264354363+264236615+263833166+263559541
3726+263640765+263718155+263696854+263622987+263421573+263003000+262627227
3713+262621033+262547920+261961393+261158100+260479960+260017473+259401501
3699+258318209+257057066+255800543+254565928+253470478+252605394+251632705
3686+250460323+249646330+249268508+248923621+248696417+248887786+248623648
3672+248008495+247968252+247789680+247193568+246757134+246478511+246053646
3659+245666534+245591012+245285828+244702365+244490334+244344354+243645830
3645+242595997+241717248+241061180+240421777+239724843+238973869+238014125
3632+237007501+236541294+236000287+234738325+233391550+232429462+231791304
3618+230934757+229611545+228301965+227077592+225824986+224632253+223305649
3605+221804471+220352320+218959386+217483524+215981986+214533571+212949465
3591+211219477+209688150+208268721+206554594+204695110+202989423+201391635
3578+199778772+198124831+196414834+194591103+192777384+191137960+189419049
3564+187468395+185548907+183760619+181976329+180112011+178204861+176290878
3551+174327967+172374167+170506129+168641598+166727681+164781008+162823997
3537+160941327+159142814+157343678+155494452+153597674+151646266+149685797
3524+147836767+146078743+144310839+142497169+140651416+138827555+137105268
3510+135470768+133757912+131937221+130146041+128437944+126802371+125213636
3497+123602109+121952993+120345612+118769502+117164808+115581784+114084055
3483+112579068+110951925+109347608+107904583+106488185+104940775+103265950
3470+101617662+100173170+98912953+97675758+96372855+95046194+93779512+92539507
3454+91259504+89974183+88718333+87487577+86272109+85109993+84037810+82971443
3439+81805477+80589329+79497786+78562563+77669926+76823735+76077071+75318568
3424+74448175+73546092+72689930+71850399+70972051+70099430+69281479+68487235
3408+67766124+67124889+66401079+65573067+64901810+64500450+64102130+63486379
3393+62807801+62365858+62152094+61913092+61532915+61050601+60570254+60218243
3377+60016154+59830254+59501307+59010784+58572478+58459867+58623946+58766780
3362+58791326+58815728+58864578+58867577+58810534+58755667+58843097+59129826
3346+59464959+59717746+59900873+60053153+60265201+60643539+61135958+61623749
3331+62038312+62337888+62612230+63035628+63607388+64189830+64731866+65243059
3315+65752876+66324484+66917520+67414494+67857429+68473102+69367094+70346158
3300+71194831+71913099+72605887+73371109+74289839+75338771+76361543+77285042
3285+78213449+79210962+80228179+81215230+82166364+83122995+84132855+85241398
3269+86483927+87811457+89122921+90385932+91670007+93005631+94340977+95707366
3254+97136700+98555777+99968046+101468396+103088394+104764826+106442510
3240+108115942+109769974+111395192+113067797+114894362+116841870+118809156
3227+120777654+122757925+124739614+126734592+128781184+130858328+132931441
3213+135056750+137258286+139448033+141605180+143818005+146086428+148335974
3200+150574722+152844521+155137882+157442484+159759195+162086131+164418753
3186+166728123+169015340+171358416+173777128+176195070+178573867+180939293
3173+183276617+185567947+187871238+190191144+192484768+194804871+197177245
3159+199486943+201653561+203726665+205811912+208002994+210273677+212520094
3146+214695216+216768730+218747535+220741120+222805704+224859211+226866921
3132+228846414+230780830+232694583+234606321+236460333+238188403+239803560
3119+241417668+243118440+244887950+246636568+248287790+249849005+251386313
3105+252920868+254405512+255810227+257179647+258566305+259921502+261186873
3092+262391256+263574845+264743131+265853804+266896820+267916176+268898860
3078+269858064+270858461+271828594+272656450+273368573+274046499+274735519
3065+275402073+275964431+276439224+276897794+277307503+277593368+277776462
3051+277928554+278052660+278075141+277952379+277729763+277442161+277067550
3038+276571784+275923958+275105557+274137964+273049117+271822761+270412573
3024+268785799+266940767+264861763+262510069+259873984+256954688+253727930
3011+250145389+246143129+241646888+236594335+230961908+224678723+217614463
2997+209705666+200824951+190616288+178832057+165702181+151618836+136719950
2984+121234578+105966497+92195497+81166270+73611880+69669550+68938968+70523156
2968+73411016+77099343+81871020+88426618+97024212+106922046+116627889+124589627
2953+129878609+132287654+131913077+129014468+124121995+118203736+112746194
2939+109203790+108182460+109253644+111486812+114222515+117389833+121136583
2926+125473326+130272792+135330212+140374891+145065548+149037250+151958283
2912+153659251+154235127+153915540+152973001+151650985+150175074+148910605
2899+148021139+147116319+145700151+143601599+140842588+137350071+132961656
2885+127809011+122596305+118621252+117418737+119827372+125393117+132949187
2872+141550877+150721489+160202364+169744685+179061997+187896374+196124561
2858+203825471+211226081+218560345+225935982+233317929+240553223+247389738
2845+253650180+259325619+264497296+269273995+273717195+277887033+281931389
2831+285963652+289970386+293912757+297753700+301430098+304926778+308265073
2818+311419422+314356169+317119063+319823100+322586912+325483808+328519000
2804+331613312+334663481+337638898+340504694+343175403+345630802+347877088
2791+349859170+351548570+353023318+354376057+355625632+356760310+357774291
2777+358671966+359463790+360146255+360707564+361165283+361566044+361914339
2764+362203875+362478237+362753255+363021063+363293296+363560383+363805218
2750+364012367+364197165+364426303+364715806+365037261+365404333+365884206
2737+366584302+367541981+368670892+369853842+370984096+371995980+372925378
2723+373919139+375144201+376657127+378385525+380206929+381991301+383621778
2710+385038061+386241920+387327867+388439802+389619213+390844078+392079627
2696+393259235+394378576+395435455+396355022+397146812+397884170+398537534
2683+399061254+399499769+399939758+400490121+401244159+402220978+403347725
2669+404530545+405715756+406821956+407795104+408690944+409576363+410463715
2656+411322720+412132764+412906268+413648607+414374986+415112409+415853141
2642+416562414+417207519+417802911+418383358+418927692+419434895+419943049
2629+420426789+420844002+421249483+421725357+422228300+422684183+423126499
2615+423541353+423853894+424110069+424364408+424589810+424806658+425047790
2602+425284793+425477981+425623421+425755129+425913776+426114370+426317258
2588+426484490+426626587+426768717+426930935+427119502+427355194+427633457
2575+427906672+428192898+428528609+428870611+429164342+429396658+429595614
2561+429800173+429991198+430114418+430152630+430140570+430145682+430195462
2548+430266478+430365448+430552605+430869308+431295566+431807981+432405437
2534+433069222+433760110+434459714+435167544+435872556+436546206+437163259
2521+437757307+438361023+438965557+439592114+440234631+440857846+441480273
2507+442150875+442888724+443654429+444419806+445176039+445897011+446611330
2494+447338758+448040886+448753042+449521794+450264788+450920643+451566797
2480+452263485+452979017+453698350+454449963+455241000+456044588+456833069
2467+457594054+458341112+459120318+459954646+460807064+461636673+462411062
2453+463098443+463724246+464347395+464976279+465574489+466118429+466613180
2440+467071160+467528453+468008587+468448544+468768360+469015260+469293686
2426+469556087+469719322+469839396+469966517+470098225+470261066+470479291
2413+470764075+471155759+471685575+472315147+472965431+473594282+474190755
2399+474723192+475232461+475780202+476363304+476927694+477395834+477693956
2386+477837560+477929058+478055490+478218790+478395035+478587240+478752768
2372+478765451+478631842+478420499+477980182+477507650+477277398+477389968
2359+478093866+479263085+480184290+479902685+478339291+477553563+479581132
2345+483110517+485000315+484869524+484481740+484535321+484936083+485332650
2332+485729053+486296360+486754865+486896110+487168244+487939945+488811174
2318+489321196+489654023+490178169+490871023+491543788+492168772+492822726
2305+493546384+494341420+495112302+495744529+496301709+496877077+497433011
2291+497941657+498414155+498835858+499168554+499418305+499645870+499897620
2278+500143537+500306673+500363663+500366907+500356649+500305690+500209997
2264+500120531+500084089+500128724+500272296+500537974+500959316+501545073
2251+502254083+503003598+503669973+504213880+504688280+505150226+505616793
2237+506091880+506562347+507038680+507539001+508022118+508460403+508905177
2224+509364927+509771064+510122275+510481352+510848130+511185545+511490352
2210+511756947+512009189+512275457+512533532+512801733+513147112+513614301
2197+514192717+514824092+515464871+516080811+516638318+517153485+517657248
2183+518167401+518710849+519286349+519857719+520404543+520927083+521418557
2170+521885648+522365389+522854929+523333654+523812739+524274161+524710939
2156+525158597+525600716+525995383+526373598+526763840+527117018+527412354
2143+527693926+527985363+528303311+528699026+529187714+529744402+530381479
2129+531094585+531838431+532581983+533314621+534050831+534786517+535505555
2116+536212107+536876843+537493012+538118160+538756842+539377205+539975546
2102+540520601+541024494+541571384+542152356+542709372+543242334+543786274
2089+544324611+544845316+545357796+545830557+546231679+546579187+546906672
2075+547204630+547455823+547689779+547920817+548162834+548501658+548952593
2062+549491323+550100871+550748042+551438274+552176024+552935339+553672892
2048+554357488+554967430+555489741+555939168+556296574+556582799+556931160
2035+557392713+557902505+558424554+559012670+559686713+560401065+561129508
2021+561837371+562554869+563314773+563981148+564554582+565171734+565839223
2008+566459979+566940474+567337336+567750256+568179234+568561087+568846067
1994+569179681+569645035+569946205+570109996+570314359+570588721+570938524
1981+571246968+571474009+571700263+572001957+572359034+572658238+572952591
1967+573313797+573598122+573876155+574227989+574520573+574669748+574717005
1954+574704748+574613644+574390208+573984235+573353189+572681243+571942182
1940+570979095+570093217+569282255+568386546+567495753+566754922+566363369
1927+566543219+567605406+569388959+571386313+573840041+576268994+578178389
1913+580046886+581915710+583557821+584916918+586121071+587241592+588251805
1900+589141418+589984234+590861197+591567029+592204630+593057998+593663614
1886+594069718+594695718+595378805+596009328+596579748+597130504+597645540
1873+598031719+598689442+599540975+599953567+600332995+601030961+601726633
1859+602327530+602937013+603516674+604022534+604493525+604942625+605280629
1846+605992032+606630747+606400102+606503004+607341756+608105527+608593101
1832+609307321+610259790+610578656+610866586+611588738+612142051+612759268
1819+613525792+614122560+614532268+615074439+615718266+616153995+616510024
1805+616927991+617489300+618181695+618651441+618811890+619134361+620005163
1792+620612943+620334647+620303187+620953307+621479026+621799006+622177975
1778+622315550+622397544+623037767+623785611+623592456+623320781+623375378
1765+623638467+624389130+624796413+624877621+625366833+625722206+626268047
1751+627278587+627809222+627942668+628238987+628747993+629465294+629936023
1738+629751454+630516929+631634239+631077124+630567922+630966881+631449277
1724+631684838+631496337+631585540+632267711+632030773+630869484+630120788
1711+629997961+630096341+630137633+629520153+628825923+629130304+628194942
1697+626560303+625623695+624063775+622819640+621885392+620750058+620287981
1684+619030148+615998986+613670773+612704802+612135562+610550735+608714486
1670+608011735+607056841+605614112+605196997+605276369+604663805+603814829
1657+603684988+605330114+606440345+604234369+603088810+604453872+605132634
1643+604869413+605276304+606392958+608445236+610653048+611323551+611886696
1630+613787963+616007573+617996406+620215556+621848426+623083516+625631626
1616+628374202+629647962+631011254+633100761+635011663+636476939+637846392
1603+639245012+640473744+641523806+642564496+643581656+644425455+645126174
1589+645779177+646389578+646942235+647357187+647483357+647619949+648611612
1576+649234335+648158842+647781709+648590901+648409609+647603170+646901009
1562+646800532+648259254+648283964+645560788+643917104+643481310+643088315
1549+642375143+641506962+640856645+640429765+640283407+638771923+635789395
1535+634358266+633928239+632248310+630315713+628884322+627142258+625316168
1522+623535827+620660723+617706706+615237968+612538650+609643687+606759735
1508+604364143+600812441+594940324+589363215+584733660+579256635+571774326
1495+562410085+552338767+541253960+528190151+514664101+502578454+492131871
1481+482605444+473811262+466045709+458525320+449431902+437746394+425733533
1468+416340158+409084234+401318518+392219725+384330919+381666798+386485281
1454+396906172+409713019+422385996+433424464+441899518+447614169+451159776
1441+453235027+455136721+457331031+458607609+459168361+459769783+460009899
1427+459905227+460138429+460663329+461664856+463449360+465100712+466663189
1414+468821909+471351307+473917474+476627115+479715724+482727288+485284574
1400+487459942+488022923+485848931+481428982+475595306+468467060+459045731
1387+447476725+437299818+432781292+435964021+446325039+461305813+478300326
1373+495411014+511800468+527640115+541750677+552412044+559329505+562657051
1360+563375073+563120177+562592098+561671155+560219708+558290716+556322004
1346+555338468+556021097+557896868+559968875+561636614+563253032+565429449
1333+568296949+571793793+575895072+580527839+585602693+591063594+596850702
1319+602813661+608735525+614615180+620520724+626303571+631793770+636822285
1306+641222243+645021108+648387849+651438673+654223459+656825838+659288809
1292+661538371+663466708+664916254+665538190+664914091+662759369+659138846
1279+654703298+650781409+649106658+651007925+656527946+664439626+673209066
1265+681698179+689256648+695650946+700807334+704732042+707496837+708998031
1252+709073733+707943511+705906767+702562376+697356895+691155491+685768522
1238+681946914+679975581+680993462+685849140+694073591+704287661+714983537
1225+725058525+733886560+741351828+747701752+753157082+757801909+761734416
1211+765101878+768059106+770714248+773036957+775018252+776819174+778568120
1198+780187553+781565199+782738809+783814761+784839720+785697152+786283892
1184+786706316+787060641+787258449+787114124+786593975+785847704+784842408
1171+783334266+781227718+778645395+775703372+772398831+768794235+765190164
1157+761895324+758915089+756051324+753118805+749856278+745890278+741044170
1144+735458999+729366330+723000938+716664122+710679402+705169999+699938695
1130+694796922+689882124+685282915+680618491+675321513+668919547+660878420
1117+650371373+636294009+617554909+593240142+562679663+525786071+483981451
1103+440852537+400665711+365862642+336826297+313878197+298438394+292292766
1090+296298091+309398309+328561112+349695182+368305097+379687371+379454562
1076+364800946+337444924+306354400+284175708+277506032+280801659+280167401
1063+263811914+230814125+190435865+153820274+127563398+113881331+113825407
1049+128820018+160353850+208846973+272315381+345836050+422295809+494633905
1036+557687131+608598803+646477602+671063913+682047391+677274297+650614996
1022+599294533+536440393+490133567+483862130+517908113+573405164+631641252
1009+684529303+731055895+771411559+805122290+831449879+850175674+862058925
995+868441555+870365435+868150217+861736126+851118246+836113516+815610919
982+787152663+746970163+690510221+615297219+527283923+445409929+395473404
968+394957090+443047993+523589697+615638959+702988208+777264472+835910923
955+879640276+910936408+932928663+948476088+959613788+967506134+973006819
941+977016011+979954560+981766821+982601575+982749767+982311416+981212983
928+979325676+976584411+973048242+968692984+963212289+956264744+947762064
914+937792928+926509591+914338083+902298840+892030435+885025016+880917313
901+876633824+867875920+851131814+824037898+785298127+736078117+681270381
887+628065954+583037935+552918560+548697762+581299148+647780463+728407110
874+801599885+856655767+892885573+913644049+922157151+920552793+911975590
860+903014962+901872353+911725085+927797312+943157546+954601266+961986899
847+965836101+967147352+967212108+966645949+965341777+963233328+960597653
833+957795105+954921705+951749103+948210771+944563834+940801214+936486789
820+931402760+925698498+919341626+912022126+903385345+893402772+882961792
806+874077915+869118613+869195888+873097655+878039457+881746496+883435864
793+883218786+881691702+879552514+877012072+873939422+870415641+866653742
779+862695608+858377316+853437677+847999716+842801118+838720681+835863077
766+833271184+829827758+824865901+818202550+810691796+804739061+802882231
752+805107608+808649218+811007450+811782101+811422533+810203042+808365286
739+806160948+803837781+801527788+799242242+796951781+794661648+792415756
725+790090688+787435808+784904936+782239700+779572433+777304846+775160808
712+772825974+770520176+768430800+766449832+764444351+762398037+760316592
698+758268509+756428458+754820888+753249760+751648744+750105930+748664446
685+747387540+746372608+745520289+744642604+743522083+741571003+739507648
671+741107681+745797535+744861649+738870702+736940792+739276085+741180958
658+741607969+741678625+742063820+742984828+744232896+745294821+746139014
644+747222962+748784127+750701387+752645782+754342425+755929218+757731647
631+759900854+762360481+764834594+767305167+769778034+772181950+774648131
617+777470539+780571110+783699602+786753441+789803348+793055847+796523065
604+800063298+803712397+807374278+810741674+814003743+817850716+822308877
590+826466720+830089668+833738964+837689298+841841636+845939704+849953222
577+853954614+857868769+861867998+865985992+870207477+874386818+878230121
563+881857591+885675070+889877024+894219567+898419423+902517885+906551000
550+910357861+914155087+918197575+922278471+926282026+930306752+934570840
536+938750116+942238373+945372699+948786434+952582742+956234201+959014268
523+961507584+964472023+967531171+970343091+973165171+976092446+978570557
509+980477134+982040462+983340112+984720903+985576238+985607961+985304235
496+984090840+981686793+978701446+975298198+971403116+967632893+964963136
482+964073457+965160682+967064309+967885299+966994702+964143719+959309932
469+954234030+951046286+951931771+957540274+966201961+976203017+984815416
455+990506701+994447859+996209717+995470459+992962395+989490589+985806097
442+981593132+976552623+971861326+968865034+968403678+970921179+976377099
428+984517196+993879537+1002659529+1011441291+1022773195+1034911276+1044654420
415+1052097600+1056677867+1059625134+1063561376+1067996073+1070948517
403+1072510207+1073495316+1073741823
##END=
