##TITLE=32
##JCAMP-DX=4.24
##DATA TYPE=INFRARED SPECTRUM
##DATE=16/11/2015
##SAMPLING PROCEDURE=Instrument type and / or accessory
##ORIGIN=Default
##XUNITS=1/CM
##YUNITS=TRANSMITTANCE
##RESOLUTION=4
##FIRSTX=3996.3359
##LASTX=399.24785
##DELTAX=-1.9287336
##MAXY=1.0054631
##MINY=0.060037676
##XFACTOR=1
##YFACTOR=9.3641051e-010
##NPOINTS=1866
##FIRSTY=0.24001403
##XYDATA=(X++(Y..Y))
3996+256312835+256415045+256619703+256824870+256974835+257064855+257126995
3983+257225195+257392075+257550776+257659176+257837609+258100047+258361483
3969+258642381+258912712+259059000+259104241+259242749+259529852+259829479
3956+260051244+260167696+260226733+260304564+260458841+260608265+260641093
3942+260753662+260964526+261097353+261166988+261154783+261235510+261557256
3929+261818469+261878716+262012577+262263955+262293220+262177595+262285963
3915+262601647+262793860+262886013+263014050+262993172+262871580+262978134
3902+263234796+263427614+263627721+263631031+263384172+263373876+263788427
3888+263956405+263880898+264105734+264122347+264087147+264411519+264487695
3875+264402178+264442725+264391341+264539253+264611753+264419141+264558349
3861+264923347+265173484+264954871+264333099+264454962+265361959+265503855
3848+265019175+264771075+264937287+265177065+265174646+265247782+265537893
3834+265578520+265504699+265663400+265828450+265957998+265980881+265796051
3821+266006740+266221837+265937455+266119723+266484785+266316727+266024786
3807+266182166+266600536+266426559+266259615+266564970+266518186+266382957
3794+266412921+266327548+266299779+266390977+266491882+266586835+266559958
3780+266459769+266557635+266682409+266636643+266527161+266500698+266635465
3767+266674611+266669217+266634304+266467742+266593678+266944195+266957037
3753+266656105+266764568+267301427+267132971+266339928+266570254+267233287
3740+266874989+266165505+265936739+266107963+266277230+266305333+266049085
3726+265808559+265800093+265732956+265601769+265457501+265225425+264786654
3713+264383894+264328437+264231526+263757031+262944955+261999878+261203413
3699+260446333+259492600+258443181+257308436+256027721+254850297+254113777
3686+253559366+252884222+252406194+252120697+251639820+251325999+251579383
3672+251304580+250623548+250528786+250371358+249887951+249524465+249245588
3659+248849655+248632299+248753811+248464432+247746769+247441811+247340890
3645+246812306+245923466+245119744+244497321+243868914+243212468+242526185
3632+241561615+240516206+240095672+239667881+238600575+237323122+236190940
3618+235327131+234410490+233240689+232062422+230823940+229550863+228400667
3605+227131059+225716976+224405071+223116654+221670745+220215066+218847831
3591+217293109+215503621+213912521+212536789+210989387+209322780+207737663
3578+206185487+204611812+203055530+201379948+199402448+197434272+195876256
3564+194389721+192632839+190813164+189069776+187334520+185520144+183645904
3551+181775036+179840931+177898105+176057281+174236588+172392280+170552347
3537+168725893+166959257+165197935+163344222+161442229+159514154+157540982
3524+155653104+153940190+152229965+150392754+148504573+146667394+144923752
3510+143256747+141615298+139859641+137976728+136219241+134620806+132988770
3497+131326913+129727586+128144172+126495627+124830873+123232502+121686635
3483+120103818+118442112+116800345+115278690+113833561+112352150+110756372
3470+109078546+107510560+106198425+104979532+103650306+102288513+101037651
3456+99835896+98555396+97189195+95795099+94452689+93220453+92066613+90938337
3441+89778370+88500678+87198774+86070291+85075168+84092162+83174368+82377124
3425+81599977+80734497+79826753+78976517+78161689+77257413+76269777+75386936
3410+74677070+74015755+73302961+72479667+71575566+70851887+70435824+70042024
3395+69414070+68699407+68206428+67929103+67645222+67286334+66884068+66465479
3379+66075446+65723576+65385260+65024316+64607286+64238740+64114697+64216064
3364+64329953+64367130+64389437+64432131+64503438+64571788+64568021+64590570
3348+64782370+65050362+65264842+65437177+65624461+65935065+66431119+66989476
3333+67465714+67842687+68179439+68562562+69063386+69661924+70278953+70900637
3317+71540851+72180032+72808534+73392488+73881838+74356899+75021397+75952263
3302+76984830+77911082+78683001+79410387+80216320+81140718+82162997+83214230
3287+84249614+85286414+86303847+87286622+88283926+89329573+90421727+91546224
3271+92755553+94130808+95586065+96983177+98326462+99660232+100995290+102351656
3256+103766025+105257676+106798849+108334451+109864604+111464870+113176216
3242+114981577+116847806+118691382+120444350+122172111+124011756+125992607
3229+128038772+130098170+132147772+134203836+136296754+138427768+140589478
3215+142770459+144972382+147188006+149397121+151600476+153835927+156125945
3202+158437779+160780564+163193748+165625790+168004777+170363475+172751040
3188+175163683+177569006+179934324+182284827+184652437+187027844+189409536
3175+191804516+194197316+196558194+198903653+201257084+203606170+205959299
3161+208295082+210559097+212757360+214921680+217086716+219307560+221561056
3148+223756455+225865652+227906343+229894840+231875157+233898440+235970305
3134+238039242+240025415+241894644+243714350+245537844+247298116+248949987
3121+250575459+252250007+253966008+255693451+257366582+258918345+260398021
3107+261901265+263420024+264885012+266283962+267620548+268890315+270147033
3094+271393058+272580809+273752679+274899215+275933660+276874631+277791574
3080+278717142+279670971+280623336+281509184+282279440+282931844+283541474
3067+284179269+284813564+285386816+285882827+286288896+286602638+286845917
3053+287013959+287083690+287069432+286982228+286806007+286555504+286259648
3040+285875857+285331598+284620825+283778005+282806927+281691230+280414238
3026+278961725+277322712+275493759+273462934+271172216+268568775+265650112
3013+262405693+258777912+254725905+250228061+245214809+239586581+233237284
2999+226093607+218148038+209268596+199061797+187228794+174017433+159884690
2986+144926886+129233668+113545917+99217944+87657834+79733383+75589764+74826319
2970+76541580+79616207+83501819+88551242+95452260+104373634+114555402+124529512
2955+132705382+138111591+140596830+140294052+137373050+132320262+126192387
2941+120587169+116999465+115985509+117105303+119471958+122370260+125643259
2928+129487880+133986161+138970165+144200789+149440389+154315595+158370355
2914+161307398+163041922+163612071+163217793+162224929+160883696+159331600
2901+157967389+157076464+156226356+154800036+152639535+149821682+146284430
2887+141829790+136535132+131144199+127048900+125828551+128337309+134105032
2874+141923645+150850159+160397600+170227323+180035834+189537350+198497599
2860+206851449+214709607+222256235+229697788+237182212+244679589+251984625
2847+258849139+265117852+270767229+275884043+280582376+284967062+289157290
2833+293224128+297202967+301159337+305105427+308924276+312502297+315872621
2820+319103705+322169039+325040551+327779476+330456181+333135304+335901727
2806+338781483+341741790+344716706+347591815+350288029+352818015+355184956
2793+357314411+359159053+360780086+362258537+363594725+364767390+365813483
2779+366775365+367646000+368381789+368978401+369495194+369951644+370325187
2766+370639248+370933926+371215237+371490915+371778973+372068687+372321131
2752+372507473+372677584+372893206+373114398+373328778+373614132+373999641
2739+374493901+375184942+376131769+377244793+378370992+379412916+380373874
2725+381311790+382267370+383348663+384709675+386344838+388116376+389879607
2712+391495961+392875146+394006533+394994639+396009829+397119543+398301374
2698+399515605+400685820+401765457+402747707+403589604+404282554+404903959
2685+405491342+406016155+406474006+406903245+407415550+408133357+409056315
2671+410108805+411223769+412335265+413377921+414331814+415230520+416082187
2658+416863455+417599784+418348176+419111939+419847282+420552263+421253074
2644+421934599+422583597+423198033+423756836+424266277+424773394+425304413
2631+425813886+426264289+426684362+427096129+427507545+427923290+428314465
2617+428663979+428989974+429298370+429598076+429898610+430159839+430365723
2604+430563299+430765777+430944035+431092950+431237631+431401218+431583740
2590+431758434+431920015+432095855+432266761+432405778+432560739+432783872
2577+433069161+433376888+433679937+433983781+434267320+434515341+434776315
2563+435048269+435267106+435424454+435563312+435692748+435768622+435794687
2550+435832115+435900191+435984562+436138664+436476658+436984253+437522051
2536+438056793+438642076+439274079+439926960+440590026+441254078+441909824
2523+442526519+443090255+443660420+444279979+444893969+445472918+446075228
2509+446715315+447357248+447984382+448606487+449284670+450056454+450860032
2496+451624336+452340138+453032897+453719355+454391809+455038516+455672811
2482+456316208+456984016+457686546+458395250+459070377+459735225+460458092
2469+461239646+461997395+462711414+463440105+464201004+464973233+465752019
2455+466519761+467222736+467834880+468399603+468959520+469490316+469979325
2442+470450797+470892734+471304246+471700800+472083573+472445213+472737059
2428+472956723+473165216+473359069+473514062+473663676+473823762+473980856
2415+474173722+474471933+474911897+475452591+476018746+476600974+477209139
2401+477805338+478352938+478868840+479377358+479880243+480373261+480825351
2388+481161785+481352328+481480365+481658591+481886944+482123507+482396830
2374+482679924+482840486+482934214+483079182+483090385+483007033+482863815
2361+482743480+483240382+484470303+485438994+484868320+482822314+481691818
2347+483677004+487385385+489322992+488879399+488166303+488213724+488762183
2334+489273343+489726229+490284809+490779705+491033614+491320941+491946801
2320+492601083+492873801+493006548+493451000+494159577+494826939+495392076
2307+495992189+496660092+497352056+498031448+498656959+499250803+499825806
2293+500321466+500741666+501138602+501517460+501853798+502165281+502476795
2280+502777711+503044573+503243868+503351059+503380975+503375406+503353414
2266+503311021+503268056+503281900+503375374+503528044+503775937+504183630
2253+504733490+505365557+506042181+506692325+507255616+507745865+508194582
2239+508630282+509089755+509575900+510065863+510539531+510980228+511387316
2226+511794340+512238855+512693460+513092528+513440419+513780736+514116343
2212+514438550+514747550+515035640+515293591+515559689+515870535+516225778
2199+516664374+517223432+517853239+518470571+519043982+519584326+520113531
2185+520644296+521173373+521717313+522272934+522796824+523297544+523813732
2172+524300322+524719345+525153453+525657229+526184906+526686518+527134057
2158+527546142+527975126+528424193+528845380+529223124+529589952+529968906
2145+530325518+530625320+530928591+531297010+531710305+532157493+532681733
2131+533302439+533973333+534658995+535345676+536028665+536742780+537476372
2118+538165089+538806959+539469197+540165362+540826772+541422812+541980406
2104+542519922+543039070+543552680+544093597+544652719+545220369+545774844
2091+546284890+546794744+547326304+547797458+548177526+548530796+548871781
2077+549167128+549447070+549749991+550054504+550331137+550565186+550825460
2064+551283183+551886416+552465206+553050361+553727812+554468597+555179911
2050+555852334+556521446+557158924+557680108+558051201+558386521+558755768
2037+559132271+559547475+559998005+560478134+561034773+561682753+562401196
2023+563160250+563880857+564504267+565119912+565813658+566451199+566996444
2010+567566195+568115451+568570564+568991306+569446547+569896314+570292167
1996+570646265+570906730+571137787+571531858+571880991+572114277+572358319
1983+572597461+572840740+573097386+573396679+573743393+574100163+574407731
1969+574607790+574836111+575236102+575595801+575864477+576150403+576361155
1956+576437602+576445367+576385980+576216346+575911961+575410700+574617338
1942+573857075+573325070+572637753+571801171+570957460+570145321+569501224
1929+569240886+569577670+570543021+572221467+574359355+576336968+578510947
1915+580745268+582485267+583991406+585421482+586770910+587971073+589017389
1902+589975737+590848282+591603898+592310629+593156504+593883540+594348011
1888+595032464+595733211+596241793+596828285+597421970+597945000+598482671
1875+599166169+599868317+600168946+600470404+601301257+602054708+602511604
1861+602989951+603575424+604237090+604881442+605432097+605936541+606496108
1848+607030278+607013665+607108507+607953236+608517768+608844177+609546197
1834+610405948+610926433+611326551+612124114+612572990+612869927+613636046
1821+614252773+614664094+615261534+615996081+616489640+616850612+617434558
1807+618109909+618664638+618958712+619212493+619878487+620768282+621245292
1794+621132946+621319829+622140243+622559011+622545007+622831379+623278027
1780+623709143+624357123+624844063+624786267+624744193+625201343+625422408
1767+625688410+625988976+625959251+626367453+626940896+627349098+628123619
1753+628562501+628665172+629359491+630202247+630768179+631183192+631542636
1740+632257005+633128341+632628034+632017355+632858838+633397527+633408857
1726+633494469+633764546+634356893+634394385+633595740+633288236+633444184
1713+633398354+633225793+632945086+632673037+632871759+632744645+631516793
1699+630951498+630018992+628485227+627959459+627172718+626276175+625326675
1686+623165299+621275145+620627419+619516051+617759630+616008366+615089100
1672+614126168+612451477+611651814+611404398+610385007+609477899+609607240
1659+610194241+610255793+608989558+608653474+610458334+610353626+608872438
1645+609023931+610087433+610924714+611702227+612102345+613000733+615187124
1632+616960158+618057459+619666716+621555660+623278727+625518268+627539609
1618+628485864+630104668+632821283+634798640+636117324+637539570+639029797
1605+640432374+641746093+642995905+644108356+645052956+645912643+646727901
1591+647460984+648127296+648731483+649247830+649804533+650551811+651026211
1578+650597067+650583637+651619641+651578458+650758490+650837737+651212712
1564+651657132+651528809+649822610+649053500+649604856+648817159+647570402
1551+646678443+646204234+645901504+645390567+644433683+642654920+641604976
1537+641400971+639751232+637650580+636626924+635356807+633564868+632047844
1524+630155462+627618283+625586249+623317937+620665738+618362290+616172716
1510+613472078+609105469+604419262+601106099+597280152+591879513+585271135
1497+577796196+569970469+560747638+548987310+535921538+523401616+512147483
1483+501911022+492530938+484229952+476769620+469079632+459561996+448479469
1470+437817429+428486421+420456625+413072199+405207422+397213143+393185706
1456+398034289+409849485+422927797+434874912+445243038+453648096+459543696
1443+463193548+465493973+466908740+468362525+470432370+471677758+471731830
1429+471694053+471871197+472224753+473008918+473777073+474601529+476497602
1416+478765119+480709281+482806846+485254626+487879231+490610422+493677252
1402+496626102+498573002+499001095+496781668+492196000+486973491+480234086
1389+470287561+458681653+449137601+444823219+447877128+458236406+473217761
1375+489868492+506813137+523276189+538751008+552573924+562994881+569222427
1362+572341515+573433406+573224818+572505611+571578325+570219412+568326713
1348+566444133+565623719+566493909+568357966+570109421+571756360+573666946
1335+575892166+578554103+581857592+585881369+590465350+595471282+600867148
1321+606507120+612236906+618021496+623776551+629466618+635106526+640440649
1308+645226408+649426630+653063401+656275931+659198588+661877330+664343600
1294+666656214+668806197+670663124+672056663+672721065+672183140+670065748
1281+666511214+662249059+658550354+656990109+658768490+664038579+671744003
1267+680317771+688557875+695814933+701857951+706726776+710451897+713008426
1254+714355690+714412277+713319941+711271229+707917073+702822983+696856665
1240+691752009+688173861+686305349+687247020+691891089+699796063+709608250
1227+719880897+729544647+737979844+745105206+751213213+756518883+761039340
1213+764828304+768056556+770915879+773513082+775777002+777676003+779394042
1200+781069178+782611663+783930602+785095884+786194076+787221742+788041010
1186+788577535+788954102+789272108+789482988+789409661+788963459+788242024
1173+787233645+785730242+783622016+781063959+778199734+774971546+771458578
1159+768033704+764948034+762119391+759375533+756542180+753357403+749530629
1146+744912785+739572870+733717498+727616556+721569528+715845917+710511221
1132+705397080+700423547+695693229+691167236+686510627+681270009+674999625
1119+667159831+656907616+643136577+624817711+601119338+571365599+535371519
1105+494430226+451975888+412205669+377650290+348755505+325837446+310402664
1092+304305987+308340681+321417942+340555758+361690408+380275945+391532147
1078+391059338+376124831+348534282+317234270+294820304+287938158+291069817
1065+290283680+273737052+240381216+199345097+161880268+134946880+121032393
1051+121197984+136829460+169429840+219270196+284010464+358451877+435330726
1038+507452810+569735464+619670153+656641804+680464363+690881246+685916433
1024+659660576+609286369+547493837+501870984+495678606+529284835+584037491
1011+641403326+693368967+738920179+778276499+811037935+836508769+854466217
997+865695048+871584728+873192712+870825039+864363061+853746373+838825202
984+818587348+790702693+751535293+696572840+623188659+536925207+456263854
970+406944810+406676611+454606986+534353783+625046859+710798420+783479816
957+840696387+883241621+913583953+934887601+950007049+960820104+968433551
943+973763600+977642124+980394256+981995047+982673262+982774214+982324511
930+981170623+979249789+976532728+973041466+968745638+963350664+956542673
916+948219821+938504195+927690058+916136536+904606757+894719651+888038010
903+884103091+879890839+871351825+855118780+828881382+791377025+743624463
889+690237403+638259795+594240311+564857919+560978059+593288328+658709102
876+737747195+809177889+862506388+897295849+917100932+925126400+923405433
862+914989650+906333261+905293692+914769668+930275676+945171260+956112702
849+962995484+966621435+967995687+968206885+967783789+966593173+964542807
835+961962408+959258269+956474119+953338800+949862432+946366395+942794930
822+938659634+933746252+928263756+922261730+915368826+907066217+897357401
808+887245858+878682528+873911728+874004915+877823923+882670088+886266504
795+887877797+887685249+886248172+884264068+881935668+878949231+875350905
781+871565123+867698822+863504520+858709467+853510542+848600725+844610874
768+841617626+838982486+835708851+830970576+824539661+817280567+811538242
754+809808619+812013533+815484809+817920654+818744378+818249927+816988403
741+815344583+813390777+811231629+808935692+806449244+803891759+801560495
727+799438456+797242963+794826341+792593292+790101115+787448344+785194354
714+783174922+780986812+778694885+776464001+774278564+772120180+770053454
700+768075715+766206184+764562747+763086969+761559633+759929499+758306493
687+756840964+755661742+754782577+753995199+753088217+751918225+749945005
673+747823475+749352848+754157703+753534611+747731562+745774000+747943142
660+749673974+750064099+750190385+750549765+751337017+752462325+753451608
646+754255218+755395485+757068011+758922838+760613570+762148671+763842840
633+765897789+768140449+770288649+772262506+774573083+777192946+779704855
619+782206326+784977681+787940185+790917647+793886388+796915790+800094202
606+803449122+806839559+810150432+813565121+817141741+820781123+824623364
592+828569868+832237065+835680207+839402528+843443682+847317177+850992140
579+854862516+859019963+863391537+867513148+871170861+874860974+878694749
565+882195751+885485936+889326332+893765631+898141215+902208913+906084189
552+909732801+913278168+917035179+921080535+925201191+929081305+932647041
538+936229772+940105813+943997703+947551409+950986085+954475820+957757349
525+960850848+963739643+966388149+968876762+971366393+974083071+976758694
511+979052912+980813406+982374796+984009577+985020503+985528129+985999474
498+985931175+984751126+982464610+979652644+976492373+972860629+969287574
484+966703419+965854680+966738682+968352713+969258103+968203257+965138274
471+960940534+956177309+952829964+953516708+959065848+967766666+976711082
457+985031196+991486299+994858405+996685161+996941934+994586292+990023570
444+984940046+980855608+976766269+971748688+968152335+967962143+970650750
430+976099129+984320519+994061351+1004321777+1014541466+1023335917+1032232020
417+1041655037+1048647111+1053296017+1056649282+1059648385+1063140094
405+1067031411+1071008977+1073553540+1073741823
##END=
