##TITLE=19
##JCAMP-DX=4.24
##DATA TYPE=INFRARED SPECTRUM
##DATE=16/11/2015
##SAMPLING PROCEDURE=Instrument type and / or accessory
##ORIGIN=Default
##XUNITS=1/CM
##YUNITS=TRANSMITTANCE
##RESOLUTION=4
##FIRSTX=3996.3359
##LASTX=399.24785
##DELTAX=-1.9287336
##MAXY=0.82783639
##MINY=0.015640458
##XFACTOR=1
##YFACTOR=7.7098272e-010
##NPOINTS=1866
##FIRSTY=0.0707063
##XYDATA=(X++(Y..Y))
3996+91709319+91686744+91667794+91724897+91883672+92059291+92174135+92218212
3981+92226957+92261940+92332476+92415855+92528515+92630042+92677182+92764986
3965+92916562+92996414+92991447+93020187+93098647+93188201+93308630+93420082
3950+93423909+93385022+93461143+93582849+93597431+93552794+93522170+93537419
3935+93659801+93812053+93852332+93830753+93852573+93901501+93990040+94183122
3919+94417603+94559815+94595058+94571933+94490786+94427209+94484718+94562743
3904+94559554+94594739+94695523+94734999+94734264+94743406+94658443+94534206
3888+94567517+94635395+94651311+94770764+94879143+94888082+94885463+94826911
3873+94761999+94713497+94640536+94689289+94803843+94791039+94704519+94701224
3857+94862299+95005110+94845436+94638535+94720329+94892267+94927926+94862261
3842+94887512+95052153+95128255+95061740+95018804+95009614+95017103+95042528
3827+95034585+95062639+95077472+94939126+94877288+94905922+94791793+94715208
3811+94841667+95013044+95026284+94995089+95065257+95011508+94876795+94863073
3796+94821953+94727094+94685211+94686999+94725925+94762782+94746006+94702229
3780+94626891+94535085+94518183+94561245+94552238+94431586+94280561+94194544
3765+94141403+94111658+94064016+93929806+93870142+94034001+94229846+94169515
3749+93982019+94025342+94082213+93824887+93570866+93511888+93408544+93214399
3734+93115520+93132334+93144607+93062118+92882082+92741030+92666822+92513314
3719+92300866+92164878+92100894+91945192+91629149+91318256+91128364+91002184
3703+90769694+90377578+89979538+89582764+89089391+88595051+88188072+87706393
3688+87117648+86690723+86480450+86324728+86199496+86076370+85753456+85390727
3672+85287016+85109029+84692541+84356571+84079705+83685463+83275305+82957696
3657+82627235+82305925+82104532+81804589+81212027+80547109+80058292+79703179
3641+79308985+78825150+78321321+77831553+77392268+77000983+76404092+75581084
3626+75005994+74751413+74507993+74056097+73393541+72750848+72205064+71664808
3611+71088008+70399403+69649810+69003190+68427492+67818502+67215706+66663510
3595+66097529+65535775+65046572+64421347+63483457+62560149+61921419+61433458
3580+60964727+60447306+59800628+59070411+58449602+57988782+57399530+56548415
3564+55754036+55148911+54581017+53995572+53419584+52832908+52179334+51481264
3549+50814321+50156978+49470785+48819646+48270320+47758572+47175181+46546874
3533+45956887+45401261+44836077+44226947+43576572+42951260+42423933+41959006
3518+41429403+40824197+40265519+39789951+39340273+38891979+38396889+37816999
3503+37244866+36741999+36275146+35837726+35413964+35000568+34630002+34255252
3487+33805745+33343538+32907826+32447479+32040295+31727341+31367026+30914012
3472+30435842+29966122+29566009+29258878+28940284+28565751+28207501+27868830
3456+27515362+27207760+26985436+26759415+26448448+26085826+25758701+25490269
3441+25196996+24815667+24422137+24119116+23885046+23629558+23361771+23187664
3425+23102115+22997353+22832393+22609711+22369828+22171932+21992512+21804702
3410+21637389+21478628+21331742+21216823+21051087+20819899+20650162+20570753
3395+20481873+20366872+20348953+20424106+20468740+20468474+20450737+20425944
3379+20411572+20391116+20364606+20354606+20329560+20286392+20304848+20413000
3364+20536077+20611297+20693997+20840589+20982315+21082832+21226182+21454488
3348+21679839+21811071+21873264+21934433+22035006+22240402+22558105+22873983
3333+23140381+23380405+23594406+23838737+24159641+24509333+24811688+25033393
3317+25232686+25507096+25877297+26255557+26555827+26810413+27111033+27499482
3302+27955635+28410341+28781334+29091209+29478530+29983845+30514312+31042327
3287+31574497+32056375+32483022+32927245+33412868+33905289+34400476+34917530
3271+35497241+36161628+36842589+37497467+38151166+38798821+39431417+40089117
3256+40811083+41563923+42280663+42948747+43634197+44407968+45264161+46176689
3240+47107149+47958481+48708885+49480168+50369102+51361153+52406249+53467275
3225+54537341+55601436+56633137+57687785+58814457+59945096+61023497+62085383
3209+63184847+64330315+65493202+66660534+67837365+69018140+70205220+71415043
3194+72638720+73851897+75064663+76300260+77557194+78821584+80077528+81324861
3179+82570083+83798529+85003859+86207430+87445307+88717365+89948778+91112873
3163+92300460+93540164+94741300+95868943+96962473+98039111+99105370+100185197
3148+101295406+102404321+103469720+104493410+105498130+106527870+107603107
3134+108662504+109654961+110581879+111454786+112336902+113251450+114108595
3121+114916803+115762777+116602759+117365248+118067339+118763824+119479308
3107+120171745+120817843+121453012+122074401+122644021+123165013+123671847
3094+124190896+124702437+125145655+125513767+125855757+126184430+126496956
3080+126813627+127163532+127539413+127844382+128002519+128094344+128242924
3067+128449110+128626246+128711587+128701855+128630634+128533397+128432421
3053+128310396+128115846+127853069+127564404+127244408+126869822+126436635
3040+125955264+125426590+124819629+124115935+123321314+122430326+121460734
3026+120434531+119314996+118078191+116735713+115257315+113613396+111819495
3013+109859572+107688901+105313311+102725486+99865124+96696614+93188133
2999+89280462+84916798+80036703+74609549+68638147+62192240+55471028+48726546
2984+42243733+36451376+31864453+28907606+27859826+28897159+32093854+37336488
2968+44267356+52317101+60801337+69058834+76521323+82679226+87130269+89761427
2953+90732063+90278795+88696134+86383600+83731617+81034403+78614016+76744758
2937+75404846+74449957+73801597+73427175+73484244+74206464+75579132+77363769
2922+79280303+81064274+82442483+83178638+83212181+82680453+81761576+80537290
2907+79040226+77425801+75993276+74971021+74389211+74139195+74071423+74088132
2891+74141558+74169148+74142152+74188765+74501286+75220037+76605682+78917888
2876+82093351+85975007+90527201+95643874+101106451+106644357+111967931
2862+116917208+121494576+125720609+129582155+133102039+136350304+139371026
2849+142172797+144758787+147128752+149306506+151338067+153250513+155073066
2835+156894556+158793067+160746148+162699549+164605974+166425502+168137164
2822+169686282+171042569+172306452+173597374+174882632+176107010+177400057
2808+178921633+180622839+182337439+184014949+185656452+187136667+188383213
2795+189505870+190555294+191441151+192132302+192711353+193241216+193705231
2781+194084552+194392748+194611613+194731540+194804347+194866426+194889310
2768+194827868+194727346+194664106+194601505+194484998+194327731+194164046
2754+194053164+194032445+194088244+194227576+194457534+194749089+195080246
2741+195438752+195814749+196200101+196596913+197023761+197468660+197910970
2727+198375951+198906916+199572535+200447838+201480893+202518083+203457689
2714+204261906+204929304+205481084+205951844+206433292+207031226+207761747
2700+208573212+209425767+210284043+211120150+211948700+212767297+213526732
2687+214206267+214838817+215456002+216053299+216621817+217198742+217822112
2673+218436939+218956558+219382884+219760833+220096301+220385189+220651096
2660+220918337+221183974+221428622+221620718+221757092+221919250+222172614
2646+222447200+222661059+222845037+223023913+223158761+223253214+223354568
2633+223482264+223615856+223739049+223874516+224050396+224273493+224525852
2619+224788532+225088823+225427827+225721257+225928332+226095264+226240722
2606+226364747+226487360+226588984+226642483+226690802+226797567+226959260
2592+227122249+227273970+227434755+227582669+227699929+227823779+227966145
2579+228085203+228147070+228156734+228159981+228194558+228241311+228270360
2565+228262494+228192026+228077878+227961681+227834313+227667110+227463437
2552+227277062+227187421+227211832+227298052+227446023+227701900+228040885
2538+228399178+228752117+229125872+229561050+230039115+230485348+230859026
2525+231187497+231486435+231754353+232039839+232362821+232655671+232871250
2511+233072314+233360931+233724829+234070153+234396305+234772998+235229165
2498+235740107+236269235+236827336+237406214+237963831+238511495+239037821
2484+239512330+240003461+240576347+241151379+241653893+242144309+242671177
2471+243219439+243772573+244318343+244860285+245400643+245937967+246486095
2457+247039692+247545415+247964106+248304985+248580847+248825997+249072925
2444+249275032+249404043+249540689+249711891+249846933+249919372+249938178
2430+249908645+249834273+249740168+249662490+249573661+249472076+249447298
2417+249546274+249747435+250049330+250447148+250901151+251365088+251806779
2403+252256066+252771105+253318614+253822018+254277315+254720630+255133871
2390+255459713+255675563+255808632+255891006+255936097+255927709+255826143
2376+255605945+255298541+254974999+254642856+254198285+253608371+253224547
2363+253358892+253788156+254409090+255381340+256408500+256782313+256738439
2349+257320042+258496043+259095639+258790516+258519120+258829287+259515104
2336+260181767+260596052+260791820+260935539+261222069+261726323+262362971
2322+263009978+263573374+264012128+264380065+264727863+265037258+265340854
2309+265680380+266031696+266381330+266724799+267027699+267307117+267625769
2295+267952636+268215760+268417674+268589264+268737796+268883757+269054013
2282+269213465+269314605+269358575+269358943+269317388+269226859+269090542
2268+268937487+268790057+268647169+268521560+268462340+268560389+268897866
2255+269445684+270115015+270875996+271680425+272291638+272808629+273243614
2241+273611802+273978077+274344024+274664493+274952608+275217588+275456553
2228+275708216+275996660+276278165+276522561+276766783+277025192+277266592
2214+277507644+277797132+278112305+278417931+278717371+278997098+279275027
2201+279591341+279916294+280193161+280426308+280650004+280847937+281016802
2187+281228399+281511006+281822004+282154437+282508207+282845511+283138458
2174+283423461+283775530+284173522+284514729+284781391+285058992+285390941
2160+285692044+285908589+286099661+286286249+286457297+286631438+286803201
2147+286948312+287075409+287223187+287425933+287690410+288003419+288378314
2133+288825919+289333537+289939067+290648753+291372200+292062791+292744781
2120+293416140+294032629+294563169+295043882+295525891+295975467+296333161
2106+296634148+296955680+297294105+297593681+297868518+298167591+298508567
2093+298874069+299243050+299615220+300014140+300445240+300884515+301317489
2079+301775493+302287111+302811098+303305360+303773395+304199315+304565976
2066+304925796+305342690+305798317+306245400+306679090+307089760+307453020
2052+307796064+308165064+308538414+308885883+309226066+309553609+309853669
2039+310145166+310447100+310779668+311126075+311435469+311729382+312067865
2025+312429424+312754242+313045662+313343498+313645819+313935325+314219188
2012+314506530+314803883+315085814+315332316+315587207+315866374+316118984
1998+316310829+316493937+316699930+316870437+317024979+317179251+317280373
1985+317382692+317525948+317661395+317811434+318021930+318257261+318484765
1971+318730437+318965363+319154038+319404077+319756823+320066643+320294050
1958+320524279+320732591+320853755+320888467+320812742+320594593+320291344
1944+319886762+319289813+318577576+317744832+316638565+315325204+314037065
1931+313001904+312458821+312635590+313569031+315115771+317128207+319348820
1917+321511798+323563469+325430602+327014605+328396869+329677972+330834297
1904+331825952+332676516+333426771+334115216+334740654+335316961+335882329
1890+336361766+336800462+337325783+337847316+338308818+338747977+339151110
1877+339511529+339880143+340340949+340792130+341075702+341403729+341953209
1863+342475399+342827894+343134660+343484140+343863190+344223262+344547732
1850+344872279+345298257+345672823+345771007+345991109+346531235+346970007
1836+347180600+347445927+347827065+348093089+348310987+348617598+348871562
1823+349147558+349488920+349718183+349863062+350082004+350353362+350547410
1809+350709761+350964072+351294649+351579923+351712007+351753754+351896816
1796+352170030+352277916+352109148+352123760+352451863+352667365+352675212
1782+352689746+352723221+352768989+352888703+352929562+352733156+352562417
1769+352581164+352687311+352921483+353109191+353149122+353298833+353564547
1755+353953919+354474447+354823346+355027135+355387670+355829033+356164133
1742+356309476+356329074+356558298+356796915+356491618+356145849+356208316
1728+356249058+356071400+355768190+355556825+355480520+355078663+354289598
1715+353708730+353448737+353193421+352764041+352064077+351360865+350923909
1701+350137822+348895064+347890962+346918403+345974526+345172280+344218855
1688+343258085+341982626+340007588+338323429+337421067+336664241+335534434
1674+334339067+333597703+332976827+332308521+332108597+332201640+332116676
1661+332089579+332483628+333286105+333946332+333988776+334306133+335310544
1647+336113099+336668300+337614574+338860270+340194408+341554058+342833460
1634+344274750+346003362+347682882+349240717+350875320+352470263+353968453
1620+355610671+357254861+358658152+360129361+361762418+363210356+364389797
1607+365469121+366508399+367437665+368218689+368897664+369512819+370070146
1593+370569221+371003316+371366982+371685113+371966367+372164628+372333550
1580+372604947+372721028+372418282+372268339+372427636+372260763+371835983
1566+371542824+371377458+371323805+370851557+369733848+369048727+368841962
1553+368435930+367819731+367183895+366575388+365948636+365289724+364307887
1539+362950440+362087584+361531686+360428744+359103612+358035034+356864523
1526+355524355+354158597+352452443+350565771+348822045+347003366+345112288
1512+343292527+341436353+338891851+335237254+331700749+328893160+325728013
1499+321270475+315536763+309352913+303020628+295862015+288543931+283159640
1485+280332744+278886081+277610428+276157194+274456568+271999619+268015218
1472+262671650+257278875+252065265+245991523+238968107+232197513+226485486
1458+222510420+221781271+224517541+228729195+232876604+236966822+241374843
1445+245703583+249131429+251209057+251873459+251288976+250248809+249453618
1431+248725532+247991242+247598411+247673131+248182063+249105839+250337638
1418+251975740+254163786+256667198+259243649+261864573+264517097+267053366
1404+269285034+271086801+272211255+272328051+271108003+268340732+264288317
1391+258968503+251763408+243272648+236036088+232421403+233674172+239994049
1377+250527608+264373494+280961931+299222756+317355866+332797622+343277104
1364+348444076+349677209+349009908+347830390+346532240+345050440+343238294
1350+341015323+338515042+336055426+333886920+331993908+330236111+328789797
1337+327972862+327787396+328142403+329123582+330814892+333123638+335922414
1323+339187020+342910693+346997762+351340301+355920182+360776484+365943495
1310+371374829+376959972+382529459+387898288+392968043+397652060+401842337
1296+405431027+408280556+410236537+411169127+410968469+409461930+406452137
1283+401962207+396521711+391276153+387850974+387857275+392112376+400149056
1269+410484084+421487069+431949890+441137561+448793450+455006388+459994659
1256+464002252+467204856+469703282+471670009+473288454+474507130+475176093
1242+475466431+475826541+476460598+477337718+478587047+480354817+482555909
1229+484953600+487287858+489355552+491068315+492449613+493592602+494597979
1215+495481787+496204209+496751835+497146038+497432085+497591653+497584618
1202+497537342+497600930+497647393+497485583+497139351+496756666+496388594
1188+495939771+495283371+494409420+493436126+492392094+491163987+489685859
1175+487935523+485842317+483302839+480264016+476797399+472972373+468795625
1161+464452892+460345530+456799322+453875614+451377652+449013088+446580916
1148+443982683+441097901+437773766+433974870+429769827+425234090+420475082
1134+415559830+410446666+405152093+399817899+394416406+388669764+382307076
1121+375060389+366579872+356399890+343917849+328675107+310487630+289181120
1107+264598272+236985686+207333315+177443544+149543722+125697610+107488775
1094+95901423+91279968+93415250+101723037+115328305+133022120+153164554
1080+173637188+192039452+206159286+214667962+217843082+217281232+213751897
1067+205452209+189338977+164096153+131932407+98139140+68675289+47290673
1053+34486232+28962955+29599861+36561816+51415937+76525314+113893509+163335365
1038+221347620+282244194+340755678+393913080+440724068+480653929+512463847
1024+533854084+543195253+543341562+543213691+552270128+572304541+597451848
1011+621464322+641866305+658727028+672649315+684040860+693031700+699675099
997+704354671+707653255+709839581+710901202+710806342+709571625+707255960
984+703642415+697822598+688285873+673152835+650526992+620889136+591197859
970+574263343+579467695+604230037+637147846+667755517+691453881+708109694
957+719212100+726263696+730434878+732772112+734144132+734901229+734999103
943+734539882+733777529+732737168+731350769+729687445+727827677+725751131
930+723354058+720520880+717222837+713520850+709388555+704705040+699370344
916+693307928+686519495+678977754+670565580+661274623+651128154+639952304
903+627220474+611798103+591968948+565920903+531873596+488218902+435001276
889+375519571+316100932+264419802+228650203+218424608+243159080+304519938
876+390621067+481174457+558958020+616438749+654600067+677930590+690719591
862+696643930+699280200+701410167+703963870+706308294+707672738+707957393
849+707281240+705591476+703020224+700083528+697203809+694145891+690553142
835+686707436+682963005+679171261+675013299+670485950+665886394+661193447
822+655829528+649345928+641858613+633466152+623774498+612366834+599552785
808+586858450+577159606+573602111+577328645+586124160+595901822+603639660
795+608363685+610383640+610705829+610239921+609168984+607407554+605254626
781+603102510+600925191+598494566+595723429+592773358+589980420+587571596
768+585410667+583140653+580554210+577703598+574706523+571682814+569035644
754+567192806+565918081+564612895+563111111+561549024+559916856+558171120
741+556281819+554229974+552162281+550238461+548401460+546546833+544747289
727+543000896+541321337+539969920+538381239+536480187+534614272+533020102
714+531590255+530163229+528768441+527500674+526371562+525301012+524221494
700+523147543+522177342+521358204+520596817+519742387+518803342+517972723
687+517325020+516787020+516422427+516265371+516136998+515911717+515445847
673+514953035+515565794+517132093+517553781+517194560+517779371+518989272
660+519921591+520638641+521447535+522540234+524032974+525754280+527336583
646+528750041+530349971+532334015+534516553+536649264+538696857+540874949
633+543437929+546337864+549303088+552096645+554943120+557819167+560783192
619+564110342+567666948+571051076+574342818+577748824+581351198+585192846
606+589099473+592981670+597216284+601918856+606544736+610884106+615284473
592+619882444+624462518+628965746+633610413+638490565+643427386+648177658
579+652839951+657694167+662637984+667410637+672177183+677187564+682226473
565+687123595+692072670+697248494+702449213+707288816+711902829+716873473
552+722417371+727988172+733103540+737988679+742940228+747943187+752949007
538+758183278+763654582+768831489+773631587+778521442+783452581+788037139
525+792352735+796889825+801886291+806895280+811647987+816529802+821454756
511+826054467+830471803+834947432+839466044+843951568+848324838+852380442
498+856059081+859497055+862736807+865870257+869000769+871911489+874399401
484+876923803+880209863+884033923+887280323+889425133+890974966+892365772
471+893402576+893730138+893726891+894616188+896745150+898839863+899810799
457+899422084+897669236+895022993+891630245+886736911+880153118+872577051
444+864479605+855947523+847359005+840014481+835210672+833380591+835769546
430+844623547+860152025+879898227+901342850+923145265+945618807+968262431
417+987140054+1001040231+1012439817+1022544074+1031419799+1039172596+1046750287
403+1055716387+1065098028+1073741823
##END=
