##TITLE=19
##JCAMP-DX=4.24
##DATA TYPE=INFRARED SPECTRUM
##DATE=16/11/2015
##SAMPLING PROCEDURE=Instrument type and / or accessory
##ORIGIN=Default
##XUNITS=1/CM
##YUNITS=TRANSMITTANCE
##RESOLUTION=4
##FIRSTX=3996.3359
##LASTX=399.24785
##DELTAX=-1.9287336
##MAXY=0.83972019
##MINY=0.015774788
##XFACTOR=1
##YFACTOR=7.8205037e-010
##NPOINTS=1866
##FIRSTY=0.072069399
##XYDATA=(X++(Y..Y))
3996+92154421+92262162+92323144+92375809+92422815+92480225+92537844+92564053
3981+92607477+92703147+92821748+92955383+93069583+93117904+93147714+93212516
3965+93272937+93293400+93341788+93476071+93602522+93634381+93660751+93788861
3950+93957374+94017432+93977095+93989575+94105433+94233666+94288503+94291666
3935+94326907+94395348+94436381+94465877+94520724+94552105+94531422+94520924
3919+94552086+94584402+94612516+94665677+94733271+94817318+94904613+94921543
3904+94908167+94973979+95055283+95113521+95239211+95324506+95188575+95045879
3888+95142273+95242535+95210106+95215279+95196520+95144331+95181810+95242507
3873+95321533+95404990+95438324+95507109+95495667+95287388+95063571+95018880
3857+95267468+95595443+95504870+95130136+94988975+95064667+95167892+95266458
3842+95385917+95477014+95440773+95357174+95353268+95360584+95340187+95314788
3827+95269687+95300841+95335128+95223796+95262475+95460017+95457159+95350019
3811+95344360+95356450+95247785+95142921+95123477+95004437+94952906+95127278
3796+95263133+95270859+95205142+95062942+94958212+94976323+95049624+95082463
3780+94994300+94837219+94775685+94819347+94847842+94778409+94675737+94631627
3765+94599912+94585507+94567349+94436429+94314607+94397063+94546046+94431618
3749+94172798+94192176+94207067+93827798+93526554+93591443+93666020+93540626
3734+93356783+93249938+93238820+93231456+93110092+92949019+92884455+92854054
3719+92723782+92507034+92327669+92154097+91892553+91629846+91436096+91266821
3703+90995711+90566159+90093668+89632571+89173409+88722487+88203181+87556366
3688+86968770+86652426+86498899+86333682+86191587+86034392+85627790+85186157
3672+85070995+84950317+84630734+84380270+84169723+83853980+83529443+83264565
3657+82910323+82502968+82204011+81759835+81026981+80420608+80115049+79837047
3641+79416059+78908390+78390798+77885982+77460322+77125258+76582986+75767629
3626+75176523+74881853+74513154+73898811+73195953+72624425+72120714+71579515
3611+71015179+70357141+69658694+69123106+68688938+68126103+67425488+66712051
3595+66020025+65411780+64919868+64302243+63430158+62650655+62126785+61595742
3580+60944144+60286425+59647231+58976021+58327582+57738886+57078246+56315831
3564+55633079+55045655+54451891+53882758+53353239+52736019+51983211+51283469
3549+50709072+50051882+49299894+48675519+48178158+47640998+47034572+46431767
3533+45831138+45200323+44579769+44017134+43484652+42938684+42413552+41909708
3518+41348793+40781866+40298567+39840316+39357151+38870893+38373971+37837018
3503+37293999+36813918+36358685+35868886+35412706+35031617+34642213+34211277
3487+33777144+33317165+32796903+32289963+31902637+31600610+31283571+30912607
3472+30448788+29942719+29555760+29284493+28964048+28531556+28089604+27738040
3456+27429668+27113953+26833941+26577334+26279344+25937064+25588955+25258221
3441+24937431+24599794+24284944+24069087+23916238+23729631+23497222+23309622
3425+23188036+23002215+22704044+22420345+22226925+22022912+21752746+21538329
3410+21426871+21331649+21223215+21082606+20897244+20791140+20799331+20739175
3395+20547254+20378338+20354983+20406648+20421176+20388196+20331325+20300769
3379+20328574+20338842+20280889+20210649+20171064+20183835+20278226+20425964
3364+20547988+20604987+20654230+20753978+20886200+21019602+21137986+21270807
3348+21459786+21637281+21724296+21814936+22029210+22334078+22652743+22934023
3333+23172948+23409360+23619218+23800242+24050766+24379571+24713208+25064240
3317+25414783+25672223+25871223+26118303+26411986+26713048+27041865+27439981
3302+27922020+28434619+28871120+29206050+29531785+29939375+30452077+31018209
3287+31554109+32050460+32557769+33062830+33514793+33945574+34428094+34948368
3271+35480171+36087854+36787845+37496409+38163686+38803066+39444842+40120865
3256+40844420+41595441+42334540+43030091+43728047+44519215+45380093+46231833
3240+47073790+47930218+48800961+49692767+50642665+51634924+52614345+53622743
3225+54698906+55785435+56841344+57880242+58933722+60000367+61058406+62149026
3209+63309279+64516715+65762234+67011189+68209373+69381578+70563662+71739983
3194+72910449+74115203+75388222+76682605+77910324+79096481+80335789+81632154
3179+82939952+84240604+85501614+86704348+87900433+89129013+90368664+91608630
3163+92852053+94077481+95262552+96411534+97532193+98640001+99783067+100968652
3148+102140890+103258844+104312843+105316224+106313166+107365793+108470513
3134+109523521+110475629+111406082+112370003+113322730+114215408+115045360
3121+115833280+116615245+117420990+118250971+119063385+119790798+120421332
3107+121030135+121700539+122405450+123034812+123587796+124147488+124721298
3094+125288706+125810289+126215396+126543267+126917753+127351279+127748973
3080+128066812+128336969+128589491+128823340+129040365+129249692+129389777
3067+129421730+129446948+129510512+129556489+129573448+129546934+129455218
3053+129320401+129138903+128863125+128497175+128107835+127711380+127265669
3040+126741657+126112618+125390073+124647054+123890278+123060459+122123909
3026+121051761+119862889+118602441+117234147+115708115+114038120+112234843
3013+110244723+108025241+105611999+103008313+100126705+96889141+93283845
2999+89323497+84974191+80090383+74537443+68382160+61871467+55208895+48523525
2984+42098104+36379201+31812933+28821589+27754050+28819062+32061196+37334277
2968+44284199+52336057+60829563+69158490+76716440+82911857+87357004+89982888
2953+90948372+90511903+88979897+86699394+84038260+81352480+78949584+76993276
2937+75527030+74543641+73914055+73550634+73620638+74342373+75743307+77639410
2922+79674197+81436651+82673120+83351736+83469652+83002182+82031354+80672806
2907+79067695+77463365+76076961+75072788+74528917+74320137+74276642+74283864
2891+74284206+74297897+74329450+74401236+74677366+75421800+76852700+79126367
2876+82301987+86272614+90937378+96191051+101760507+107347768+112757408
2862+117852562+122539866+126799504+130689105+134297145+137695744+140897562
2849+143830997+146432330+148764335+150953093+153049563+155049057+156985045
2835+158888470+160795372+162773268+164782566+166723823+168553537+170241718
2822+171809307+173308149+174717647+175983440+177153506+178366596+179735033
2808+181323924+183099868+184928706+186681728+188277250+189722988+191060043
2795+192255146+193289872+194190305+194946214+195560266+196086156+196548805
2781+196912583+197169221+197366639+197525092+197637206+197708125+197731771
2768+197689642+197566115+197358046+197129551+196990609+196949567+196917938
2754+196873999+196862205+196894749+197000498+197228727+197527321+197819000
2741+198131980+198506390+198916680+199337677+199765515+200197887+200655773
2727+201163485+201761532+202502426+203363894+204311143+205326034+206318936
2714+207197438+207934198+208514258+208971267+209432582+210015920+210766684
2700+211634535+212470413+213244538+214080759+214963453+215786661+216563815
2687+217313436+217999112+218609697+219176019+219755107+220339301+220879138
2673+221388832+221888179+222373007+222830226+223219213+223532098+223812306
2660+224084530+224347341+224594890+224807856+224978828+225152600+225385839
2646+225662065+225908223+226093980+226235989+226351399+226465151+226581419
2633+226674650+226761764+226884034+227056034+227296800+227592232+227879546
2619+228162822+228468466+228727638+228914958+229111900+229313433+229457634
2606+229581866+229711014+229813181+229913024+230030872+230127400+230204244
2592+230320779+230469666+230589535+230709022+230854976+230970652+231066684
2579+231198480+231347692+231452032+231484766+231479831+231472800+231464988
2565+231428538+231343252+231220240+231063750+230889921+230727543+230592488
2552+230495675+230426166+230401167+230466980+230630501+230893064+231237655
2538+231601015+231955113+232331696+232764183+233227328+233645105+234012580
2525+234389944+234771861+235105153+235381893+235651640+235911327+236103276
2511+236297131+236614856+237008282+237366535+237719910+238142089+238623906
2498+239143222+239687575+240238635+240771326+241294472+241860832+242438015
2484+242970478+243493833+244029631+244576060+245153319+245750128+246328873
2471+246863699+247369200+247909666+248494547+249061859+249606003+250158263
2457+250707627+251207889+251615472+251931844+252198580+252450207+252684418
2444+252877854+253026209+253161473+253300509+253415900+253479941+253484666
2430+253438898+253358929+253273681+253209355+253154308+253090497+253054046
2417+253126833+253346544+253689401+254114781+254578840+255046977+255510045
2403+255996588+256489267+256944638+257403114+257899089+258395540+258848014
2390+259253921+259607086+259871498+260031647+260115065+260135472+260067525
2376+259875157+259564825+259197445+258769722+258311836+257984127+257761615
2363+257494630+257349668+257624921+258356441+259313350+260174113+261135310
2349+262470802+263565357+263632027+263081501+262917294+263257083+263768644
2336+264321647+264824958+265058902+265124391+265420623+265945179+266412287
2322+266811734+267318036+267923018+268454395+268811733+269070277+269378208
2309+269784572+270202349+270539680+270804454+271060368+271349112+271641514
2295+271883195+272093760+272330639+272578455+272777969+272919102+273026718
2282+273105278+273153504+273183075+273218687+273255347+273230234+273111985
2268+272952408+272797252+272634836+272479889+272424232+272566222+272946616
2255+273529229+274226299+274991125+275786990+276385552+276857080+277296998
2241+277764468+278195278+278500542+278728827+279000099+279311364+279603976
2228+279861662+280091681+280341231+280636168+280939869+281227374+281501884
2214+281772946+282047590+282319071+282607929+282938706+283259956+283518594
2201+283758484+284022610+284284716+284542250+284819885+285115755+285412635
2187+285689413+285937248+286168125+286436309+286789627+287169982+287508361
2174+287835289+288175612+288501416+288824609+289162779+289486639+289779270
2160+290041358+290276388+290502978+290732407+290932321+291070539+291196542
2147+291365399+291545211+291678570+291786282+291976383+292300262+292722765
2133+293239528+293859830+294544134+295228000+295895784+296575782+297268546
2120+297945457+298575057+299149230+299680969+300161472+300590281+300996893
2106+301380678+301699412+301945437+302211621+302573989+302934147+303231732
2093+303543265+303927907+304348866+304760013+305174360+305636495+306154344
2079+306681986+307167196+307636190+308142606+308660055+309150180+309597072
2066+309987564+310381085+310840419+311310709+311716120+312077022+312443105
2052+312809799+313174016+313558182+313929124+314242105+314528276+314826699
2039+315142500+315484576+315836960+316155485+316450898+316765193+317101419
2025+317441780+317777549+318114233+318434644+318720416+319030786+319399499
2012+319739841+320001985+320224688+320439845+320688843+320996412+321289500
1998+321505343+321702780+321910735+322067092+322193992+322328360+322432738
1985+322520920+322634786+322784588+322970593+323178929+323387303+323579825
1971+323789952+324036358+324289013+324587208+324942755+325240759+325429393
1958+325601374+325816227+325986607+326019533+325929179+325742259+325430498
1944+324909868+324199726+323465577+322634024+321510640+320183836+318873781
1931+317781055+317152846+317266960+318224784+319918224+322125931+324446513
1917+326618551+328731522+330734437+332414539+333787034+335018073+336168894
1904+337178450+338047044+338864802+339648492+340316066+340883112+341406639
1890+341812451+342207134+342760690+343330061+343809725+344277157+344768635
1877+345231837+345635934+346046966+346403123+346616298+346945360+347528412
1863+348079605+348471278+348813602+349183592+349590470+349987898+350331631
1850+350628035+350982515+351296791+351416221+351710414+352267705+352679880
1836+352910433+353210800+353544968+353713863+353890112+354196004+354438028
1823+354733516+355155790+355467590+355645325+355864065+356117368+356278145
1809+356436941+356747025+357123455+357362468+357398404+357393412+357533078
1796+357772548+357818430+357657957+357787867+358218068+358444581+358433035
1782+358446601+358473886+358509365+358642704+358668427+358361963+358102029
1769+358180722+358401938+358641980+358722198+358686376+358868341+359213409
1755+359660453+360162944+360407864+360508964+360854260+361364220+361788857
1742+361968498+361954360+362124893+362260481+361803643+361386971+361537688
1728+361757571+361712794+361441160+361206682+361045295+360445553+359434016
1715+358778102+358603339+358461120+358064302+357313347+356533392+355992526
1701+355041695+353689969+352724619+351828168+350911177+350109652+349173417
1688+348180896+346688208+344449443+342778182+342055922+341340941+340084827
1674+338775896+337981384+337332787+336735979+336687048+336852932+336761244
1661+336817949+337403020+338266012+338660048+338356442+338664964+339817805
1647+340685942+341339150+342500985+343964939+345393491+346691371+347892838
1634+349429159+351375331+353218116+354826424+356459310+358065827+359649859
1620+361417267+363099503+364473218+365993610+367737810+369241054+370391494
1607+371398115+372367772+373288116+374149851+374945430+375614720+376130358
1593+376550803+376938780+377303549+377632039+377890564+378029162+378125651
1580+378302205+378289668+377917468+377805430+377961978+377685086+377181604
1566+376949907+376935274+376916220+376143887+374601620+373856534+373903788
1553+373723919+373145402+372440558+371760141+371026410+370135980+368875180
1539+367453792+366723415+366222143+365054478+363664949+362543204+361297646
1526+359881060+358412228+356547988+354534593+352749846+350925848+349014049
1512+347122867+345081959+342222720+338312466+334788816+332112038+328937724
1499+324271217+318286843+311927429+305418480+297997646+290422246+284926759
1485+282113040+280696454+279425269+277969070+276254175+273721921+269592146
1472+264124972+258664239+253357881+247157968+240060594+233262139+227440295
1458+223254234+222419747+225280757+229695885+233985180+238176710+242711173
1445+247205546+250797314+252944886+253545810+252857657+251788025+251042081
1431+250374468+249662269+249268290+249348031+249861021+250764408+251952498
1418+253589711+255862734+258488904+261163357+263828797+266490065+269061626
1404+271388782+273281661+274403710+274409312+273008903+270087473+265997691
1391+260667039+253321716+244604984+237220296+233584780+234926408+241445665
1377+252266279+266474155+283552015+302449662+321279820+337320402+348164166
1364+353463265+354690531+353943234+352651490+351252700+349712072+347883806
1350+345623587+343007858+340389538+338070328+336042186+334170629+332658239
1337+331849627+331752147+332236156+333329320+335099662+337473558+340361872
1323+343770665+347653711+351885330+356396509+361167812+366198974+371553900
1310+377216739+383024998+388792443+394365118+399636436+404517414+408876885
1296+412565962+415469748+417457077+418387863+418145230+416554338+413400068
1283+408685584+402986657+397532002+394005074+394055529+398510804+406916118
1269+417778632+429313064+440149207+449615294+457554967+464002219+469145685
1256+473286645+476611905+479200349+481233140+482908060+484159867+484814828
1242+485065845+485408817+486023993+486852345+488095959+489966716+492312335
1229+494792209+497150328+499235746+500996066+502468023+503683819+504705378
1215+505577592+506255799+506742552+507128966+507455665+507648911+507667584
1202+507600895+507532796+507399723+507170847+506837669+506416538+505941828
1188+505335645+504512933+503550022+502528119+501395590+500032850+498398134
1175+496528330+494350043+491677648+488432719+484692692+480547769+476099621
1161+471569197+467307130+463620645+460529863+457830945+455309457+452739763
1148+449903009+446690205+443075058+439095180+434790736+430104109+425046576
1134+419777850+414390150+408884050+403308021+397672582+391763642+385202904
1121+377637679+368760932+358147377+345220672+329517269+310801606+288920813
1107+263825444+235847115+205992789+176008115+148048135+124183500+106074315
1094+94673670+90145943+92234162+100474812+114052506+131751754+151912031
1080+172408707+190899152+205163427+213760405+216955679+216373047+212718325
1067+204224409+187940890+162518022+130250740+96621871+67477873+46384060
1053+33853101+28510561+29150089+35974767+50589809+75467086+112773251+162558492
1038+221609934+284197106+344788718+400296808+449478791+491469960+524924875
1024+547447654+557295315+557402093+557130308+566647802+587973534+614737802
1011+640277509+662079438+680142598+694989830+707050457+716493831+723412402
997+728187555+731486406+733703754+734738613+734480622+733041591+730423957
984+726251519+719674547+709236632+692868818+668506265+636786556+605208532
970+587320059+593024283+619509372+654522102+687013382+712293193+730170158
957+742042379+749464890+753797076+756243757+757610841+758138255+757934835
943+757274348+756384833+755241062+753707979+751818969+749703369+747358360
930+744636462+741401175+737659510+733516873+728970444+723824044+717914952
916+711273806+703924006+695718225+686528954+676403981+665427677+653508278
903+640040630+623662718+602561632+574915280+538945317+493239082+438039361
889+376696375+315728238+263027692+226740024+216465420+241815312+304836419
876+393917159+488403757+570117681+630761997+671099662+695692387+709092661
862+715249454+717842623+719833458+722338597+724714474+726131098+726353649
849+725382811+723330622+720535558+717375496+714051646+710468814+706486154
835+702312497+698188762+693972805+689376303+684410001+679331585+674153174
822+668483248+661876628+654150016+645230321+634790310+622512125+608871657
808+595471194+585211204+581495605+585506274+594721115+604849289+612795517
795+617735486+620053439+620434785+619709325+618370479+616466683+614131581
781+611619849+609040895+606367052+603518789+600579371+597852291+595434191
768+592979621+590233373+587345858+584397676+581207242+577879353+575030518
754+573074171+571701600+570292902+568603844+566806026+564974635+563033493
741+560965528+558843412+556765691+554711369+552560900+550354451+548318420
727+546468280+544731892+543240576+541382205+539404060+537670949+536105971
714+534569345+533087404+531687890+530304572+528918548+527561334+526228624
700+524930248+523777750+522892236+522240743+521561126+520620889+519554477
687+518693352+518194100+518009009+517989841+517915950+517652815+517307862
673+517113968+517004294+516844469+517382020+518875698+519994585+520230816
660+520243049+520711433+521719121+522972110+524267361+525632273+527199995
646+528975367+530804777+532688337+534773032+537053944+539356349+541600106
633+543942829+546539161+549377287+552296431+555218738+558024167+560997882
619+564495123+568307478+571943775+575382978+578924425+582693451+586614529
606+590614681+594640555+598714674+602911539+607247497+611713252+616371946
592+621247970+625985091+630391778+634887981+639714731+644733241+649824537
579+654910879+659929694+664838986+669679684+674700023+679977667+685204856
565+690213153+695116272+700140879+705317536+710434060+715535493+720706129
552+725762594+730705651+735905325+741330752+746490413+751384082+756367989
538+761548153+766842793+772163041+777433673+782629842+787557807+791991970
525+796245654+800892916+806149219+811611001+816607027+821182494+825798660
511+830490814+835055001+839355786+843417786+847449224+851526544+855579247
498+859458558+862934764+866126227+869300694+872419676+875310619+877906456
484+880533464+883748249+887517657+890985250+893469887+895079719+896160993
471+896834970+896962556+897099516+898324076+900207522+901471029+901825585
457+901194365+899378446+896544740+892440821+886422207+878573878+869937325
444+861320893+852383363+843028171+834804174+829214655+826814541+829109706
430+838269786+854706194+876511400+900289912+922791045+944484138+967535092
417+988625165+1003620637+1013952535+1022629407+1031084185+1039831480+1049215177
403+1058558403+1066497353+1073741823
##END=
