##TITLE=19
##JCAMP-DX=4.24
##DATA TYPE=INFRARED SPECTRUM
##DATE=16/11/2015
##SAMPLING PROCEDURE=Instrument type and / or accessory
##ORIGIN=Default
##XUNITS=1/CM
##YUNITS=TRANSMITTANCE
##RESOLUTION=4
##FIRSTX=3996.3359
##LASTX=399.24785
##DELTAX=-1.9287336
##MAXY=0.79837763
##MINY=0.015159267
##XFACTOR=1
##YFACTOR=7.4354711e-010
##NPOINTS=1866
##FIRSTY=0.067511909
##XYDATA=(X++(Y..Y))
3996+90797083+90824047+90942427+91135188+91237756+91160440+91091089+91218337
3981+91421329+91536622+91589460+91595993+91561353+91588598+91709854+91835539
3965+91904418+91955342+92090415+92294559+92395454+92365974+92396757+92554877
3950+92675662+92687797+92721716+92807359+92894155+93008337+93066615+92995902
3935+92951732+93018738+93072307+93071325+93075894+93079992+93136066+93326091
3919+93546548+93671261+93713347+93690510+93647653+93707204+93871347+93988234
3904+94006762+94000148+93945948+93833961+93806035+93871197+93855485+93834913
3888+93999146+94129320+94082235+94081794+94117867+94164973+94304065+94397133
3873+94399969+94312111+94140313+94134641+94245807+94188771+94017964+93965328
3857+94133559+94292181+94117937+93905927+94008255+94179632+94180594+94075702
3842+94066463+94178791+94194472+94129000+94172267+94247159+94259615+94264154
3827+94316109+94476053+94573010+94427625+94358926+94401983+94240466+94037664
3811+94055841+94201106+94225225+94189803+94276048+94314185+94294906+94317792
3796+94249614+94137046+94099370+94081664+94022474+93920367+93859092+93909845
3780+93970649+93963604+93945798+93944435+93955658+93919956+93797197+93672263
3765+93617963+93654848+93657844+93483350+93315921+93372636+93504964+93434100
3749+93271952+93333406+93365521+93090484+92888604+92921270+92899356+92737818
3734+92591181+92508213+92463853+92446638+92413050+92380644+92356675+92243977
3719+92040374+91890761+91858866+91764585+91481811+91171682+90947548+90735688
3703+90377261+89874682+89421603+89026302+88611540+88261571+88000291+87637305
3688+87118613+86662738+86348611+86104967+85962328+85905633+85728754+85513548
3672+85452203+85236726+84810011+84492728+84220205+83846302+83484789+83183949
3657+82790796+82377363+82125983+81791870+81180756+80591421+80222378+79908366
3641+79476906+78966120+78495776+78078109+77705488+77353149+76757371+75893754
3626+75254363+74921217+74579444+74067927+73471948+72952810+72459009+71921263
3611+71385447+70769963+70068606+69454130+68893959+68254051+67614590+67049614
3595+66463029+65834500+65232444+64584976+63804889+63036966+62431799+61916669
3580+61352495+60716886+60070295+59427747+58784848+58136002+57414710+56658120
3564+56035307+55508789+54922395+54275619+53660130+53091517+52502262+51891955
3549+51272438+50577659+49856818+49224951+48643948+48010042+47327368+46719871
3533+46241686+45756347+45133464+44432968+43780936+43204261+42696121+42259541
3518+41788470+41187589+40583877+40111775+39679601+39176067+38635629+38079742
3503+37511822+37020346+36644105+36285936+35867297+35441642+35048407+34619687
3487+34134621+33659295+33206063+32758272+32364830+32016458+31637833+31239041
3472+30809415+30292499+29788054+29427638+29173525+28955097+28727030+28423539
3456+28039032+27625518+27228701+26871299+26551736+26284126+26053535+25758419
3441+25352832+24909260+24521203+24266153+24119436+23939398+23664067+23400455
3425+23236818+23109027+22952469+22789889+22612019+22369873+22103192+21896708
3410+21723790+21536756+21390499+21279699+21108136+20924598+20849527+20831836
3395+20746946+20617466+20603507+20688822+20689063+20578436+20454422+20387769
3379+20402205+20465769+20527465+20530496+20460847+20403247+20472335+20659465
3364+20827618+20935688+21055314+21145450+21115702+21047068+21114003+21365335
3348+21679325+21916280+22060821+22180231+22321730+22500756+22745194+23047321
3333+23321688+23538315+23728678+23899354+24124250+24466675+24842863+25176259
3317+25483364+25781804+26063157+26356923+26689282+26987970+27257129+27637964
3302+28141402+28618905+28992924+29334679+29715299+30140228+30618781+31120671
3287+31595968+32071314+32589382+33135232+33647155+34091794+34525050+35032462
3271+35654709+36341847+37003171+37635431+38271706+38905549+39547979+40215400
3256+40891444+41545430+42179348+42850980+43612023+44457478+45331696+46177451
3240+47012600+47876762+48722387+49535912+50414393+51364435+52299847+53228756
3225+54226750+55318589+56441035+57505424+58503923+59509843+60579598+61696693
3209+62824826+63970364+65131489+66269502+67392715+68549676+69760166+70987645
3194+72139391+73211425+74351983+75637139+76957527+78193568+79364743+80546926
3179+81726648+82878143+84059629+85272960+86462031+87658067+88881658+90065148
3163+91186112+92300181+93461015+94655628+95795990+96849577+97893063+98969937
3148+100048163+101109195+102149274+103148962+104139901+105176774+106229779
3134+107238615+108166006+109004366+109826984+110718052+111633338+112481267
3121+113273053+114022162+114724066+115463655+116259900+117011785+117706343
3107+118381372+118997281+119545323+120097192+120702860+121312697+121835918
3094+122277083+122695551+123104751+123497828+123881557+124263361+124622599
3080+124946296+125260693+125571764+125859508+126109525+126291464+126404042
3067+126513193+126646333+126739663+126732548+126666384+126624629+126588626
3053+126497041+126340163+126124766+125875510+125588819+125201654+124733965
3040+124289744+123847037+123298163+122638486+121921472+121153123+120276005
3026+119261157+118187900+117086366+115847384+114419157+112853021+111127833
3013+109209783+107160928+104975376+102537081+99772775+96672377+93206769
2999+89311951+84965737+80200403+74978834+69176156+62800913+56088059+49338276
2984+42874478+37073536+32372012+29274610+28185376+29236100+32378202+37521241
2968+44392882+52371532+60695783+68725487+75935329+81900280+86325494+89027915
2953+90027372+89594584+88089632+85865912+83292965+80729957+78439372+76582461
2937+75229257+74280167+73581420+73168372+73261171+74024864+75397829+77144491
2922+78991847+80677801+81929510+82583270+82661244+82220339+81321812+80084683
2907+78640209+77116329+75713699+74677919+74071143+73775824+73699890+73739681
2891+73772082+73795659+73862650+73964943+74178095+74772065+76060728+78230759
2876+81277242+85065369+89479390+94413937+99650717+104885854+109895924+114606277
2860+118997231+123026162+126661624+129986788+133128449+136089514+138815702
2847+141275671+143498038+145579699+147543512+149379054+151160427+152951740
2833+154782773+156665852+158511004+160232595+161884004+163487215+164974792
2820+166325070+167549183+168690217+169833796+171032146+172327814+173778736
2806+175357838+176961611+178539571+180075085+181503020+182785381+183945774
2793+184960592+185797530+186490856+187080972+187591167+188017391+188357321
2779+188644663+188896574+189088423+189184318+189212355+189234860+189241674
2766+189187164+189076720+188971486+188888618+188787493+188668552+188560873
2752+188503918+188561555+188754546+189036999+189335164+189588578+189833474
2739+190155748+190541670+190940640+191362315+191825013+192302201+192766562
2725+193288741+193963830+194795136+195711996+196605187+197416773+198151543
2712+198786250+199320654+199811289+200302946+200853683+201535926+202327512
2698+203132985+203907997+204663288+205423049+206191848+206931729+207631969
2685+208319684+208979101+209579078+210139975+210698568+211237040+211715731
2671+212150011+212577097+212989874+213348301+213633339+213884128+214152131
2658+214411437+214625672+214840548+215092258+215365312+215622593+215822499
2644+215981882+216136937+216266259+216354017+216470253+216645949+216768317
2631+216802627+216869262+217037062+217305186+217635075+217927528+218166853
2617+218458705+218782722+218993129+219126279+219307025+219484325+219590119
2604+219673008+219780105+219903254+220027026+220175527+220342706+220470004
2590+220568423+220700992+220861818+220997734+221110523+221218201+221277642
2577+221301450+221372815+221469851+221511696+221509592+221495463+221448488
2563+221380049+221337603+221296961+221182609+221005770+220849173+220736344
2550+220663797+220670931+220769150+220919996+221105713+221372694+221754990
2536+222159490+222498397+222851674+223292107+223738552+224110767+224435686
2523+224756216+225043118+225253324+225433870+225666923+225967973+226283393
2509+226551377+226791383+227075019+227435991+227858107+228308961+228796991
2496+229319150+229834334+230347395+230851878+231321630+231799459+232310576
2482+232801291+233250883+233719914+234252173+234818682+235374349+235886187
2469+236352793+236834851+237363082+237902276+238453674+238997898+239455546
2455+239843873+240221639+240561929+240850054+241105812+241337282+241546727
2442+241720579+241851364+241933952+241990326+242068465+242137024+242137865
2428+242106622+242080609+242003733+241873770+241805672+241835673+241905654
2415+242037923+242322019+242758103+243238578+243694462+244148162+244605770
2401+245045241+245483510+245908552+246306299+246682021+247050207+247386770
2388+247625133+247763614+247871834+247967387+247974722+247852033+247639763
2374+247401239+247164319+246855252+246362894+245805122+245562731+245613834
2361+245683776+246144030+247298832+248506861+248623458+247950513+248249159
2347+249919386+251296258+251358464+251032583+251143348+251562919+251940144
2334+252197626+252509318+252878086+253230721+253627606+254154414+254777538
2320+255268273+255526016+255778929+256189501+256580895+256856915+257137805
2307+257480720+257854338+258256493+258653037+258970020+259220188+259464764
2293+259703788+259924195+260137348+260331321+260475253+260574394+260657182
2280+260742815+260832738+260904343+260926768+260889994+260800833+260666501
2266+260508600+260375090+260312463+260335389+260440823+260673294+261103948
2253+261727853+262466611+263223707+263780115+264242853+264642584+265011292
2239+265367153+265688725+265977251+266258942+266526965+266771902+267016879
2226+267254060+267457773+267674473+267931915+268201501+268483573+268787409
2212+269094212+269377386+269643726+269884314+270093057+270338194+270648223
2199+270947189+271174270+271375197+271603821+271855992+272126802+272397952
2185+272667899+272950733+273223927+273499525+273817971+274163752+274495104
2172+274800844+275099771+275415371+275730109+275994465+276214752+276434497
2158+276658592+276881103+277106400+277332899+277540561+277688961+277782651
2145+277879889+277999110+278140317+278351104+278650271+279015271+279460875
2131+279996982+280582970+281169841+281748714+282353281+282992397+283630932
2118+284234295+284782186+285271018+285706380+286107494+286504038+286880522
2104+287189428+287438814+287683750+287974480+288312806+288653958+288959738
2091+289254456+289564705+289905837+290288332+290693574+291102884+291527065
2077+291978761+292445587+292912434+293380563+293840436+294252131+294597391
2064+294940888+295342723+295774318+296188137+296561855+296900902+297235581
2050+297574989+297911732+298247794+298573895+298885086+299195115+299504903
2037+299818760+300130793+300403846+300666138+300979253+301321848+301653200
2023+301969602+302257205+302506530+302762129+303078170+303434352+303761115
2010+304043888+304306801+304550355+304793629+305053916+305276648+305431442
1996+305597960+305798767+305948671+306075809+306263129+306480530+306666547
1983+306803885+306924510+307063151+307221693+307382639+307539738+307735915
1969+307980471+308233625+308515015+308829974+309122668+309390691+309651821
1956+309865073+309976900+309975678+309909924+309807236+309614806+309239605
1942+308655460+307964178+307167603+306177335+305035679+303866188+302867082
1929+302296024+302391698+303228675+304679597+306578268+308649989+310650626
1915+312601563+314430191+315939953+317155498+318231520+319229684+320113978
1902+320896164+321633178+322305762+322882913+323469863+324109059+324608232
1888+324984996+325437974+325923299+326376979+326805408+327208285+327614088
1875+328042216+328512990+328899554+329069018+329299726+329801203+330294844
1861+330640966+330990254+331395195+331790417+332131509+332434583+332748841
1848+333156387+333501667+333599405+333828129+334325638+334720699+334957099
1834+335245123+335545753+335676357+335815299+336104987+336361166+336661816
1821+337066557+337383800+337601963+337842530+338070232+338193442+338320780
1807+338568523+338860956+339084008+339191466+339258522+339448547+339764909
1794+339904312+339773246+339819900+340135340+340315145+340316347+340348292
1780+340389175+340440439+340596315+340682850+340484328+340296186+340350817
1767+340488857+340662209+340744616+340751750+340946305+341256013+341665483
1753+342198123+342549556+342731926+343042716+343428539+343729228+343870355
1740+343912921+344151765+344321469+343903662+343541007+343719729+343924945
1726+343868831+343613474+343410061+343343366+342958145+342185498+341645803
1713+341474977+341317417+340947908+340290014+339652721+339293272+338588884
1699+337477670+336614039+335702531+334792465+334079639+333259697+332427870
1686+331232566+329308824+327737418+326997357+326354673+325254442+324038677
1672+323251039+322581241+321922044+321797872+321948819+321854127+321803865
1659+322194236+322923235+323327775+323032376+323204726+324208281+324937359
1645+325354946+326213487+327398290+328606059+329736191+330765819+332070645
1632+333767707+335404887+336849076+338346833+339858739+341345995+342982193
1618+344535063+345798825+347203113+348822076+350238148+351383832+352453882
1605+353493029+354426282+355234561+355959992+356599849+357134854+357610339
1591+358083739+358533090+358924404+359253591+359497406+359714806+360007841
1578+360106280+359810080+359746912+360003873+359871324+359464739+359264493
1564+359285335+359408425+358938913+357695391+357037818+357041305+356833443
1551+356323569+355780227+355302699+354804448+354208720+353230376+351920680
1537+351183465+350755317+349779538+348614215+347696113+346629791+345381619
1524+344125432+342532281+340776200+339229182+337669219+336033341+334402133
1510+332649539+330197326+326769194+323612633+321187595+318334769+314207239
1497+308914566+303207071+297279550+290473628+283501188+278424734+275793878
1483+274427788+273222784+271903549+270359838+268048411+264251611+259189726
1470+254127881+249238425+243488685+236801584+230335651+224789644+220763820
1456+219849385+222405709+226432856+230338036+234148704+238289361+242400057
1443+245690029+247716458+248374713+247782573+246745529+245993845+245309177
1429+244558715+244106959+244127881+244592223+245450122+246576807+248101519
1416+250193662+252583589+254993456+257416470+259901108+262350736+264564325
1402+266336639+267373642+267402281+266187537+263559427+259775373+254844815
1389+248129957+240145946+233291565+229814013+230877009+236657351+246357643
1375+259144053+274490355+291387582+308169094+322512301+332325863+337223475
1362+338461185+337967183+337037538+335984823+334719076+333133160+331166171
1348+328907110+326627427+324601859+322875839+321299502+319968142+319172829
1335+318985209+319364979+320317831+321835930+323915166+326525780+329535444
1321+332850447+336481170+340405368+344571937+349002883+353758407+358774419
1308+363876526+368906166+373770030+378421663+382746554+386579727+389843025
1294+392487829+394377581+395359332+395285943+393988552+391348518+387363717
1281+382445704+377675871+374555423+374495020+378254725+385498775+394905211
1267+404923848+414393933+422678494+429623819+435346985+440012647+443791711
1254+446850875+449293829+451218572+452746912+453885741+454589849+455020322
1240+455468952+456025841+456749789+457913870+459658408+461784960+463999692
1227+466105402+467980244+469586101+470967502+472136513+473097381+473907023
1213+474608446+475197480+475701302+476157668+476485933+476620246+476655557
1200+476694156+476685939+476608141+476473027+476290537+476060470+475701903
1186+475161608+474532131+473879969+473154016+472240925+471047384+469561531
1173+467774307+465605789+462978180+459905589+456489702+452859460+449143324
1159+445575128+442463056+439885389+437650497+435565188+433477474+431194645
1146+428594972+425665231+422396242+418775299+414814426+410567213+406096907
1132+401448000+396704861+391962764+387186718+382148341+376510908+369952408
1119+362171669+352770043+341240862+327128964+310132275+290021070+266582137
1105+239997164+211253914+181980729+154185492+130091610+111603177+99808137
1092+95031099+97036927+105219721+118701411+136234037+156109353+176187000
1078+194169628+208013282+216462557+219781628+219493985+216341431+208592537
1065+193103365+168314334+136309901+102262835+72098883+49924039+36638151
1051+30966326+31686729+38964381+54358742+80001174+117339920+165610351+221061644
1036+278140557+332040504+380388933+422543019+458101611+486204322+505222570
1022+513894556+514500946+514609126+522563256+540064267+561953378+582791476
1009+600568487+615355274+627543832+637486596+645415435+651419852+655745183
995+658865191+661112468+662476835+662825783+662170494+660576662+657826404
982+653166474+645316996+632652312+613462757+587925207+561943558+546870550
968+551200652+572734762+601340693+627875144+648497085+663136132+672994725
955+679350093+683310765+685754361+687242258+688061359+688300003+688056710
941+687589603+687018685+686235817+685181760+683863887+682283803+680401586
928+678143887+675535237+672654916+669471059+665841378+661565347+656538592
914+650874025+644622828+637583552+629627298+620903486+611475847+600834427
901+587758229+570613059+547751497+517471891+478173195+429584379+374344475
887+318311903+268895028+234064192+223538346+246609113+304195375+384026189
874+466607019+536378072+587447759+621353358+642200475+653857315+659520760
860+662172939+664275883+666743969+669042470+670543674+671206739+671034470
847+669934038+668097233+665850116+663431611+660906571+658167135+655232103
833+652274625+649246685+645807510+641845195+637719669+633620916+629191814
820+624023694+617941038+610827051+602431947+592458841+581231994+570189360
806+561724393+558436646+561463184+569084920+577797910+584905203+589475071
793+591677297+592275430+592087569+591359532+590030397+588321611+586529577
779+584711410+582761977+580587607+578243574+575892085+573739479+571739343
766+569650708+567537462+565445419+563152850+560682921+558419892+556774555
752+555715648+554709688+553472539+552121198+550696269+549233342+547779153
739+546336307+544945647+543493622+541793494+540022864+538500456+537112441
725+535741341+534699348+533611341+532130979+530448728+529001072+527849015
712+526861413+525977099+525146294+524304788+523382598+522392510+521404827
698+520497828+519763979+519244887+518792930+518238446+517683841+517329482
685+517156972+517053322+516995966+516958370+516750308+515900825+514973304
671+516764416+521027662+521804598+519143601+518577533+520285637+521844318
658+522932806+524024299+525241327+526762292+528578134+530277460+531744916
644+533369130+535415761+537710534+540013204+542303208+544690409+547221181
631+549816565+552452430+555169861+558137159+561018482+563941369+567303988
617+570882606+574313964+577743560+581243497+584696901+588277963+592136828
604+596073372+600094045+604376049+608770681+613141866+617585557+622043638
590+626376064+630771137+635368781+639967307+644456651+648973130+653683042
577+658519690+663404917+668338442+673157695+677908610+682798847+687632971
563+692224522+696978403+702215103+707608921+712726499+717541464+722341759
550+727273119+732308130+737330475+742307127+747371398+752411459+757397971
536+762551061+767751928+772675674+777341937+782048842+786909499+791722780
523+796297658+800658341+805025919+809762083+814947639+820131833+824884110
509+829222588+833481946+837833892+842087879+846128312+850268709+854675806
496+858892438+862542560+865669461+868485732+871291502+874224009+877358366
482+880835898+884534358+887986399+890874656+893223820+894986916+896249236
469+897282611+898284323+899808774+902185594+904748712+906601670+907211627
455+906635017+905200989+902788497+899176291+894341126+888575273+882318184
442+875415385+867993534+861370824+856598586+854369906+856716184+865816159
428+881350381+900988046+922362753+943189709+962535581+980804069+996738463
415+1009639186+1020299524+1029277812+1038576750+1049261298+1058718797
403+1064726340+1068607571+1073741823
##END=
