##TITLE=19
##JCAMP-DX=4.24
##DATA TYPE=INFRARED SPECTRUM
##DATE=16/11/2015
##SAMPLING PROCEDURE=Instrument type and / or accessory
##ORIGIN=Default
##XUNITS=1/CM
##YUNITS=TRANSMITTANCE
##RESOLUTION=4
##FIRSTX=3996.3359
##LASTX=399.24785
##DELTAX=-1.9287336
##MAXY=0.80705446
##MINY=0.015280257
##XFACTOR=1
##YFACTOR=7.5162804e-010
##NPOINTS=1866
##FIRSTY=0.068486027
##XYDATA=(X++(Y..Y))
3996+91116914+91247314+91289770+91301338+91355520+91413261+91414113+91398967
3981+91425255+91519385+91673397+91839036+91997033+92110473+92106805+92043206
3965+92047518+92147595+92306970+92474027+92576008+92593890+92611703+92685373
3950+92772634+92826192+92879571+92984387+93105855+93207440+93240439+93207737
3935+93234779+93264199+93215043+93291122+93547580+93729863+93732718+93701572
3919+93707252+93728416+93742442+93781438+93814754+93774598+93760671+93863495
3904+93993696+94087271+94110972+94003371+93932228+94034913+94129925+94096401
3888+94159564+94244475+94119289+94085566+94143020+94094954+94158384+94325669
3873+94444650+94442895+94182958+93971710+93979591+93927550+93838208+93850925
3857+94081839+94454612+94454315+94070995+93958229+94081988+94135724+94082305
3842+94062520+94183047+94260642+94228694+94332291+94505216+94560211+94567655
3827+94493985+94358232+94291213+94167008+94192057+94446147+94391618+94187091
3811+94242721+94383777+94304823+94138450+94291897+94428631+94333361+94403513
3796+94445681+94284581+94172103+94175424+94201682+94131908+93969341+93892221
3780+93928620+93937423+93942845+93990921+94043170+94035319+93918083+93798508
3765+93680964+93608414+93642414+93581283+93449297+93487312+93671607+93670308
3749+93383666+93267540+93401796+93217362+92947918+93090897+93258916+93095566
3734+92811987+92666272+92609205+92592899+92516007+92384546+92320104+92217291
3719+92013865+91836023+91816703+91810102+91560879+91190743+90911585+90739383
3703+90531120+90147165+89691841+89250155+88767799+88331119+87962064+87450901
3688+86796413+86374711+86274515+86187026+86020376+85868198+85582229+85144608
3672+84990339+84925510+84578788+84269693+84055611+83743662+83405028+83153328
3657+82847381+82425580+82166058+81950836+81380392+80651504+80144406+79826335
3641+79452447+78967692+78485395+78020187+77542881+77123375+76633644+75882879
3626+75270563+74964844+74646378+74114835+73399934+72759323+72243343+71667634
3611+71075075+70519013+69961078+69451338+68909089+68226791+67533192+66928138
3595+66306638+65651351+65068977+64471292+63683142+62875549+62282672+61796796
3580+61264624+60679092+60039274+59346434+58695395+58151099+57548880+56758802
3564+56007695+55423397+54857260+54249712+53640663+53013057+52355292+51735269
3549+51142318+50448908+49701667+49049855+48459059+47849187+47214861+46586403
3533+46034068+45526682+44927759+44249797+43633665+43108893+42615528+42127908
3518+41606972+41032958+40471539+39989237+39554381+39084738+38580108+38048738
3503+37492528+36989045+36520410+36016538+35563055+35209817+34841126+34403242
3487+33975551+33624697+33251166+32712137+32151996+31791178+31548882+31228852
3472+30796016+30342297+29943179+29582417+29187733+28745988+28363082+28113087
3456+27877643+27546857+27186373+26833344+26450024+26057377+25727369+25496763
3441+25287937+24986765+24645291+24399065+24188303+23890665+23554393+23269191
3425+23069804+22945574+22799995+22569565+22355983+22234410+22107539+21878115
3410+21621805+21485702+21425962+21251954+20957981+20757353+20750388+20798487
3395+20746913+20600259+20527756+20582762+20603627+20530560+20465258+20463582
3379+20488046+20508584+20521290+20482468+20392485+20329546+20335231+20409795
3364+20549499+20723846+20889525+21010855+21080411+21149552+21264357+21418988
3348+21593229+21761106+21922773+22086733+22217061+22351218+22597464+22923655
3333+23217142+23460122+23682008+23914374+24199948+24537791+24850209+25082481
3317+25311618+25638508+26030479+26374584+26624000+26842474+27149437+27602053
3302+28105305+28530826+28893037+29264734+29648220+30063069+30546288+31035668
3287+31495364+31989070+32499289+32981437+33480147+33994182+34473267+34941701
3271+35495557+36169445+36865210+37518871+38168725+38824574+39468092+40103943
3256+40742695+41411072+42144174+42916757+43681493+44483823+45353004+46210096
3240+47041817+47909644+48780956+49624562+50529115+51522139+52506112+53433861
3225+54365506+55366172+56404198+57419441+58459520+59589580+60777524+61957623
3209+63087886+64165043+65228361+66337352+67505026+68667475+69786864+70918500
3194+72132951+73413004+74682925+75903482+77088979+78273127+79477482+80698980
3179+81902844+83073298+84255538+85466837+86682547+87904759+89125653+90312755
3163+91469019+92594039+93691709+94834661+96012157+97123973+98179972+99246536
3148+100331083+101392394+102391742+103355355+104354127+105402622+106433154
3134+107411448+108376072+109346128+110285712+111177786+112039309+112853787
3121+113625551+114399526+115156243+115861306+116570106+117335477+118111474
3107+118820254+119435687+120015831+120616693+121210824+121783930+122347054
3094+122852220+123251449+123600244+123996123+124432990+124843104+125210385
3080+125530968+125795109+126045333+126316006+126573763+126775038+126918037
3067+127041548+127149694+127193369+127188780+127193389+127185241+127106366
3053+126948964+126754519+126552173+126300770+125975270+125624157+125239062
3040+124757985+124176591+123541621+122895221+122189414+121337893+120392916
3026+119433189+118410051+117267724+115999270+114594507+113042939+111342999
3013+109472900+107384049+105072295+102557550+99787149+96688038+93231032
2999+89366440+85023962+80183451+74851702+68982874+62594591+55913030+49227528
2984+42769406+36921052+32260058+29250760+28141543+29129534+32308660+37522256
2968+44405241+52411189+60829089+68938674+76181600+82162153+86552067+89186774
2953+90198751+89846675+88356644+86069522+83452480+80867048+78523375+76603232
2937+75222730+74283468+73608435+73209399+73272473+73986521+75356976+77151849
2922+79055012+80773221+82059721+82789570+82956112+82563068+81626942+80271262
2907+78725369+77191807+75810031+74736285+74086430+73850877+73859333+73882692
2891+73858228+73825263+73795223+73836038+74096472+74790888+76153721+78349810
2876+81446831+85350126+89845069+94780161+100029235+105352870+110480564
2862+115287030+119752999+123816100+127476374+130874598+134088408+137072742
2849+139816497+142329349+144568821+146574098+148453982+150244830+151997980
2835+153833653+155795642+157764570+159623399+161394878+163106058+164716279
2822+166187070+167528897+168778280+169940769+171051654+172226613+173560490
2808+175071308+176729367+178432945+180056825+181564431+182968430+184254807
2795+185394557+186383992+187229219+187949765+188600784+189167903+189584410
2781+189882482+190150161+190406362+190594285+190674954+190685342+190684827
2768+190688990+190678403+190624816+190519683+190397956+190265544+190115844
2754+190027582+190056131+190165724+190319568+190492285+190689109+190968366
2741+191348673+191769165+192168603+192541891+192918153+193318582+193774799
2727+194311863+194891294+195510236+196246821+197113082+198051606+198988187
2714+199791880+200405033+200925444+201419131+201905581+202470797+203160238
2700+203942995+204772144+205596732+206418248+207225589+207979580+208705459
2687+209407806+210049963+210630742+211187711+211771542+212372840+212939880
2673+213458308+213929335+214358788+214767365+215130701+215394991+215615070
2660+215888499+216185817+216430321+216629068+216843617+217093196+217337164
2646+217560892+217786185+218009496+218201879+218340299+218420947+218463928
2633+218505641+218580481+218707243+218869809+219060567+219310305+219603876
2619+219897626+220193755+220486335+220733436+220925601+221103631+221266238
2606+221371688+221457372+221575847+221699517+221814126+221954944+222141162
2592+222332614+222465780+222560009+222672319+222787899+222890376+222994597
2579+223075563+223122945+223184681+223249390+223264893+223263168+223265964
2565+223228851+223172865+223155062+223150284+223104151+222999315+222835599
2552+222661811+222558423+222522658+222521469+222608125+222816388+223099789
2538+223433586+223827948+224276176+224721806+225121918+225506110+225883621
2525+226221581+226509205+226765881+227022796+227297652+227577266+227819153
2511+228040006+228336333+228715192+229075039+229409410+229797488+230229479
2498+230684150+231183645+231690634+232194174+232722852+233229405+233696368
2484+234185911+234695814+235175861+235645282+236160320+236724763+237291406
2471+237821452+238317895+238820701+239358082+239908290+240438594+240964437
2457+241508301+241994712+242345578+242637623+242949870+243214258+243397245
2444+243557511+243699103+243833874+243998820+244152326+244238427+244241976
2430+244212535+244222805+244230774+244160673+244044041+243950367+243954630
2417+244106490+244338822+244582057+244868848+245241859+245698512+246174118
2403+246610490+247055625+247552008+248044366+248494060+248900021+249275430
2390+249608474+249857973+250032038+250168277+250240342+250181461+250019013
2376+249868957+249731033+249498662+249202355+248909795+248464402+247870935
2363+247533233+247670780+248222515+249207113+250310047+250766879+250840371
2349+251578284+252845707+253392843+252932740+252549658+252808119+253379619
2336+253923384+254347564+254675790+255015355+255492309+256074000+256639989
2322+257093351+257407263+257683230+258026443+258413688+258787016+259170852
2309+259578398+259975774+260346881+260668267+260919532+261149900+261425391
2295+261736527+262030654+262265007+262443751+262612979+262783634+262931906
2282+263055437+263159797+263229126+263238959+263176589+263059521+262923481
2268+262800109+262696839+262585085+262475967+262464865+262635917+262997667
2255+263505905+264090034+264724063+265432219+266051874+266590881+267026797
2241+267388607+267717071+268047655+268382721+268694630+268947243+269158361
2228+269387917+269642889+269898792+270154576+270406753+270638886+270861741
2214+271125495+271429593+271711448+271984837+272306639+272628699+272877426
2201+273106744+273391830+273678720+273892495+274076136+274303174+274558363
2187+274811551+275078656+275374249+275689925+276008437+276334501+276672065
2174+276991488+277269933+277540011+277861020+278196125+278437636+278603275
2160+278814037+279092402+279369796+279596973+279768242+279910548+280039134
2147+280187208+280379671+280566285+280750084+281000754+281308401+281625386
2133+282007298+282533538+283144233+283766030+284424146+285116937+285794086
2120+286414654+286951540+287422625+287890440+288367196+288804520+289188712
2106+289517413+289783269+290021072+290274002+290591562+290952598+291283143
2093+291564046+291867728+292256976+292702448+293113622+293497080+293935296
2079+294408959+294854471+295292548+295762583+296248578+296715698+297141504
2066+297524586+297895931+298297708+298684517+299013417+299326437+299668025
2052+300071764+300519794+300942110+301276382+301530838+301786365+302078429
2039+302385303+302682879+302964556+303250217+303541825+303864579+304247602
2025+304621980+304906848+305162752+305472877+305774577+306019675+306326054
2012+306725273+307107384+307389159+307551844+307693317+307909213+308150347
1998+308369732+308608883+308868137+309058677+309157763+309314739+309498063
1985+309603850+309674626+309767546+309905093+310080526+310303778+310553872
1971+310799328+311066591+311321840+311519240+311778414+312099899+312364090
1958+312567060+312737794+312866162+312935253+312886503+312682938+312386373
1944+312043239+311491623+310744412+309966135+308979654+307760405+306552279
1931+305580448+305036108+305113387+305950525+307405416+309301793+311573323
1917+313697710+315544842+317329504+318888041+320185064+321323505+322383300
1904+323347041+324170837+324868882+325506340+326117313+326649540+327202761
1890+327771764+328165194+328576686+329068866+329505852+329945694+330386170
1877+330813462+331217459+331605973+332062587+332384528+332554707+332995302
1863+333575228+333999725+334334255+334665970+335000223+335323651+335614922
1850+335870548+336182041+336693253+336946183+336934367+337361084+337924952
1836+338199888+338417053+338783779+339053719+339053956+339290867+339649941
1823+339888636+340280659+340670026+340881521+341039131+341297929+341579962
1809+341788285+342005886+342232726+342469280+342647825+342656311+342671061
1796+342925299+343260106+343204318+342988462+343231201+343602606+343656689
1782+343664421+343733452+343665333+343656451+343830477+343781469+343455226
1769+343486312+343664540+343849509+344096848+344045302+344060409+344374638
1755+344715275+345340878+345928100+345984443+346049192+346405014+346856513
1742+347195087+347145723+346976376+347387550+347451229+346801161+346744144
1728+347045764+347087437+346833952+346414094+346275794+346158627+345378625
1715+344607307+344382449+344281420+343986223+343378383+342489422+341899385
1701+341493881+340236291+339253675+338664511+337641412+336860023+335967255
1688+334944078+334034419+332229555+330159607+329257106+328883044+328072928
1674+326675669+325709905+325365859+324710756+324256620+324513852+324687065
1661+324522060+324572614+325183487+326266081+326373811+325579456+326322821
1647+327810462+328456882+329046543+330100013+331307248+332820484+334254201
1634+335251051+336650391+338474149+340089307+341680476+343378859+344676933
1620+346016322+347938730+349514673+350592013+352122834+353781726+355027064
1607+356043065+357048440+357996837+358808638+359536976+360215314+360807611
1593+361315215+361776507+362175628+362510792+362797544+362954638+362948968
1580+363080171+363521163+363411490+362781089+362910190+363207925+362769432
1566+362259131+361879757+361832890+362067382+361054316+359659376+359546016
1553+359609219+359250304+358604201+357865792+357183647+356617401+356097743
1539+354823103+353477449+353139826+352612001+351272810+350130245+349067536
1526+347697219+346456718+345089415+343112171+341364224+339844783+338089501
1512+336202025+334290759+332299002+329204569+325451226+322617257+319955389
1499+316029805+310604169+304422004+298284227+291717473+284844797+279605438
1485+276826285+275474465+274297206+272849274+271150891+268800655+265117771
1472+259972879+254590799+249673659+244121439+237309943+230450926+224875372
1458+221233367+220383898+222635384+226663464+230870942+234956416+239144406
1445+243216161+246491737+248411052+249117543+248723299+247556825+246674426
1431+246145371+245506446+245040177+245054392+245431050+246321518+247687295
1418+249142483+251044451+253505053+256065614+258564300+261093180+263601879
1404+265734037+267353378+268427664+268524094+267417790+264920154+260984876
1391+255849896+249057770+240867631+233763734+230281480+231505844+237474472
1377+247412775+260551537+276228219+293431558+310630298+325246948+335157516
1364+340225268+341543920+340975651+340004336+338942579+337625433+335958096
1350+333903930+331563131+329251416+327185037+325380926+323779666+322396265
1337+321521677+321338156+321748557+322704349+324254400+326393775+329033914
1323+332102654+335594740+339425560+343438969+347665935+352218828+357102800
1310+362249496+367466770+372580953+377591648+382457302+386978395+390946445
1296+394271325+396924371+398790674+399729435+399650333+398365146+395659524
1283+391549606+386514288+381602916+378342309+378287988+382217894+389660227
1269+399242370+409470339+419192409+427720885+434854064+440702769+445517592
1256+449478385+452613262+455029912+456965959+458562164+459763094+460497300
1242+460894200+461272702+461826737+462618554+463837684+465591380+467723419
1229+469977542+472106053+473967637+475576887+476975474+478175651+479213420
1215+480078273+480738729+481243082+481657428+482009880+482264673+482379778
1202+482429936+482510625+482535406+482429976+482217965+481998342+481782406
1188+481408979+480815810+480127638+479415200+478634207+477654209+476338967
1175+474692882+472773131+470490103+467728495+464573833+461133767+457386055
1161+453437038+449678977+446481730+443836615+441493715+439282057+437089274
1148+434733527+432052924+429001353+425574531+421780111+417670748+413318090
1134+408752985+403958701+399012398+394076880+389130022+383922026+378124985
1121+371400998+363430641+353809402+342009613+327573730+310233240+289794609
1107+266057584+239187705+210171234+180719958+152893414+128818350+110351760
1094+98607948+93854117+95863449+104089937+117596029+135125344+155069396
1080+175305979+193467826+207460854+215953149+219135169+218641265+215334940
1067+207441049+191858398+167110626+135175899+101173187+71119483+49096122
1053+35932343+30362318+31117722+38256960+53384477+78864016+116298104+164960070
1038+221163365+279355898+334581356+384233956+427567121+464266146+493454203
1024+513230455+522109439+522556973+522592222+530875420+549082350+571844591
1011+593582425+612140261+627473095+640059070+650371931+658647754+664875041
997+669229325+672311189+674564995+675907794+676183126+675432862+673655574
984+670577754+665475387+657124387+643830732+623750322+597165906+570269361
970+554708617+559218053+581568287+611310180+638935062+660410490+675677901
957+685975655+692561817+696553260+698918008+700319331+701048580+701188467
943+700905284+700426942+699737026+698723563+697478383+696113934+694542273
930+692558487+690063607+687182929+684117956+680764884+676787794+672105721
916+666786704+660832291+654177216+646650586+638267429+629182620+619264677
903+607981176+594227655+576358031+552663095+521451085+481050223+431124828
889+374587340+317555492+267396121+232189634+221828975+245517964+304188641
876+385715928+470463061+542444325+595361338+630602420+652236330+664134095
862+669759292+672376136+674550403+677227040+679711929+681171300+681548295
849+680946165+679416454+677311892+675037468+672652499+669949693+666913982
835+663772484+660590741+657241832+653605695+649701126+645633435+641388626
822+636709963+631167596+624500111+616794420+608034823+597859668+586339533
808+574814443+565972690+562722907+566034188+573930279+582858192+590033440
795+594555167+596738197+597274587+596867497+595887063+594416907+592607780
781+590686204+588754875+586666847+584308999+581935330+579788025+577792621
768+575712166+573422358+571049006+568635648+566021182+563252517+560826985
754+559265871+558388765+557469511+556201572+554788949+553353963+551881666
741+550283241+548504327+546641355+544850983+543243874+541721340+540135445
727+538512635+537039544+535905742+534539748+532925621+531403285+530096410
714+528831008+527471199+526117258+524979729+524125184+523388362+522591112
700+521693904+520785078+519945917+519181736+518472232+517799247+517186252
687+516774682+516673811+516718299+516643677+516465726+516295983+515875174
673+515391637+516201615+518190437+518898712+518451178+518804344+519865388
660+520787457+521644856+522734488+524117294+525732015+527392017+528972243
646+530611944+532443037+534424008+536517310+538756326+541120161+543559214
633+546061389+548563922+551073314+553716526+556693356+559696752+562613035
619+565665400+568990122+572420354+575906929+579466619+582991972+586523313
606+590220511+594160329+598382696+602713705+606891386+611060581+615595036
592+620484679+625267464+629816074+634272299+638590064+642906442+647430310
579+652201993+657255511+662342652+667112709+671642604+676462264+681631165
565+686552171+691014184+695523223+700486418+705815109+711266240+716584860
552+721665737+726482542+731279918+736317972+741325813+746192577+751328964
538+757003406+762569920+767244857+771329399+775557713+780318611+785402818
525+790223113+795080678+800233639+805075027+809516264+814056865+818810626
511+823500787+828068905+832534963+836880008+841206973+845363282+849768120
498+854467719+858415943+861498441+864388873+867214596+869736359+872267003
484+875409136+879206451+883344204+886891246+889198183+891116071+892749983
471+893373921+893668602+894367004+896148653+898866209+901078462+902326417
457+902187403+901123346+900017735+897150221+891874979+885827426+880165910
444+874369027+867199291+858826879+851479826+847453967+847309243+850941374
430+859502997+874152061+893538391+914784877+936153487+958766484+980437389
417+996732180+1008961937+1018775639+1026973668+1035167494+1043753463+1052109459
403+1059359527+1065737605+1073741823
##END=
