##TITLE=19
##JCAMP-DX=4.24
##DATA TYPE=INFRARED SPECTRUM
##DATE=16/11/2015
##SAMPLING PROCEDURE=Instrument type and / or accessory
##ORIGIN=Default
##XUNITS=1/CM
##YUNITS=TRANSMITTANCE
##RESOLUTION=4
##FIRSTX=3996.3359
##LASTX=399.24785
##DELTAX=-1.9287336
##MAXY=0.81436342
##MINY=0.015388901
##XFACTOR=1
##YFACTOR=7.5843504e-010
##NPOINTS=1866
##FIRSTY=0.069606349
##XYDATA=(X++(Y..Y))
3996+91776283+91797551+91806059+91776676+91743060+91796746+91934483+92069852
3981+92194367+92359197+92494243+92504459+92501945+92593137+92687621+92761878
3965+92886618+93016909+93094309+93126314+93115174+93140657+93293463+93468658
3950+93507530+93471369+93526509+93650788+93710358+93637094+93510929+93508797
3935+93620649+93716636+93823075+93960782+94029489+94021640+94054175+94162137
3919+94312517+94444419+94515444+94539796+94532851+94531721+94571713+94619417
3904+94681758+94740061+94683044+94600801+94664380+94804189+94827530+94813109
3888+94839034+94788039+94790574+94839397+94759885+94744580+94850419+94897209
3873+94911267+94870656+94845724+94912937+94884124+94760209+94696758+94764109
3857+94900206+94921326+94846912+94928016+95023580+94967321+94847345+94808080
3842+94909862+95019661+95011664+95000888+95015142+94972036+94982056+95092149
3827+95193058+95250162+95151965+95035231+95170385+95214895+95045890+94976712
3811+95043463+95059692+94954461+94980209+95061333+94947614+94876796+94912298
3796+94900412+94854752+94788590+94770023+94863642+94955414+94930276+94774178
3780+94519167+94360525+94396185+94477996+94478281+94358826+94226256+94164062
3765+94195144+94327852+94376538+94216835+94048517+94069559+94179289+94186755
3749+94184181+94310749+94194555+93844775+93754506+93843557+93830236+93686448
3734+93507442+93344988+93276026+93205640+93072658+92983931+92901638+92729813
3719+92492416+92285903+92158520+92024094+91804801+91541951+91327196+91177455
3703+90918936+90488544+90056294+89671405+89319218+88999783+88592309+87976005
3688+87375202+87041365+86845433+86653725+86504475+86326579+85956366+85698623
3672+85660115+85451687+85128391+84861326+84563828+84180009+83762063+83348135
3657+82934157+82683733+82577943+82242746+81623494+81049932+80643273+80240736
3641+79765302+79284769+78830063+78367793+77958448+77583686+76928259+76091807
3626+75519767+75149043+74725773+74154121+73534246+72993146+72435012+71828752
3611+71239659+70640324+70070313+69572128+69033189+68377202+67702692+67068233
3595+66397648+65701237+65067058+64393123+63588529+62855878+62328129+61878973
3580+61350766+60681394+59960792+59331275+58806679+58261782+57583367+56827724
3564+56108694+55430073+54792869+54188559+53582711+52960355+52301671+51653425
3549+51053339+50433213+49789849+49181698+48596048+47979139+47326870+46716877
3533+46176696+45648239+45112743+44558254+43935701+43290638+42734370+42248970
3518+41734311+41157219+40576616+40061237+39571807+39053854+38545417+38058475
3503+37559816+37066694+36605252+36157535+35713443+35285490+34871608+34452952
3487+34000940+33518426+33069064+32704020+32384610+32037620+31644864+31201804
3472+30700271+30185378+29733040+29382314+29060114+28693320+28354510+28086279
3456+27808052+27479135+27132663+26779437+26386689+25998137+25721155+25499377
3441+25181463+24762736+24378787+24146303+24017454+23856789+23635578+23425917
3425+23267975+23127097+22961734+22765293+22554503+22319868+22033772+21746284
3410+21547404+21439769+21329023+21137396+20920146+20794581+20750507+20706244
3395+20639466+20546834+20483523+20506982+20539051+20513232+20469167+20416074
3379+20339101+20290335+20307920+20339881+20328650+20317036+20394377+20525179
3364+20614909+20703683+20873447+21085606+21250353+21321014+21329089+21396727
3348+21550695+21704077+21877608+22089838+22285981+22501831+22775205+23047182
3333+23277109+23483398+23682098+23895791+24180926+24543082+24887373+25141193
3317+25345409+25577716+25863045+26185759+26504985+26788045+27116535+27572216
3302+28072025+28534840+28964007+29359406+29737760+30130089+30564629+31064350
3287+31616017+32167717+32691461+33197247+33659810+34092126+34578523+35104600
3271+35613483+36175458+36845150+37536205+38181850+38819109+39467514+40097631
3256+40752874+41510764+42321130+43090541+43824979+44553047+45290413+46126261
3240+47094571+48041441+48901936+49810445+50776539+51689222+52609445+53628907
3225+54656350+55640284+56643291+57679462+58732476+59817200+60956122+62120334
3209+63253583+64341819+65440415+66625188+67877852+69122790+70332113+71514126
3194+72678102+73848327+75068725+76341823+77609812+78810455+79934970+81066667
3179+82284614+83547466+84822700+86155245+87477151+88645927+89687781+90778370
3163+92004633+93271734+94476179+95612772+96701770+97753919+98805194+99924469
3148+101111752+102252461+103263626+104210761+105221278+106296739+107320174
3134+108268046+109207263+110139033+111071865+112042783+112981843+113799846
3121+114548505+115326870+116105195+116826907+117551341+118323537+119119761
3107+119893578+120575799+121148251+121669512+122206029+122770112+123306187
3094+123754979+124159329+124609035+125060666+125432235+125781072+126159183
3080+126514278+126825137+127103037+127339560+127557036+127778568+127973302
3067+128099644+128170816+128242076+128318652+128343967+128293650+128190718
3053+128034415+127818079+127561329+127262867+126918206+126553228+126157179
3040+125664642+125064674+124403741+123694102+122943440+122151842+121255034
3026+120237365+119167396+118037777+116753967+115273125+113645193+111891057
3013+109949241+107810668+105514228+103016258+100226633+97062100+93465082
2999+89459824+85080894+80223869+74781954+68806023+62416512+55730902+48963599
2984+42471073+36702945+32138671+29176271+28094828+29107056+32331062+37645991
2968+44615830+52646122+61107175+69327186+76693774+82741437+87136212+89739600
2953+90684957+90273947+88827762+86624922+83938564+81161455+78718428+76831643
2937+75496972+74576071+73905677+73481979+73536726+74302011+75746398+77579870
2922+79445612+81110441+82408308+83146151+83260390+82833642+81920207+80588905
2907+79020067+77450188+76101056+75114862+74524786+74268503+74202537+74188347
2891+74184884+74194472+74202704+74256685+74515208+75209930+76590365+78836380
2876+81964291+85864829+90428669+95519840+100915269+106337586+111522622
2862+116346935+120817116+124945808+128770047+132353194+135677970+138693813
2849+141438799+143964217+146264487+148342331+150269235+152160891+154050210
2835+155893436+157728332+159616688+161504926+163321579+165056431+166697644
2822+168230700+169663180+171010746+172276166+173485297+174738300+176110798
2808+177586090+179160130+180820165+182463952+184008049+185437838+186752494
2795+187943314+188956031+189763101+190443151+191067148+191629334+192093559
2781+192443496+192733804+193012088+193216891+193274791+193230329+193198913
2768+193206261+193189836+193117810+192986055+192821608+192676611+192573483
2754+192518215+192502929+192544523+192691386+192943519+193266971+193621074
2741+193971384+194325663+194698215+195078015+195454751+195849877+196311254
2727+196839765+197396882+198032981+198839363+199791980+200776484+201683479
2714+202495303+203219442+203767757+204171705+204645321+205279790+206008428
2700+206785418+207590719+208387179+209172912+209975738+210777090+211516848
2687+212189472+212853490+213494579+214076963+214651645+215235581+215794958
2673+216337025+216846243+217264317+217637005+218035687+218396175+218685284
2660+218960797+219231949+219464533+219653638+219856928+220111714+220357363
2646+220521889+220650952+220843672+221073211+221239839+221328094+221376191
2633+221431557+221557044+221747190+221923563+222093708+222346058+222666308
2619+222956773+223197962+223413237+223596310+223772919+223969490+224156473
2606+224317227+224466231+224601719+224713983+224806168+224899492+225022248
2592+225181273+225348295+225487751+225615497+225759649+225893859+225999286
2579+226080646+226132966+226172890+226222283+226260556+226258218+226217705
2565+226145796+226067482+226025535+225988834+225896846+225772066+225651609
2552+225518361+225401656+225376370+225426157+225522369+225727899+226064358
2538+226463295+226868284+227267516+227664194+228066865+228472914+228859651
2525+229219686+229565183+229882820+230141771+230366496+230618551+230895774
2511+231156551+231417172+231721606+232065472+232446668+232879478+233338044
2498+233819147+234323609+234801116+235264732+235768370+236289375+236818043
2484+237385495+237944263+238445936+238951538+239510895+240071254+240576523
2471+241056662+241579750+242162390+242748919+243309789+243861543+244379778
2457+244859976+245319860+245708187+245997022+246267348+246574454+246843150
2444+247027520+247189688+247364057+247528525+247645288+247700222+247712148
2430+247659120+247536207+247427715+247369303+247314704+247256508+247241753
2417+247325902+247524772+247822251+248219184+248700719+249199700+249661214
2403+250084022+250494905+250955889+251441903+251902238+252334241+252741391
2390+253066160+253269333+253400065+253501642+253529835+253414290+253216737
2376+253059028+252902754+252674787+252446604+252231172+251890155+251426912
2363+251076208+251229732+252151345+253450126+254434434+254675132+254615994
2349+255216237+256425859+257155814+257055829+256885507+257047498+257424097
2336+257868360+258274626+258608688+258945973+259378035+259854461+260325484
2322+260851677+261373056+261791955+262169870+262584604+262976488+263303202
2309+263610445+263936334+264257410+264555714+264832995+265083085+265318911
2295+265562006+265795514+266007429+266201799+266364695+266483030+266577592
2282+266679876+266803732+266923914+266977905+266939613+266853675+266758111
2268+266646574+266503247+266334006+266184254+266128378+266246988+266611150
2255+267191746+267861501+268569273+269330113+269963226+270481913+270880104
2241+271224225+271560429+271888656+272188493+272451078+272707809+272969215
2228+273216240+273453147+273704494+273981599+274248173+274478733+274709038
2214+274980209+275289418+275594716+275862312+276105093+276362983+276638948
2201+276918253+277208600+277511148+277810631+278070486+278283207+278482076
2187+278689629+278927204+279203601+279520865+279888583+280280605+280645002
2174+280976883+281305719+281618504+281892838+282158941+282459622+282770481
2160+283029039+283234608+283427131+283615391+283787933+283967745+284152586
2147+284267719+284333518+284461637+284668994+284937061+285291832+285718983
2133+286185271+286700245+287258580+287851790+288491131+289156485+289825120
2120+290492635+291139953+291716050+292197132+292641926+293083911+293489233
2106+293826891+294101913+294366326+294634216+294880337+295153964+295519089
2093+295931622+296316001+296691283+297086389+297465129+297848152+298308310
2079+298808961+299268177+299716055+300208592+300727633+301225376+301655592
2066+302026375+302427808+302860047+303233581+303545402+303867499+304244648
2052+304641129+304998218+305337172+305709468+306077618+306365391+306614852
2039+306918422+307268870+307622972+307952712+308248207+308543976+308891163
2025+309254362+309557067+309817413+310071452+310342682+310689986+311069100
2012+311416718+311746890+312022718+312230782+312446784+312700528+312940480
1998+313138387+313329299+313488344+313585264+313746292+313933393+314058153
1985+314170928+314314943+314511553+314713939+314866913+315008196+315202271
1971+315465623+315733317+315991108+316322184+316656954+316906768+317104459
1958+317289182+317462353+317603892+317683797+317663305+317517817+317262344
1944+316780633+316098697+315431437+314630085+313554889+312348057+311157178
1931+310140964+309569170+309730670+310616486+312143038+314212188+316333128
1917+318427367+320551785+322390924+323869694+325156491+326372027+327462842
1904+328372706+329164745+329925467+330644478+331244937+331822880+332390411
1890+332800292+333270725+333845329+334311362+334732795+335175330+335618021
1877+336027549+336449493+336979065+337347804+337520268+337966850+338587389
1863+338996759+339255631+339557137+339931693+340305305+340615692+340901284
1850+341278590+341830088+342107468+342132656+342571222+343084919+343311412
1836+343545647+343974507+344351302+344502664+344827197+345142300+345249142
1823+345530883+345842881+345973064+346127806+346484954+346834832+347024074
1809+347238583+347548656+347858100+348016299+348012763+348116265+348468265
1796+348837319+348813545+348652556+348921330+349210341+349119925+349017995
1782+349059765+349101810+349271405+349547842+349544934+349279617+349307320
1769+349428504+349534403+349666236+349506975+349449291+349745847+350110185
1755+350717717+351273302+351457633+351754974+352271579+352691912+352923357
1742+352939585+353009097+353509120+353489865+352822488+352782368+352994047
1728+352879229+352631595+352375002+352358302+352296924+351661610+350995294
1715+350733985+350517198+350112425+349505836+348725722+348292933+348116893
1701+347187736+346314730+345596387+344339788+343363124+342429054+341379734
1688+340518910+339036367+337142216+336074309+335311524+334177171+332686456
1674+331675212+331192793+330378729+329736893+329738661+329615257+329290606
1661+329418843+330075376+330848691+330799927+330579485+331972592+333260430
1647+333291198+333575572+334694286+335946759+337221001+338296334+339340114
1634+341092727+342992498+344407100+345840013+347511562+349034380+350690329
1620+352507739+353765949+354941365+356770799+358465963+359595798+360561578
1607+361604139+362654599+363588590+364399786+365110977+365719256+366271775
1593+366809796+367279404+367644332+367957863+368238308+368475489+368827372
1580+369271635+369166522+368833855+369257332+369478835+368906982+368565042
1566+368535492+368667757+368782458+367825794+366737415+366835141+366664406
1553+365890029+365050463+364451144+364063700+363642738+363039607+361759706
1539+360484286+360174488+359437913+357860121+356666393+355739986+354515412
1526+353345340+352101198+350313534+348660926+347068437+345157350+343287325
1512+341598172+339856365+337010461+333232846+330309807+327844549+324455300
1499+319758763+314077211+308277068+302171922+294944642+287706989+282503553
1485+279692720+278108837+276767461+275448580+273930614+271549269+267496258
1472+262291958+257255975+252103052+245887567+239019203+232625969+226946677
1458+222628094+221830278+224784104+228903012+232729392+236583554+240938582
1445+245279642+248711407+250834567+251403296+250700258+249891106+249262473
1431+248403967+247614894+247308161+247431683+247997937+248841727+249822085
1418+251454831+253672140+255953795+258320660+260912583+263594177+266071931
1404+268318221+270218836+271294700+271381384+270149069+267328392+263420496
1391+258256276+251068271+242729232+235744282+232209369+233385591+239533372
1377+249759764+263161172+279354276+297270327+314942771+330011758+340283928
1364+345288318+346524052+345962180+344828848+343594529+342249596+340568499
1350+338390759+335899920+333503506+331453237+329620070+327816492+326378805
1337+325642367+325508157+325896524+326891421+328533636+330745936+333456981
1323+336618656+340166909+344076948+348333288+352832822+357531422+362515025
1310+367752824+373119627+378498965+383753504+388749092+393346430+397410227
1296+400811991+403496041+405415695+406409767+406271922+404836926+401978605
1283+397699828+392434011+387301915+383960232+383958228+388038883+395828349
1269+405932339+416629912+426676885+435484354+442881150+448911833+453776963
1256+457747593+460974418+463500425+465485937+467102670+468297615+468980986
1242+469335697+469710370+470256642+471037070+472275672+474101452+476343753
1229+478685469+480881992+482830252+484502312+485883867+487007925+487964511
1215+488767611+489409251+489956309+490448669+490865191+491132001+491214598
1202+491217309+491249373+491268863+491182651+490945194+490621958+490282257
1188+489819957+489123737+488294702+487459812+486570853+485491472+484134240
1175+482471219+480483192+478113341+475276161+471971533+468310622+464363608
1161+460226290+456246386+452804582+449951290+447477584+445203258+442991214
1148+440559552+437677655+434396682+430807248+426870018+422557093+417970325
1134+413220603+408299007+403245460+398178710+393048420+387596702+381490455
1121+374431160+366146583+356202207+344025590+329163449+311332392+290309857
1107+265974638+238606179+209206843+179486254+151536217+127510943+109189364
1094+97539990+92843099+94954766+103308108+116950656+134648906+154755438
1080+175093149+193336228+207422558+215993670+219236291+218708409+215189056
1067+206989592+191106069+166044216+133873803+99890626+70057513+48267350
1053+35258204+29737568+30479134+37617114+52701542+78053118+115555573+164810487
1038+222094809+281674675+338533830+390031664+435267645+473690156+504179502
1024+524657318+533667506+533933805+533921034+542685829+561875767+585780181
1011+608569692+628073083+644290353+657628280+668458079+677024829+683413171
997+687873332+691026008+693298488+694579174+694687469+693676815+691628707
984+688266042+682762769+673841975+659710260+638397554+610287215+582050544
970+565943455+570914759+594453773+625631008+654559498+677020428+692909786
957+703602290+710495016+714662905+717078338+718487674+719169198+719218866
943+718865844+718335447+717578635+716456384+715038953+713407603+711500405
930+709238378+706562502+703457372+699992148+696185297+691902118+686973017
916+681301407+674895382+667792823+659901388+651071994+641347785+630796073
903+618896089+604357911+585525553+560639484+527843119+485604208+433974070
889+375964038+317617449+266500831+230897974+220641993+245028943+305275991
876+389256266+477011681+551985775+607225270+643928176+666423332+678798347
862+684586348+687129723+689087925+691521983+693927435+695522320+696063877
849+695507703+693880125+691537387+689005957+686475313+683647052+680351187
835+676796214+673212163+669630234+665792812+661520243+656988684+652349929
822+647358782+641577029+634767254+626812790+617491586+606613219+594464186
808+582340773+572977798+569505069+572979527+581365916+590856126+598328564
795+602890144+605080380+605661113+605329035+604407658+602756661+600482610
781+598142504+596034394+593913316+591523032+588978164+586476440+584166985
768+581995099+579625366+577056999+574546592+571912525+568951134+566204056
754+564402325+563430140+562491905+561119309+559458527+557725404+555984540
741+554270003+552586195+550880185+549116177+547308355+545503834+543831538
727+542248049+540623457+539189247+537580727+535783201+534071965+532631389
714+531370389+530170021+528970046+527773646+526677526+525606555+524439430
700+523355884+522564847+521939396+521251507+520434771+519592297+518900360
687+518405642+518053210+517904637+518006999+518143430+517970023+517248262
673+516496362+517263469+519338454+519888105+519111135+519325958+520436382
660+521490417+522454233+523446104+524482379+525767859+527367891+529002464
646+530612438+532453621+534552379+536718370+538906563+541141123+543463624
633+545985388+548744922+551642577+554465611+557349474+560167479+562928938
619+566155174+569854633+573426699+576803628+580267438+583860016+587587571
606+591443893+595270509+599301299+603883784+608497626+612659384+616891755
592+621577663+626220072+630626321+635301737+640150521+644638109+649005771
579+653868465+659150706+664305594+669045846+673750105+678881730+684223974
565+689253434+693996751+698917915+704059757+709149259+714153491+719154344
552+724083446+728864486+733657078+738576199+743628764+748858468+754043063
538+759068357+764150236+769191012+774079248+779010943+783829784+788487046
525+793421334+798448201+803266335+807935778+812463761+817064047+821869921
511+826718233+831234663+835658752+840507536+845299028+849646885+853517236
498+856991734+860305910+863430451+866573304+869815493+872750791+875415194
484+878502720+882247171+886007497+889238840+891932007+893983887+895520852
471+896820635+897348910+897385533+898241367+900413566+902842909+904016950
457+904094203+903048655+900327197+896595006+891777029+885601742+878464133
444+871138145+864111818+856404124+848018521+841608332+839298208+842340388
430+852440724+868838081+888690604+910671394+933765791+955744460+976147656
417+993555510+1006554601+1017235631+1026942314+1036001896+1044074714+1051290677
403+1059465818+1067444487+1073741823
##END=
