##TITLE=павел 6-многокр
##JCAMP-DX=4.24
##DATA TYPE=INFRARED SPECTRUM
##DATE=3/2/2015
##SAMPLING PROCEDURE=Instrument type and / or accessory
##ORIGIN=Default
##XUNITS=1/CM
##YUNITS=TRANSMITTANCE
##RESOLUTION=4
##FIRSTX=3996.3347
##LASTX=399.24773
##DELTAX=-1.928733
##MAXY=0.35306385
##MINY=0.030542687
##XFACTOR=1
##YFACTOR=3.2881634e-010
##NPOINTS=1866
##FIRSTY=0.29684636
##XYDATA=(X++(Y..Y))
3996+902772545+904773950+901226581+898266617+899422397+902284474+905237096
3983+905319665+901418999+899576658+903105357+909563565+915811319+918032696
3969+917362540+919034306+921641698+920364739+916148210+913196767+911657872
3956+909896559+909135677+910141908+913898192+919736728+921721276+920091655
3942+921387466+922655271+918135658+913821787+915995037+919377360+917809190
3929+915484036+918076292+922432309+922880137+919826276+917032266+916946343
3915+917461604+915683070+914811795+917561212+919143612+917786078+919950627
3902+925633905+928255074+929079673+930532101+928876197+923448329+920963928
3888+922978295+925435052+927576670+928143683+926824670+927123313+927649269
3875+925136137+921443479+918591462+918057168+919078989+918093785+916501143
3861+916215371+915593523+915807603+917383114+916294223+913337432+913480545
3848+915446422+915864069+913881334+912211744+911877300+912210112+913689913
3834+914892188+915168081+914464299+910894633+905931814+902632332+900240289
3821+899663849+901867462+903503336+903262881+901848428+900759356+900003006
3807+896646333+891536050+887636382+885677846+887232058+890234076+890644019
3794+888258229+886127669+885462950+884161158+882400026+884266838+888248894
3780+889111741+887408615+886661510+888729170+891061575+889792411+886654078
3767+882791751+878772716+878327878+881448719+884473033+882592897+874876945
3753+865487685+858695033+856437855+856809368+859504496+863599392+863502594
3740+859481656+854755485+850590981+847098626+845362238+843390379+837069846
3726+829688790+825635766+821872866+816423790+810215915+804514420+801263427
3713+799096431+793250100+783286124+771995429+760424038+747935917+731422055
3699+710277415+689035116+672806028+660926613+645540569+623270014+603085699
3686+589698296+578102298+567182482+560308440+556116246+549843749+545474998
3672+544836428+540928512+533961115+526879608+518226760+509952132+503811010
3659+497641837+491158115+487247072+484481113+477604079+467991450+461804195
3645+456807705+450908806+445692254+439397008+431327623+424616044+418931497
3632+412430237+404898862+396610775+388449713+380278591+373011871+366820402
3618+362266506+361092101+358689612+351685394+344769954+340311338+336386428
3605+331807811+325850249+319500100+313378692+305833473+297914679+293143077
3591+291446070+291181891+290624439+287013081+282794105+279493648+274985500
3578+271423946+269100083+264765004+259562296+255459559+251099736+244740773
3564+238477634+235006556+233682082+233167795+232189525+227299055+218331159
3551+212084969+210964967+209705773+206385671+203364778+199303870+194165740
3537+192789332+194304049+194496173+193903170+193055663+191194357+188258242
3524+183447690+177202757+172347658+168623924+165726023+166716450+169636409
3510+169805795+167756613+164961731+160677554+156368509+154565424+153957126
3497+152438205+150630748+150081385+151286595+154222336+155929245+152107047
3483+144936662+139256748+137208688+138729864+140939186+140611268+137304524
3470+134643294+133891951+131369518+127801903+126901680+127661056+127324391
3456+126552599+126222483+125242671+124249752+123358922+121144636+118517633
3443+116543894+115717663+116880014+118304958+118299123+118361582+118431586
3429+117066847+115380761+114373816+112743176+109965333+108110507+108592811
3416+110041240+109384293+105777059+103777750+105111695+105393593+103935670
3402+103282893+103265978+102981837+102330510+102303399+104429790+107292785
3389+107982915+106566208+103923321+100533181+99400887+102224467+105261459
3375+105961139+105575566+104625698+103939771+104141967+103455689+101564156
3362+100494933+101518759+104729192+108254526+109577720+109540730+110154013
3348+110125247+107654929+105007975+105499942+108578638+111512045+112299098
3335+110151667+106911404+107520325+112957857+116196160+114874281+115597243
3321+119728145+122421573+123584093+125691927+126578011+124599853+124296905
3308+128192246+131699894+131492283+129187522+127209262+126786789+126695553
3294+125718211+125366151+126878421+130243716+135152584+140371821+143557580
3281+143730647+143922318+146491768+149149463+149651729+148478536+147376016
3267+147469597+148254917+150837169+156169327+160478938+161082149+160630197
3254+162467066+165898819+167346659+167179709+168267795+168980108+168179653
3240+169348303+172956704+175761080+176713928+177490342+180422515+184431863
3227+186550630+187571737+188606145+189056114+190852141+195853253+201684425
3213+205380799+205991159+204774518+205151175+208045337+211158360+213037544
3200+214378854+216532708+219092698+221728074+224969754+228279093+231579097
3186+235158053+238508042+241554199+244501813+246625712+248357093+251969902
3173+257321387+262629730+267246164+271096481+275291802+278635922+278817215
3159+279402673+283282628+287666017+290771382+293006422+294847132+296741248
3146+299339441+302894424+306937500+311796700+317109054+320966124+322312962
3132+322171526+323164706+326501734+330092632+332420075+334695176+337234184
3119+340091231+343831178+347048545+349779767+353255467+356648213+359704658
3105+362670739+364442769+365170162+367364802+371059091+374106857+376839689
3092+379154125+379920763+380696509+383504523+387949588+392768524+396792725
3078+398572709+398755747+400320382+404481623+408668243+409335952+407247310
3065+406357681+407832405+410345990+412562972+413691470+415001058+418063212
3051+421866082+423954724+423213782+421541790+421323993+422619442+424409214
3038+425513196+425514691+425163979+424401238+423022678+421360701+418851375
3024+415531273+412519286+409878540+406654511+402575158+398017931+391892852
3011+383135728+373124009+363150267+352853183+341293710+328133485+313420089
2997+296803560+278863439+260334281+240557824+219701835+198571130+176213112
2984+153130341+133134955+118160326+106984716+98379417+92886768+93937190
2970+104512291+122661767+144959150+170506631+197962220+224285685+247529504
2957+266518046+279505997+286117425+288739319+289306468+287119124+281589971
2943+274439469+268609407+264691906+260349530+255480904+252905959+253434996
2930+255704229+258970290+262467810+265241609+267610880+270254481+272870076
2916+274420549+274631049+274527476+274361704+272448554+267484761+261623793
2903+257837509+256329181+256286333+256443336+255479658+253835876+252853254
2889+252729764+252871042+254516455+258304144+262336253+266445561+271339089
2876+276640974+283556958+293401546+304728290+315492689+324978407+333616776
2862+342814682+352714262+362358999+371835699+380653820+388029211+394473734
2849+400784298+407597343+414201928+419053764+423202996+428481588+433978656
2835+438615732+442748469+446370114+449703177+453563737+457742335+461769210
2822+466101118+470440548+474025395+477246207+480204266+482720570+485951714
2808+490977570+496897043+501993458+505920861+509614380+514092301+519529867
2795+524548834+527475761+528885274+530862480+533409147+535828652+539081231
2781+542154216+543629168+545813430+549528792+552303950+553494443+554174478
2768+554986071+556031729+557099230+558476476+560068664+560710180+560231808
2754+560433969+562342746+564023349+564008439+563551275+563959632+564982676
2741+565199340+564875092+565269945+565017299+563794585+563212481+562753505
2727+562073831+562435828+564232127+567258525+571120037+574614747+577317986
2714+580390473+583836331+585788930+586305369+587578838+590373982+593898330
2700+597211272+600717402+605782911+612112463+618404129+623408006+626517019
2687+628529890+630222592+632028090+633837848+634485209+633617106+632372821
2673+630882099+628015399+624207544+621329334+620353601+620256803+619608444
2660+618924511+619526329+622252544+627404881+633559416+638548837+642923751
2646+648850656+655084588+658761385+660646460+663265862+666911571+669874479
2633+670877629+670782191+671086997+671694841+672634094+674272233+674937360
2619+674287596+674821800+676482281+676837435+675490914+674134060+674150601
2606+674498006+673953651+674060600+675419357+676176388+676207068+677085096
2592+678944929+680469050+680934552+681338967+682400440+682681092+681986691
2579+682152644+682801456+683188740+684338764+685923157+687217246+689237730
2565+692362876+695214938+697063669+697796771+696765887+695140255+694892005
2552+695467992+695408626+694068313+692046695+690887834+690682410+690437287
2538+689809956+688458540+686744992+685951209+685972145+685936118+685892477
2525+686044472+686781246+688329702+689321251+688899344+689290979+691534879
2511+693315497+694852669+697793055+700323317+701128022+701901683+703900189
2498+706191038+708187504+710887435+714108699+716899764+719169404+720630307
2484+720878783+720538584+720963437+722025182+722821639+723912569+725922358
2471+728866913+732201200+734916720+737477163+740747552+744103092+747020185
2457+749971538+753525297+757215010+759860061+761143681+761283169+761032563
2444+760843679+759660482+758026874+757111459+755710919+753066819+749330929
2430+745372211+743051815+741560640+738367337+733609308+729170360+725984806
2417+723909487+722389128+720959902+720554264+722082645+724195169+726158780
2403+728754888+731485499+733094817+733658432+734709120+736700556+738808639
2390+741553435+745400308+749372983+753128587+756649038+758671517+758947909
2376+758983755+759570617+762257678+766828409+767886394+764899240+765849912
2363+770916599+768248481+760120456+761414046+769434442+772018270+769304200
2349+769346345+774193876+779135577+780298154+780492748+778984941+775484339
2336+774477836+776191203+776115070+772923262+770856327+769822542+766623846
2322+763176719+761165706+759341900+757224617+755736569+755389300+754851879
2309+754836290+756712075+758183310+757532686+755336369+752117915+749437651
2295+748864973+748857360+747610718+746001944+744768128+743650506+742916270
2282+742846300+743315382+743677741+742942736+741391198+740135719+738811177
2268+736566235+733809566+730952700+727936770+725666450+724837093+724353464
2255+723782145+724510761+726894783+728799390+728771747+728356366+728267996
2241+727607493+727212187+727440950+727071839+726302981+725740408+724728874
2228+722850007+720602437+718605381+717033994+715712942+714610274+713540960
2214+712059121+710205360+708486192+707349129+706802825+706647114+706269528
2201+704439015+701379715+698858789+698034190+698992113+700694287+702013482
2187+702586115+702331022+701590533+700942854+700966328+701827544+703240410
2174+705071422+706611494+707122813+707041377+706945893+707016271+707492831
2160+708503050+709103689+708129543+706690709+706306054+706122382+705212133
2147+704221808+703551425+702647837+701393537+700000022+698477170+697491422
2133+697642284+698879771+700513243+701269095+701237146+701311195+701717241
2120+702891963+704493622+705158703+704945348+705228719+706274105+707272451
2106+708131446+709260398+710272339+710383911+709789435+709410127+709399613
2093+709038613+708078651+707416878+707678134+707921626+707484402+707244943
2079+707602952+708378019+709701927+710666421+710658400+710921740+712180481
2066+714259652+716803147+718331618+718243838+718055634+718258883+718162719
2052+718778993+721188438+723861360+725428578+726347256+726665159+726545747
2039+726881097+728132905+730105352+731347824+730863062+729915562+729498278
2025+729391872+729691693+730331306+730838636+731229817+731976243+733185634
2012+734040912+734375084+735294759+736493545+737012114+737414172+737768873
1998+737324398+736127017+734598183+733201540+732273708+731633008+730953290
1985+729780652+728083780+727020494+727359107+727872918+727298789+726494447
1971+726310141+726191681+726106212+726507363+727110223+727050811+726178629
1958+725800907+726541759+727327611+727370618+726604977+725210510+724016935
1944+722697876+719695496+715881795+712580001+708548458+703078490+697804475
1931+693690591+689270133+684384897+681666477+683224405+687784803+691674865
1917+693860350+695913418+697595471+698117121+698406655+699091540+699680261
1904+700330206+701294473+702589876+704520768+706629032+708464576+710195073
1890+711842322+713480461+714928222+716160634+718009274+720676758+722534189
1877+722398463+721647596+721952719+722775098+722959767+723017184+723427036
1863+723911255+724860613+726088266+726850190+726827169+726023235+725408366
1850+725755182+726312679+725672251+723835574+722472557+721412488+720188370
1836+719870920+720301800+720300758+719662369+719190160+719149827+718918526
1823+718603161+718534324+718218097+717118013+715470900+713519978+711432107
1809+709947820+708862419+707684569+706833777+705935129+704201958+702182516
1796+700485600+698200234+695206600+693539411+693130058+692142134+689750227
1782+685969880+681270265+676729534+672844866+668224376+661712058+656088916
1769+653395058+652348947+652081619+651211793+649609182+648981896+648832257
1755+649308545+650843678+651201506+649872658+648942379+648696576+648498448
1742+647815013+646704733+646136133+644588175+639909996+636277973+635471637
1728+634645226+633258825+630609106+626907792+623213911+617783641+610854311
1715+606352100+603375596+599635626+595304988+589920035+584390203+580601200
1701+574831320+565983923+558904184+552725177+548193917+544822108+539749076
1688+534155437+527219853+517727043+511151960+507717205+504374127+498918524
1674+491560173+485703646+480893411+476606957+474733573+473235465+470436651
1661+468356166+468009214+468831094+468068218+463385008+462254833+464873283
1647+465920210+466973209+470150833+473688686+477305482+480598393+482622549
1634+485624748+491118100+497645689+503998761+510117360+516335068+523114352
1620+530051839+535354721+539297849+545028711+551962618+557756199+562385616
1607+566358337+569538090+572276949+575154525+578173220+580824661+582880855
1593+584818363+587040601+589089002+590708833+592066412+592901434+593876034
1580+595868376+596877009+595472980+595513494+596980333+596489499+595355426
1566+595371197+596040945+597534431+597144881+592497745+589803116+589611468
1553+589374049+589363853+589788796+590466656+590370039+588531233+584188857
1539+579289709+578599024+579391356+577853685+575468712+573954651+571930179
1526+569823138+568466058+565622878+561510851+558251384+555628584+553323505
1512+550782095+548295111+544734010+537846554+532561119+530015902+525823119
1499+518626370+509870424+502261240+495673650+486783654+475554093+465330266
1485+457289295+451019789+445252900+438644600+430093716+418103046+401453910
1472+383968983+373375046+370052565+370899347+374395915+379443002+383719373
1458+384574063+384937782+390445182+398853588+406881099+413636137+419438283
1445+424125209+426678175+426870911+424787299+419617469+414083966+411071933
1431+408548106+405302415+401935183+398031300+393786538+390090028+385775115
1418+381202888+378424150+376503409+374839529+374362947+375351074+377043572
1404+379240297+381936217+383946732+384407113+382561011+377964176+372145648
1391+364120199+349181099+327273470+306107848+291372179+286161428+293239173
1377+309436402+327389664+342338507+353692533+364028657+377275100+395242955
1364+416493094+437518684+454383622+465487200+470990794+471012954+466207977
1350+458039075+447851637+437296583+428703690+424394985+425587154+431034781
1337+437423880+442394902+445367508+446109584+444549073+441404576+437358532
1323+432308341+426537781+420675408+414978444+410013722+406414237+404387907
1310+403799503+404452937+406686188+410595690+415830596+422674548+430875444
1296+439372173+447939054+456407188+464326300+471741389+478511927+484373348
1283+489497316+494196342+498203594+501129388+503915286+507895801+513018229
1269+518503016+524475420+531432938+538655337+544890583+549687766+553449035
1256+556497956+558732204+560861677+564178244+568856197+573538273+576761441
1242+579107532+581943416+584760357+586751974+588289690+590019825+592411415
1229+595061406+597155758+598456554+599309521+600632613+602651965+604575062
1215+605929196+606843433+607670298+608278233+608351194+608010134+607049809
1202+605461745+603904996+602181976+599357331+595322299+590857792+586650145
1188+582661382+578339173+572710956+564784231+554600917+542110122+525423509
1175+502458235+473371599+439891649+404596866+372800487+351163948+343035673
1161+347438095+360905120+379369860+398870990+415731169+428112114+436285185
1148+440856823+441382597+436871141+427015836+411481604+390561377+367301289
1134+346110743+331200692+326894774+335396194+354154115+377154555+397854788
1121+411423733+416162910+413346921+406077210+397678684+390128775+384478715
1107+381171392+378968527+376017174+371050662+362830121+351224016+338640683
1094+328831239+324755195+328058484+338902166+355690993+376142387+397698624
1080+418319438+437651510+454972615+468753103+479108804+486105069+487831215
1067+483371014+472910991+454120599+423495431+381467361+333821997+288697876
1053+254036950+235669915+235479196+253244549+287786720+334418195+386369274
1040+438238690+485699658+526289166+560584877+589046766+610541574+625993963
1026+638788522+650475473+660225143+667430412+672741587+677448588+682077643
1013+686335457+689882418+692502318+694181697+695221283+696070987+697001176
999+697814219+697612646+696511384+695787979+694827971+692338631+688772455
986+684670398+679869861+674393594+668262125+661122748+652590943+642328459
972+630382654+616793407+600153108+578394913+549258019+508706669+453693798
959+388881363+327434030+284201850+268781546+282530878+319925836+371617019
945+427614753+480275279+524730830+559049245+585078667+606188594+624378256
932+640102006+652790703+661843116+667858028+672002366+674977783+677278919
918+679514073+681506460+682312162+682099350+681430961+679731416+676741724
905+672974746+668543457+663248913+656845584+648252419+635840160+618694932
891+596184828+568135828+536291662+504425743+478795071+468046737+479050209
878+510352921+550906310+588380597+616777092+635785416+647728049+655133259
864+659507947+662031139+663596136+664276806+663832558+662273180+660007256
851+657949067+656413481+654342422+651436115+648858632+646721228+643857610
837+639754919+634726525+629159125+623032550+615598835+605228904+589149500
824+562991784+524550013+484082636+463064205+473871995+508533103+548384931
810+578110409+593880429+600894050+605059371+609053073+612946352+616275109
797+618586034+619290043+619191115+619480649+619798823+619476117+618171922
783+615887372+613747929+612667014+611944697+611080627+610266089+609020580
770+607372017+605941477+604722887+603695221+602669865+601230760+599610974
756+598383003+597477648+596295539+594747264+593259850+592065098+590849590
743+589100195+587270951+586472410+586647471+586780433+586519404+586175625
729+585812631+584969724+583428836+582055169+581645543+581693082+581142020
716+579675905+578328206+578018007+577896782+577356687+577151263+577645270
702+578015469+577247110+575944138+575762959+576811970+577710708+577784259
689+577437081+577294784+577880287+578774720+578946609+578772545+579599319
675+581190736+582762939+584416532+583507144+578808663+578572150+581202111
662+583246478+584537394+585060948+584805584+585031900+586058162+587580696
648+590195340+592742233+593367842+593443341+594562051+596001881+597381394
635+599126075+601336214+603681535+605414343+606506769+607940028+610115136
621+612722483+615404876+618213433+621589729+624825993+627019591+628916268
608+631209972+633278765+634827176+636601359+639195609+642735275+646387419
594+648697981+650778466+654996717+660309887+664361686+667408297+670830182
581+674780244+678349592+680919507+683313499+686857107+691169438+694202226
567+695865064+698695011+702532957+705071014+707177194+710936650+715507018
554+719397261+723089012+726058538+726957231+728373722+733688251+740358908
540+744001626+745383948+747153736+749642170+753022499+757467791+762074414
527+766200852+769551090+772291897+775596002+780374650+786065270+790438598
513+792467738+794272012+797246386+800900977+804679195+807175196+807872181
500+808074660+808437563+808959078+808846056+807372690+806329298+808229465
486+814491720+825205159+837894444+849458675+859153556+867712054+875944536
473+884401159+891003840+893814799+896543371+901646312+906423420+909679307
459+910480975+909339062+910145353+910842518+909059453+908311531+909028184
446+908663286+905911693+902050817+900481831+899189465+895581641+894279848
432+896871652+900242827+905834200+916118391+928928675+941332278+955133022
419+973152924+991549687+1007092349+1019476013+1028844698+1040294910+1054983335
405+1065844962+1070871679+1073318647+1073741823
##END=
