##TITLE=павел 6-многокр
##JCAMP-DX=4.24
##DATA TYPE=INFRARED SPECTRUM
##DATE=3/2/2015
##SAMPLING PROCEDURE=Instrument type and / or accessory
##ORIGIN=Default
##XUNITS=1/CM
##YUNITS=TRANSMITTANCE
##RESOLUTION=4
##FIRSTX=3996.3347
##LASTX=399.24773
##DELTAX=-1.928733
##MAXY=0.36594787
##MINY=0.031155147
##XFACTOR=1
##YFACTOR=3.4081552e-010
##NPOINTS=1866
##FIRSTY=0.30994406
##XYDATA=(X++(Y..Y))
3996+909418878+911700996+912474614+916033066+922321437+924842015+924354426
3983+926676418+929300530+928675392+927978724+930000870+934084949+937181434
3969+938275272+941395542+947010681+950274708+949170551+947422980+949075149
3956+950174847+947277298+945453563+945527453+944630014+944848274+946780440
3942+949403152+953208722+957058625+958405003+955571375+950790891+947668610
3929+945243172+943880005+945664915+946836229+945360522+945723940+950663223
3915+957157175+959731880+958902910+959521490+960058572+957485178+955522581
3902+956044098+956876479+960103081+964411192+964016818+962017321+964937343
3888+967209492+964640820+962322151+961578876+961102392+960815838+956963049
3875+950368011+947287004+947568662+947843411+947733756+947131004+947015140
3861+947990405+948876389+947750021+942185775+935110232+934435338+938133263
3848+941883830+941604883+935975491+932425259+935350441+937831144+934274703
3834+929087166+926762376+928673031+933498898+935501719+931116220+926155164
3821+927094226+927145206+921953647+918824458+917427801+915039264+914582455
3807+914753321+912612076+909258593+909154272+912837420+912291856+907306927
3794+903918642+903070958+903842565+904065723+902101814+901194232+902296028
3780+902934020+903186996+903987722+904941738+904664628+903155516+902208496
3767+900353631+896502416+892187834+886485601+881630964+880953884+880641884
3753+879757736+879254320+875570211+869075646+863767612+863882950+866093538
3740+864009744+857886206+851251906+847817974+846852153+844611222+838711890
3726+829945090+821676546+815618678+811330854+806196221+797950587+787983441
3713+777852249+767809814+756656225+744105541+731270446+715789683+697775752
3699+681504932+665148897+645994694+625349087+605022520+584466761+562924852
3686+547020379+540308647+536999105+533204553+528983581+522410622+515141565
3672+510209934+504371419+496818650+490815215+485197541+476662424+466591131
3659+458983403+453924409+450870816+449356939+444478736+433485039+423550247
3645+419469185+418055301+414576641+406685988+398350024+394097703+391032785
3632+384125747+372667940+363317756+361782740+362313067+359266906+351193472
3618+342842600+339582070+337475977+334261924+331860839+327671149+321016956
3605+314939259+308857103+303384805+300682365+298576448+294927753+290043604
3591+284861773+280647403+276479902+271172742+267080465+264842682+260482192
3578+253580488+249961786+250143517+247876659+241067602+233524451+229195944
3564+228574762+229515355+229401743+227587583+226055190+224524765+219993343
3551+213081802+206913776+203116339+202387994+202371402+200603784+198198152
3537+196054524+193255765+189319510+185938548+185145276+185673198+184361864
3524+180639891+176695821+173714632+170412959+166760439+165337592+165503790
3510+164958729+164925172+163906536+159911409+155909003+154353284+155852569
3497+156962869+153809338+150221789+148926369+146616619+142997831+142046264
3483+143838049+144503083+143275357+141091767+137707383+134572259+133953067
3470+134830843+135027679+133201386+128454448+123451342+121536195+121920326
3456+121720035+120470349+120995921+122414254+120331532+115860654+114881575
3443+118433534+121292532+120076457+116153122+112756136+111945211+112353291
3429+111689525+110183726+109291303+109785647+112512593+115052769+111785855
3416+103808282+98537990+98485852+100459423+102956172+105009688+104380112
3402+103213793+104454811+105394978+104019285+101955822+100684832+102070614
3389+105597772+106598417+103553350+101750098+104866673+107614398+105150528
3375+101619293+100982951+102125102+103466682+104716980+105599871+104709962
3362+103023340+104131804+107351869+108423650+107487462+107611720+107939810
3348+107092488+106657945+107320760+108357017+109270787+110610081+112946884
3335+114668736+115439895+117252328+119334745+119204464+117441809+117092622
3321+119392644+121470590+120399421+118191292+118582026+121056094+122425655
3308+122673264+124170056+126623302+128886641+131500095+133829957+134646947
3294+135320202+137133881+138808884+140205816+141882044+142363850+141548400
3281+141481112+143257201+145524562+145642306+144192591+145301656+149880133
3267+154583076+157160624+156891460+155362368+156751691+161497373+165942793
3254+167970032+168003283+167326236+167180084+167684866+168237458+169952391
3240+173557571+177500581+180901481+183345774+184185424+184975001+188204182
3227+192651482+195639536+197850168+200588372+203679676+206944534+210885685
3213+215517077+218335052+218226403+218048454+220159553+224482770+228960216
3200+231297226+232453566+234680615+237566447+240754617+245128355+248848338
3186+250476308+253493852+259889758+265394148+266883759+267624586+270684956
3173+274685504+278135045+280765540+282294282+283765311+286653985+290268751
3159+293020444+294543240+295900876+299581837+306350626+312970804+316606819
3146+317901867+319531411+323643384+328694508+331623187+333535285+336386795
3132+338759789+340697179+344118016+348949262+353583933+355909182+356192545
3119+357811289+362115705+366869169+369955510+371208454+371844304+374012919
3105+378086985+381467051+382602426+383380242+386885703+392660733+397298640
3092+400113773+401844424+402954746+405147670+408752293+412252988+414490509
3078+415179787+414920428+414830885+416063804+417978000+419401635+422055914
3065+426328392+428812461+429220563+430636022+432657993+432905940+432139580
3051+432595776+434077517+434987505+435950615+437603746+437752751+436173947
3038+435831559+436618338+435283722+431449340+427918345+426103966+424895488
3024+422994277+419431147+413768964+407802912+402896901+397668091+390943986
3011+381786572+370507982+359682615+348758480+335582068+321425167+306866066
2997+290573625+273172196+255539630+235965520+212724811+187686228+164465282
2984+143963280+125556658+109972592+98623817+92716200+91413522+93536109
2970+102164496+120077014+145415355+175196023+205882547+233421157+256117330
2957+274616074+289542746+300279685+305518923+305216498+301793671+297249811
2943+290779272+282267437+274426910+269561671+267436275+266619438+266981434
2930+268848148+270670812+272921013+277664464+281728890+282124509+281624241
2916+282005192+282875829+283990961+283144195+279189818+274627966+271063743
2903+267487190+263944368+262521258+263559242+264258948+262812163+260953188
2889+260522285+260984034+262406422+265205203+268369851+273051829+281240646
2876+291129551+300689383+310946931+322144526+332631025+342759331+353933840
2862+364814713+374260473+383875875+393224486+400126059+406987845+416716881
2849+426193159+433208366+439830249+446212448+451740142+456706358+460822878
2835+465212531+470516587+475332223+479621621+484268972+488326380+491144661
2822+494253344+497724527+500107074+502089389+505557337+510468244+514545153
2808+517575486+522057917+527910772+533165859+537897200+542391042+545632334
2795+548026380+551405878+555633715+557948536+557214355+556974365+560413631
2781+565944517+570074941+571357834+571754393+573405645+575966359+577979892
2768+578237677+578016968+579903707+582859494+584036405+583935276+584319112
2754+584666659+584839754+585747250+586645170+587106700+587946470+588610084
2741+588311418+587595644+587040068+587138661+587411618+585925286+583595206
2727+583972483+586568525+588346877+589915669+592858689+596348585+599493863
2714+601753857+603149597+605237588+608575419+611522112+613654700+616528464
2700+619483639+621507709+625599439+633019600+639770857+643972286+648180754
2687+652725620+655532402+657048946+658315225+658970444+659005771+658127919
2673+655524138+651488810+647432844+644615656+642863800+641289149+640381873
2660+640761555+642528320+646509303+651947848+656755177+661070939+666222755
2646+671926693+677061107+681523776+685123720+687887393+691156886+694294469
2633+695841269+697031558+697957767+697048654+695322069+694914492+695843455
2619+696931347+697528154+697230537+696409481+696029055+696012440+695766941
2606+694976708+694577569+695862474+698137639+699885211+700102641+699358054
2592+699420183+700448220+701519542+702316114+702354896+701121671+699893518
2579+700350501+701792236+703371871+706186042+710491923+714258012+715822912
2565+716110254+717188090+719288980+721402068+722961153+723214216+721604195
2552+718411653+715796941+715801576+716339139+715247093+713537822+711824310
2538+709562305+707261168+706610059+707897018+709313045+709860752+710221983
2525+710549986+710977807+712029192+712878143+713441283+714428921+715374455
2511+717153069+720451637+723030584+724102911+725804662+729140263+732874740
2498+735450844+737100828+738491540+739058265+739812733+742494121+746002118
2484+747966463+748369493+748978716+750059701+751339096+753084219+755132249
2471+757571765+760109132+762679116+766701022+772081723+776843844+780747175
2457+784447375+787950999+791474474+794319557+795738775+796111025+795767981
2444+795225915+794351561+792306330+789996668+788331381+785288937+780036429
2430+775799411+774221044+772438407+768148922+762961735+758747714+755434718
2417+753026156+751633521+751179773+751560767+752740039+754484025+755639600
2403+756808903+759807013+763322880+765402476+766781908+768875583+771907621
2390+774897424+777168611+779191631+781348179+783849956+787491655+792435747
2376+796920320+800282723+804683699+808407071+806336394+801039552+799265660
2363+800465481+802336261+807449121+813225244+812145046+807302389+807241091
2349+811601843+815821023+815269251+807840608+801609076+802679130+807646132
2336+812114790+813169454+810746727+807392719+805829043+807420439+809253968
2322+806172349+798364548+791856517+789690788+789642781+789233193+788527344
2309+788772624+789112520+787976620+786251610+785046192+784168078+783560079
2295+783000961+781802626+779917855+778613014+778607155+778139241+776614128
2282+776075297+776453056+776195008+775040745+772756966+770244171+768873922
2268+767547219+765084355+762020224+758586992+755225901+752943609+751967033
2255+752622514+754627346+756277417+757239653+758468767+759349942+758399774
2241+756540886+756015347+756063092+754930515+753429186+752216511+750804638
2228+749513525+748115380+745849178+743707146+742737215+741985546+740447578
2214+738767513+737807464+737085175+735775262+733917686+732095569+730643515
2201+729249174+727643131+726116138+725082373+724754545+724907397+724985616
2187+724855674+724975866+725544603+726004340+726097556+726821725+728884532
2174+731257023+732760188+733404039+733212230+732077293+731305248+732163469
2160+733636641+734408423+734586634+734809616+735366898+735482237+734358754
2147+732524307+730525684+728508129+727485076+728013720+728719875+728424795
2133+727511528+726910480+727454908+729073105+730659255+731379838+731431911
2120+731746360+732858694+734063630+734790379+735427234+736013810+736887202
2106+738670450+740250916+740357860+739531688+739306607+740354537+740892406
2093+739543405+738222736+738353903+738325921+737460748+737094270+736882480
2079+736201815+736946664+739781953+742470511+743793366+744485049+745346636
2066+746554240+747979055+749762216+751596182+752714068+753285690+754108452
2052+755471707+756928526+758113307+759376263+760958477+762222570+762640116
2039+762824710+763447575+764575167+765964305+767065751+767895509+768908899
2025+769754659+770165647+770810635+771349028+770891520+770418885+770952207
2012+772277073+774055949+775312784+775119707+774464401+774701637+774714054
1998+773426264+772623702+773016151+772501455+770418098+768548367+767953484
1985+767754899+766746755+765413494+764877724+764760549+764214548+763740251
1971+764203967+764789843+764561876+764463763+764933601+765140581+765043868
1958+765021132+764742448+763856027+762658479+761443268+759980327+758185623
1944+756340639+754254222+751448314+747453166+741727935+734661224+727363485
1931+720959775+716582583+714402907+713825076+714588288+716049130+717712886
1917+720479357+724262672+727074963+727965538+727871011+728153368+729550113
1904+731769708+733791417+735137445+736410981+738442221+741325255+743841023
1890+745091387+746579424+749423195+752218435+754098309+755568682+757037744
1877+758414377+759206534+759137803+758048598+756695750+756989912+758561283
1863+759896031+761162572+762376122+762592546+761874979+761331164+761269166
1850+761335886+761174027+759802203+757364435+756090024+756457902+757321675
1836+757949087+757970948+756877546+754625597+753102408+753091564+753008318
1823+752442729+751568025+750241935+749026024+747963402+746213907+743774740
1809+741759590+740504941+739486916+738274416+736378190+734461326+733706421
1796+733129639+730595333+726239259+723110595+721697716+719767255+716362224
1782+712043707+707232968+702060690+697000997+691341786+683390621+675937887
1769+672384026+671721637+672293565+672245034+671493364+671419255+671644861
1755+672510820+673809016+673332795+671641931+671510590+672467579+672572818
1742+671080715+668993029+668131705+666614723+661316526+656423633+654371231
1728+651972638+648920969+646136484+643706630+640288307+633423723+624850655
1715+619679121+617332338+614916606+610942314+604821879+598657154+593984532
1701+586920400+578130777+571937064+565364500+559987821+556501817+551769252
1688+546736317+539929883+529349097+522104262+519323975+516375533+510917401
1674+505082952+501339075+496845714+491808843+489874666+488427815+485256522
1661+483398159+483930913+485177954+483623634+477349516+476577078+481362153
1647+484139248+485538748+489138561+493202310+496260319+498248012+500147561
1634+505390668+513197813+520180622+525931692+531941116+538489765+545690004
1620+553097616+558824639+563345458+569454175+576298778+582188710+587316348
1607+591991287+595823351+598639927+601184290+604148646+607046152+608976176
1593+610229513+611544629+612461175+613038175+614153131+615697395+617192471
1580+618274986+617464423+614823303+615004313+617410601+617549899+615792491
1566+614643431+614911097+616439971+615022764+609070878+607329471+608816415
1553+609359400+608823717+607979531+607829520+607256193+603892610+597134358
1539+591927234+592576550+593635980+592178767+590877161+590048015+587503216
1526+584343378+582012641+578727540+575272840+572703818+569694078+566841300
1512+564331478+561516433+556278484+547161470+541104913+538982600+535656837
1499+529196769+520222551+511845358+504730159+494852293+481960840+471287669
1485+464415084+458966745+452587869+444543970+434621507+421792664+404335489
1472+386028313+375816192+373609189+375179030+378799655+383491296+387039517
1458+387441323+388545743+395498558+405283864+414549752+422521379+429147066
1445+433589535+435335489+435347906+433977700+429612750+424153000+420179844
1431+415647920+410178463+405654759+402227254+399399310+396451699+391326729
1418+385058339+381169523+379158526+378111295+378110683+378855794+380095490
1404+381945109+384360928+386370613+386734293+383759094+377069835+369591830
1391+360975565+345911605+323388353+300462968+284258846+279895033+289471829
1377+308264210+328413003+344414517+356299620+368341073+384278337+404961808
1364+428547199+450739825+467456129+477865218+482584404+482503256+478299990
1350+470217484+459394434+447862562+438307497+433729752+435396743+441937172
1337+449876357+455911971+458707342+458706424+456925099+453554302+448572347
1323+442568650+436130968+429862141+424146398+418691763+414039909+411635851
1310+411457509+412666730+415554136+420642817+427546663+435510683+444327064
1296+454011985+463746573+472797086+481614430+490338426+498355175+505381224
1283+511083414+514875779+516846202+518460814+521608628+526842948+533440609
1269+540279528+546545557+552577586+558956112+565133079+570261591+573889080
1256+576249635+578355115+580835949+584237745+588791181+593054301+595792003
1242+597780701+600277844+603307827+605836450+607228648+608449543+610826319
1229+613905402+616392620+618065951+619490985+621135896+623386315+626106484
1215+628168417+628737110+628159323+627464229+627319597+627260222+626509296
1202+624922753+622570287+619256984+615270580+610902264+605502151+599382634
1188+593939586+588999166+582650896+573530034+561800845+546989948+527249344
1175+501711412+470792910+435301342+397685405+363689263+340563106+332259868
1161+337803062+353317337+373813327+394632030+412445103+426060813+435677745
1148+440494300+439489610+433140334+421499420+403917243+381612646+356922922
1134+333389887+317463007+314279406+324226812+344517417+369781059+393009111
1121+408351624+413470998+409703466+400721116+390737180+382236341+376139692
1107+372780918+370913636+368386893+363413223+354097973+340440072+326383600
1094+316238417+311999977+315383935+327325461+345735252+367342461+390013755
1080+412342400+433251695+451641505+466437317+477667769+484713057+485050897
1067+478251240+465852709+445366950+411672228+365318522+314228207+267576448
1053+232584514+214950920+216996829+237200275+272960078+321668874+379171599
1040+439003027+495051622+543930321+584095823+615095736+638329996+657346955
1026+674673095+689095215+699253908+706498918+712766564+718499184+723125286
1013+726728728+729658806+731959506+733653692+734382189+734426436+734796412
999+735255232+734564948+732686166+730642203+728315271+724780385+720349940
986+715886484+710879476+704435279+696506369+686688315+674617437+660867501
972+645605873+628092647+607091317+580902582+547194436+502163979+442754119
959+373566560+308906509+264733377+250080448+265406019+304861584+359421660
945+420423026+480449674+532897493+574219794+605521039+630405151+651682586
932+669899432+684306730+694906666+702448636+707021921+709384575+711427488
918+713449459+714261116+713667458+712528192+711155056+708802109+704858903
905+699653833+693388110+685658485+676291380+665130884+651122419+632055572
891+606112729+573765565+537484813+501582913+473160373+461729106+474978599
878+511187428+557968124+601819921+635784715+658478483+671678964+678786905
864+682645378+684712908+685500299+684940088+683111980+680697079+678114154
851+675263168+672587203+670318289+667509146+663643328+659087531+654105969
837+649018294+643989731+638344249+630756021+620708338+608107112+589675197
824+559373045+516206985+472271984+449189221+460673655+499256330+543757269
810+577394847+596024429+603960248+607340926+610492851+614876601+619379450
797+622459932+623590454+623352256+623113927+622672902+620817031+618239353
783+616244446+614896888+613665674+612205007+610304671+607886796+605486717
770+603804772+602812893+601708998+599776570+597413873+595453944+594058816
756+592937126+591502430+589274834+586800864+585166839+584299306+583271750
743+582024534+580824188+579247002+577205399+575590918+574670306+573496456
729+571879176+570543685+569927117+569910240+569532000+568289200+566994196
716+565952955+565027446+564169269+563102320+562271425+561998818+561728791
702+561429907+561329127+561404591+561539299+561502310+561449188+561237967
689+559948690+557954002+557315222+558557060+559859672+559879434+559421883
675+560062280+562011017+563807426+562627760+559445537+560135034+561606762
662+561971448+562742312+564036748+564128652+563467093+564628439+567640671
648+569559502+569503188+569443594+570286206+571394342+573248114+576161491
635+578732174+580506984+582249834+583941878+585349248+587154139+589770774
621+592612752+594949085+596421732+598057768+600577559+602926571+604953482
608+607405591+610118458+612687087+615321385+618423685+621606346+624522608
594+627965547+632200948+636364382+640063445+643414960+646668713+650166960
581+653471562+655653381+657351284+660175730+663540537+666428249+669776179
567+674151141+678815456+682969927+686402372+688987833+691281800+694679398
554+699098651+703056854+705968831+709194427+713188308+716631902+719841408
540+722904445+725057539+727833322+732609784+738175604+742739314+745449208
527+747476513+751046246+755174484+758216229+761775118+766156770+769585280
513+772513697+776423500+780807512+783907057+785234547+786133210+787764481
500+788498749+786688043+783936001+781280672+779027499+779376139+783298009
486+790533837+801405243+814503852+826773315+836795639+845686435+854931905
473+863990682+870572865+874493511+877856963+881142939+884543729+888783633
459+891332281+890633165+890439126+891691764+892579497+893233142+892069610
446+887277670+880888126+875726823+872551901+869340952+863952993+859329559
432+860985926+870093146+882985999+896819576+912887525+930517403+946566552
419+961181355+975167871+991346263+1011036586+1026724679+1035053384+1044017633
405+1057959291+1070383356+1073741823+1070890969
##END=
