##TITLE=павел 6-многокр
##JCAMP-DX=4.24
##DATA TYPE=INFRARED SPECTRUM
##DATE=3/2/2015
##SAMPLING PROCEDURE=Instrument type and / or accessory
##ORIGIN=Default
##XUNITS=1/CM
##YUNITS=TRANSMITTANCE
##RESOLUTION=4
##FIRSTX=3996.3347
##LASTX=399.24773
##DELTAX=-1.928733
##MAXY=0.37280595
##MINY=0.079307042
##XFACTOR=1
##YFACTOR=3.472026e-010
##NPOINTS=1866
##FIRSTY=0.27270147
##XYDATA=(X++(Y..Y))
3996+785424625+786711557+784500777+780945812+782015752+786322379+787607852
3983+786702544+787538325+788983194+789308082+788524747+787636435+787518754
3969+787820037+789373403+791393628+791199811+790408494+790839216+791120242
3956+790510552+788257627+785075274+784095547+784820943+783803363+782884923
3942+784767897+786598168+787808020+789218126+787600727+783886709+783549547
3929+786266843+788341316+787927331+783671863+777210421+773951675+776290092
3915+779381288+779819478+781386063+786074743+789103536+786541088+781137054
3902+778626793+781517305+786453879+786931468+782905695+780504789+781523142
3888+781996697+781309497+783099340+788160547+791355603+788738220+785335098
3875+787118246+792206233+794052298+789200530+782808529+780830964+780630023
3861+777904831+775255603+775604781+778335124+781930689+782885609+781293017
3848+780451829+780196468+779082323+778313150+778247314+777408272+776808625
3834+777950409+779878705+782023563+784220095+785161539+783642250+780028488
3821+776596525+774743765+774864965+777909809+780298011+779437510+776274127
3807+772648348+771706990+773209369+776073787+779425493+779797504+777014115
3794+775396115+776861070+778571515+778717436+777147847+773821977+771046571
3780+769331834+767915376+769632173+775116806+779736818+779843340+776958236
3767+773195378+769792514+767775035+766211198+766919598+770528468+772395305
3753+771628793+771355150+772776329+773243789+772413674+773243274+774209096
3740+772802680+770844772+771258070+773181043+771638407+766841145+763526949
3726+762745588+761807577+760167174+760207087+761312649+759549845+753797576
3713+747435789+744241506+743650699+743668811+743425038+741347389+736878790
3699+731737156+726612602+721041447+716163628+712665658+709166229+705849586
3686+702296982+696607331+690532234+687235935+686247196+685128930+683765476
3672+682840555+681530361+680133860+678588005+675544448+671182672+667335352
3659+664894232+661988098+657825031+654821474+653428793+650037817+642200732
3645+634654414+630536283+628811418+627653024+624039391+617951119+613130852
3632+609992190+607240689+604331079+599290816+592533757+585983732+580179619
3618+575242015+571056417+566591338+560675467+554160635+549685814+546412648
3605+541660535+536383752+532155236+527797151+521253908+513662012+507874937
3591+502935230+497883079+494864672+491641462+485091095+478970677+476966160
3578+477118089+475057821+469487481+463433801+458309205+452052309+445259714
3564+440318076+436741523+433860024+430739731+426177229+421514513+418452888
3551+415467056+410464003+404066080+397897122+393118915+390252352+388533195
3537+386414559+384005756+383077445+382789338+380793747+376454074+369933921
3524+363164415+358368226+355270936+353060843+350848839+348444672+346709699
3510+344168731+340034591+336585397+333117556+328683056+325782952+323526164
3497+318565921+312722109+310270453+309645914+307849698+307444768+308206430
3483+305492675+300261321+296552024+295456483+295843838+295124386+292405910
3470+288719145+284512259+280405350+276408075+272696160+270759753+270905416
3456+271608688+270323945+266789967+263238843+259909111+257367263+256941305
3443+257324045+257449944+256743561+254587930+252322194+250985477+249813264
3429+248564335+248340626+248659033+247295708+243931705+240692036+240035223
3416+241124948+240474014+238105962+237286854+238700072+240343973+240653260
3402+238209393+233303721+229298677+228417189+230356429+233444512+235363838
3389+235599156+235304118+235182446+235540638+236855660+238382331+238361151
3375+236947675+236362728+237908905+239528256+238656661+236943705+237339407
3362+239177168+239400361+237619832+236918491+237623244+237610562+238113386
3348+240796519+243374547+244105522+245665712+249619447+252975595+253423786
3335+252444359+252415154+253473399+254925500+257401941+260381700+261653998
3321+262407891+265657710+268831243+268423439+267279272+268161919+269084973
3308+268940340+269341879+270771384+272674701+274937734+277608893+280170311
3294+281149566+281550826+284422990+288453291+290405062+291275735+292929271
3281+294574888+295161703+294889454+295339447+297886917+301727864+305908398
3267+309614390+310711862+309728337+309903592+311657512+314236591+317209505
3254+319813498+323183315+326015223+325517484+325626774+330044751+334539722
3240+335518397+335229754+336819235+340628015+344567995+347797472+351166903
3227+353671541+354928366+356634755+359063043+361702808+364354096+366917402
3213+369930745+373409788+377065309+380723748+383642071+386516746+391022683
3200+396417747+400639139+402535889+403014637+405227391+410201518+415262510
3186+419073608+422776596+426350445+428916584+431947952+435904670+437872492
3173+438768015+441680372+445332631+449243899+454572698+459589957+462559351
3159+464654897+467101124+469357741+471696587+475433180+480540910+485567139
3146+489805955+493077147+493757823+493196330+495855300+501149851+505165023
3132+506763710+506654270+506843322+509692118+514261745+518265672+521477595
3119+523754683+525342469+527458143+529348972+529928962+530745816+533608560
3105+537660041+540481326+541879759+543632907+545878364+547606877+548800506
3092+550826526+554435095+557678905+558821934+559364501+561627512+565044281
3078+567633210+569571334+572016015+574653870+576078569+576051359+576364873
3065+578578872+582269328+585344258+586381280+586470806+586464669+585936480
3051+586098623+587902457+589756247+589784530+587756708+585771161+585579447
3038+586919211+589336726+591332488+590774986+588022927+586178708+587156289
3024+588342364+586329006+582664257+580253781+577641891+574108214+571363580
3011+567797800+562178018+556646819+551575913+544952156+535709557+524291713
2997+510904631+495568867+479203721+461216669+438954406+411930289+381780770
2984+349708021+317803444+288859979+264852831+247701130+239117211+239695035
2970+250664559+272685302+302246611+334603369+366696033+395863936+421270783
2957+442957304+458581861+467124386+472130486+474838297+471957227+463825898
2943+455264790+449425012+445101347+439126636+431623150+426044055+423940869
2930+423689071+424591031+427677720+432300951+436779076+440090097+441593120
2916+442235899+444014927+447119469+449653549+450118606+448242756+444656504
2903+441459903+439639889+437331900+434015172+431575039+430715311+430684968
2889+430847626+430279051+428637661+428212518+430639174+434501559+439470707
2876+446025924+453356795+461461129+469929749+477152552+483447430+490451481
2862+497952735+504955112+511612517+517762848+523458679+529743772+536714133
2849+544297488+551720631+556189273+557905425+560968467+566378037+571253367
2835+573992465+575675871+578433510+582921764+586970970+588696522+589477711
2822+591082793+592868944+594798227+598269416+602013605+603423497+603339764
2808+604364254+607282362+611316203+615479270+619105006+621505354+622799797
2795+624070377+624937917+624821739+625576705+628064863+630030153+630962542
2781+632985428+635729376+637014935+636550521+635996024+637109182+639174299
2768+640148576+639312752+637594968+636886267+637049183+636780646+637397675
2754+639596224+641265425+641934684+642789950+643160158+642136226+641054613
2741+641283150+641686148+640659683+638881986+638688642+640748995+642284850
2727+641451173+639640601+638696968+639865147+642331588+644192202+645351325
2714+646210067+646819757+647426356+647908452+648307158+649289674+650794071
2700+652013193+652875025+654771561+658921194+662664396+662587960+660660394
2687+660159029+660569022+660817988+661491496+662007669+661008543+659671011
2673+659759807+660354347+659947530+658736390+656714277+653756126+651934696
2660+652685714+654564139+656300506+657196458+656656423+656577970+659087586
2646+662735511+665236501+666331977+666902397+667674531+668383919+668773483
2633+669500467+670774996+671612923+671214431+670259768+669566775+668875713
2619+668316624+668919189+670376247+670585944+669512398+669129443+668939961
2606+667682857+666631200+666807506+667054927+666906603+667353334+668333748
2592+668764127+668153493+667491100+667987788+668857473+668830092+667991779
2579+667041065+666698838+667280288+668211260+668482930+667703157+666583218
2565+667014456+670112561+673503236+674480087+673666366+672379606+671604039
2552+671698415+670674011+668409026+667569769+667692900+666991537+666437212
2538+666376955+665915846+665999450+666980121+667228143+666177044+664232311
2525+662457318+662880144+665379503+667373420+667482388+666232665+665153498
2511+665805505+667547494+668484217+668641769+669333474+670497447+671190998
2498+670962762+669818188+669092491+669859088+670916110+671312026+671387390
2484+671268637+670991903+671095506+671950986+672873589+673234056+673424010
2471+673316973+672651833+672357546+672754621+673480533+674182324+674079622
2457+673744949+674415153+675422347+675713158+675831911+676232463+676551556
2444+676896272+676981678+676626705+676453446+675966330+674462319+673013802
2430+672504668+672028539+671167136+670045180+668520097+667582858+667607751
2417+668018817+668687948+669017514+668765715+667989762+666576179+665624006
2403+665745763+665801342+665429416+665343452+665793402+666595836+667573974
2390+668549967+669136782+669824024+671148982+671622365+670821648+671054348
2376+673592505+676653572+676342375+672744107+672633636+677767674+679603954
2363+673920826+669870976+672510591+675769552+677303991+675661270+671266791
2349+668809920+669733597+673334612+678366892+681330965+681349548+683043685
2336+687487991+688741448+682885962+675230032+673450447+676696790+680449649
2322+681083201+677394290+673267875+670704053+668491728+667410844+667732856
2309+668014783+668029418+667598695+665981511+664072142+663334686+663544640
2295+664103000+664576340+664014503+662220197+660329455+659165096+658562273
2282+658507252+658918147+659135611+658449614+656647282+655108337+655493395
2268+656913587+657236672+655883389+653681020+651978730+651268183+650431673
2255+649547696+649965887+651282647+652284176+652739791+652925110+652654513
2241+651907014+651609251+651425391+650263350+649178517+648848737+648248017
2228+647705064+648150207+649062983+649086802+647902229+647055890+646837525
2214+645902647+644909572+645113346+645381582+644426619+643304448+643366850
2201+644172374+644463914+643750492+642905012+642694586+642374162+641458898
2187+641174224+642165196+643149643+643158012+642743813+642548194+642375364
2174+642481199+643358911+643853066+643115481+642554674+642845442+642563644
2160+641334308+640173725+639305885+638846837+639156360+639965016+640490330
2147+640032612+639135029+639021126+639463222+639447771+639268075+639351550
2133+638693749+637260982+636785496+637323127+637535527+637331367+636857169
2120+636223960+636045551+636532753+637168795+637303342+637345358+637672478
2106+637694580+637205232+636279839+635228740+634383303+633625160+633098559
2093+633157228+633681640+633686619+632672729+631891154+632145999+632197029
2079+631273481+630583406+631080008+632305525+633187185+633082336+632543161
2066+632354837+632694145+633229459+633069461+631972483+631163783+631458156
2052+632489427+633583358+633852539+633582672+633980777+634265923+633407996
2039+632886202+633520570+634003824+633926915+633676318+632994698+631861540
2025+630710958+630082427+630406800+631322751+632131751+632784230+633065899
2012+632271877+630864346+630536111+631565022+631929737+631048120+630865677
1998+631670213+631620471+630023930+628344343+627624956+627102689+627135951
1985+628113703+628541207+628134905+627386247+625915412+624472989+624544018
1971+625769706+626457035+626011634+625263835+625117313+625388940+625481986
1958+625544216+625447780+624927789+624415436+624078403+623814716+623644161
1944+623456868+622954515+621978780+620900042+620308764+620420650+620470091
1931+619449850+617638248+615925186+614796448+614704475+615452060+616341402
1917+617470697+618760205+619535815+619685726+619198524+618183218+617814082
1904+618576860+619413971+620002760+620649488+621012400+621029954+621244242
1890+621673248+621861958+622011397+622140537+621760972+621148021+620759529
1877+620634810+620632621+620542837+620583867+621025190+621049181+619998254
1863+619218566+619615942+619993189+620191941+621173342+622113885+622066504
1850+621940926+622499072+622504995+620765108+618978399+618398150+618229097
1836+618201802+618293474+618360039+618473771+618795354+619223287+619122259
1823+618492527+617726659+616654788+615360903+614675463+615219274+616104668
1809+616247240+615890208+615269230+614292164+613205744+612301209+612093272
1796+612796609+612569917+610089356+608127499+608221360+608798475+608580453
1782+607339228+605867664+605050037+604576783+603305258+600933837+599321288
1769+599187685+599485405+599748362+598916702+597236257+596751715+597123855
1755+597923327+599128372+598709924+596089923+594436988+595417144+596788882
1742+596134858+594676555+594656083+594429692+591810077+589785217+589662515
1728+589363979+588694977+587761730+586903632+586514582+585460479+582998244
1715+580594891+578993157+577646140+576252042+574305593+572317556+571295984
1701+568859671+564528581+561811500+559286219+556591841+554618911+552330021
1688+550316233+547688936+542602537+538279859+535923373+533645942+530338527
1674+527223383+525455429+522772553+518939052+516342269+514134622+511249776
1661+509106591+508528274+508809342+507598160+502810726+500331366+501427915
1647+501555810+500314199+499988625+500314757+500607370+500766595+500934747
1634+502159706+504341045+506524787+509001829+512096286+515067268+517974260
1620+521338027+524413428+526831630+530052995+534012545+537249875+539503402
1607+541066853+542380695+544226502+546358142+548136654+549780705+551405830
1593+552662934+553471419+554010938+554611916+555716962+557136253+558303101
1580+559427504+560272770+560123416+560282684+561085975+561530947+561952700
1566+562617625+563976015+566581038+567525744+563404951+560420450+560899111
1553+561664464+561933558+561901241+561872014+562268918+562871097+561705966
1539+559003605+558678589+559145749+557813882+556127171+555746619+555676877
1526+555280832+554753630+553259834+551771146+551515356+551001244+549987397
1512+548887501+547436022+544593535+539860091+537080822+536775977+536776321
1499+535777538+532226694+527686938+523895325+518556011+511485652+505819691
1485+501931984+498639119+495210590+491006022+485270062+477143711+465546171
1472+452547451+444009433+440974803+441888952+445402029+449036864+451436310
1458+452384922+452961307+455586287+460373592+466029339+470939518+474301095
1445+476696164+478462316+479339041+478747247+475964202+472562024+469828892
1431+466493838+462920462+460257972+457648700+454884195+452673243+449922558
1418+446584971+444350415+442987604+442364395+442887906+444075569+445169586
1404+446541581+448905321+451535708+453450742+453837216+451510687+446636043
1391+439733879+428858731+412724010+395176050+381837121+376620552+380969581
1377+392545791+406009868+416168762+422809471+429660392+438922819+450607182
1364+464000745+477145170+487659723+494736262+498534871+499229453+497001548
1350+492083944+484966161+477232121+470963080+467670901+468197759+471683068
1337+475728755+478721540+480201430+480464130+479904697+478119146+474986792
1323+471151875+467049151+463016984+459389359+456269194+453532886+451133139
1310+449828568+450310920+452001494+454120216+456903261+460781225+465568488
1296+470890420+476231622+481360467+486649525+492131540+497212618+501283025
1283+504319028+506704312+508738056+510812315+513205324+515699919+518637340
1269+523221215+528790354+533147065+536420017+540001462+543560418+546177286
1256+548198198+550203102+551666426+552639029+554249475+556282705+557536333
1242+558334131+559779859+561411507+562268660+562781699+563550958+564545706
1229+565941821+567532139+568351053+568059641+567478749+567619090+568602937
1215+569610002+570062871+570247932+570576768+570740156+570114115+569097650
1202+568544783+568038182+566955195+565750965+564714029+563726277+562745219
1188+561356186+559305832+556781752+553577340+549322558+543832388+536078349
1175+524186822+507131258+485460960+461451343+439076207+422587715+414956206
1161+416779653+425992167+439035736+452633029+464760904+474232341+480486533
1148+483696138+483864934+480480911+473392097+462508408+447608818+430108067
1134+413212715+400823041+396660661+401960105+414600289+430424242+445137913
1121+455903363+461020449+460189432+455160070+448562493+442922240+439514440
1107+437634513+436425906+435278886+432721416+427745701+420319211+411471541
1094+404414271+402246795+405738413+414564710+427566906+442546366+457902130
1080+473327334+488101089+500501063+509917780+517380321+523067012+525359894
1067+522828518+515305848+502324167+482053160+452943368+416538370+379033303
1053+349059984+332913353+332354177+346345993+372451348+406331580+442751771
1040+477440101+507873520+533245562+553480560+568805208+579725206+587221996
1026+593020358+598314351+603202084+607377339+610487676+612542235+613802001
1013+614627352+615727292+617491899+619308050+620274773+620068810+619212515
999+618587761+618322701+617843867+617075811+616678178+616617406+615907160
986+614537311+613097763+611081786+607917803+603966192+600070160+596779697
972+593231127+587654478+579258089+567985951+552029167+527421363+491357776
959+445744427+398913029+363788182+350771180+361255862+388903918+425289904
945+463547748+499083661+528429845+549608906+564213651+575492655+584827056
932+592586331+599060948+603606284+606182380+608118272+610181114+612092886
918+613632647+614914558+615455150+614864301+613939295+613081797+612310007
905+611946537+611052173+608532042+605040037+601078899+595737611+587760957
891+576153246+560749414+542293529+522620281+506161402+498925166+504675160
878+522431185+546347284+568753793+585282327+596320091+603563580+607949218
864+610358751+611511222+611925850+612288420+612555840+612124259+610988183
851+609768245+609220572+609127097+608775300+608331916+607668279+606232079
837+604333868+602261155+599825013+597176257+593947640+588560344+579219076
824+563755589+540533643+514605044+499751376+505903938+528079163+553396871
810+572560942+583457979+588826648+591871106+594260295+596435840+598388727
797+600018873+601078899+601669147+602251455+602909385+603373583+603554868
783+603362511+602769645+602188538+602042703+602229868+602118324+601695799
770+601803351+602160942+601730520+600731823+599931407+599384548+598711297
756+597989935+597644920+597420975+597138018+597075358+596923643+596484166
743+596086404+595778512+595284142+594617972+594555570+595312725+595628214
729+595066463+594654238+594505055+594234073+594236691+594699173+595350664
716+595837352+595888510+595620059+595568086+596078378+596441377+596180394
702+595881085+595887823+596614979+598275897+599523430+599361287+598812197
689+598640569+598531729+598859449+600041748+601337006+602545485+603981986
675+604483222+604487042+606211306+608113636+606748723+606027275+606765675
662+607744415+609175250+610163990+610348193+611170498+612613393+614076159
648+616071921+617794340+618171845+618548277+620209581+622415082+624161406
635+625017058+625835499+627993877+630558943+632118661+633539239+635889244
621+638646969+641103324+643338568+645019528+646095562+648020767+651179558
608+653945351+655568329+656813374+658272192+660485204+664071884+667856674
594+670357449+672374155+674343609+675986844+678829288+683361576+687340311
581+689435170+690410305+691813244+694871307+698769399+702265051+705236206
567+707347674+709307042+712337079+715630503+718252393+721355519+725622146
554+729255050+731292528+733011384+735559842+738868115+741872015+744178331
540+746449281+748965894+751744733+754852838+757843263+760396355+763248927
527+767129209+771132149+773961203+776575324+779524290+781783996+785121454
513+790783337+796274666+799707573+801685996+804327928+807753796+810295987
500+812295698+813909921+814762096+815769119+817693036+820873243+825287507
486+830376439+836132227+843174003+851032075+858593499+865280002+870945920
473+876344546+882008576+888040583+893874309+898278531+902557346+907289030
459+909644186+909120933+909010806+911480723+915878507+919649348+920876367
446+920570707+920027969+918946012+919208754+922680802+926975669+929999054
432+932777121+936808216+942745031+949491361+957019653+967072797+979007199
419+989290210+997105193+1007659788+1019623717+1026124386+1029655918+1035513335
405+1044676794+1056931791+1067920285+1073741823
##END=
