##TITLE=павел 6-многокр
##JCAMP-DX=4.24
##DATA TYPE=INFRARED SPECTRUM
##DATE=3/2/2015
##SAMPLING PROCEDURE=Instrument type and / or accessory
##ORIGIN=Default
##XUNITS=1/CM
##YUNITS=TRANSMITTANCE
##RESOLUTION=4
##FIRSTX=3996.3347
##LASTX=399.24773
##DELTAX=-1.928733
##MAXY=0.3560535
##MINY=0.037022516
##XFACTOR=1
##YFACTOR=3.3160066e-010
##NPOINTS=1866
##FIRSTY=0.28593054
##XYDATA=(X++(Y..Y))
3996+862273738+862019035+859704956+857579792+858813584+863005763+864930687
3983+861316849+857322483+858796688+862137759+863231887+864171700+865042671
3969+866179758+869605041+871694525+870532632+870324214+870655670+869268103
3956+868718613+869529996+869916455+870334100+870582153+869934789+869753513
3942+869536198+867145006+865103515+867508817+873185627+877036464+876324391
3929+872082961+866499890+862268346+859918317+859691565+863157291+868486917
3915+872327329+873326280+873528586+874385716+872738772+869773106+869323196
3902+870126581+872483440+875264056+874913277+871207317+866053305+863922749
3888+864584043+864462623+866932993+873939042+878721873+875197639+868086708
3875+865610585+867050009+867188416+867726133+869789373+869649888+867951357
3861+868119691+870427479+872366873+869892908+863469604+859851271+859673320
3848+861393152+861920263+858861847+856990757+858944801+861523379+861619904
3834+858913704+857443453+858269936+857297947+855732609+856879673+858061787
3821+855492825+850222696+847701007+851821287+857670655+859918048+859845519
3807+858063944+853627308+850651665+852440879+854831082+853975300+851487494
3794+850991299+852628986+851336686+844475694+837577944+837546758+842236570
3780+846386598+849056669+850204002+849950916+846598881+840044450+836939029
3767+838167519+839462874+842510596+846368174+846878659+844712872+842616827
3753+842838098+844330997+842219045+837546129+834801013+835943763+836408322
3740+833175190+829569710+828097841+825742959+822141792+821828761+822141073
3726+818507911+814156475+812029514+810978526+810745123+809574422+804104952
3713+795867898+789495732+783418803+777033965+772929323+769180223+761698022
3699+749300559+736372615+726157835+715552553+703158865+690831144+678641695
3686+667357773+658960069+653844793+649298195+643224007+637933656+634836863
3672+630883165+625201097+619968401+615518103+610809642+605826975+599940399
3659+593300139+586968866+580746610+573748650+564690461+554929096+549198272
3645+546711455+542861562+535647230+526499526+518007319+511963104+506887013
3632+499575348+491881628+487633637+482450416+472332251+460203063+449965590
3618+443919173+440969459+436870390+431098673+425793987+420274681+413774355
3605+407214217+400707330+393623451+387956482+385382352+381499924+374897119
3591+369318564+362328828+351499691+342035204+336820774+334272707+332813870
3578+330970867+327491389+323213897+320451975+317088189+309262331+299903985
3564+292889129+287731342+285355542+284294645+280469939+274615965+269654419
3551+266747125+265690318+263306451+256336555+246928373+240500261+239823419
3537+241190404+239509129+235694893+232489173+229636590+225155488+219240624
3524+216071415+216482320+215729085+212095518+208446718+206718461+205065024
3510+202112929+199630223+196718346+191500748+187355809+187235693+188532161
3497+187964999+184731518+180869009+180462621+182428954+180897465+175823846
3483+170960296+167281433+164101540+160942992+158451816+156924843+155305109
3470+153305668+152507406+151907182+149520327+148147780+148727828+147926409
3456+144863600+142584369+143318664+143393147+140649581+138946208+140266235
3443+143825329+146516835+143816061+137755589+134097746+133690987+134804089
3429+135702291+134941585+133448304+132098136+130511274+128555096+126481497
3416+124395137+122132454+121700182+123627275+122746059+117891507+115500889
3402+118111912+121051414+121718483+122855525+124444556+122952983+119244057
3389+116802356+116695552+117483411+116639785+114943063+115761513+118699139
3375+121088645+122252212+122113131+121287604+120934544+120193925+118579426
3362+117903146+118891424+120239199+121584413+122408109+121217704+120466884
3348+122531170+124293276+124629719+126246330+129471913+131858566+131568014
3335+129199785+127289117+128024142+130745677+133253378+134768050+135729197
3321+136657945+137709664+138532147+138328885+137630372+138286161+140119133
3308+141898495+144564656+147975806+149146237+149151697+150709957+151191525
3294+150128123+149713815+149527157+151005767+155073942+158429752+158586481
3281+157800319+160026939+163900155+165241256+164905723+165675944+166336036
3267+166043911+167404078+170018898+171371616+172168024+173130318+174664054
3254+177485192+180197177+181751876+182846633+183985181+185214142+187970616
3240+192893573+195711082+194775537+194293767+195122249+197009606+201712315
3227+206607534+208094614+208477410+211234569+215224037+218399650+220755992
3213+221887844+222879606+226439767+231834979+236474619+239682608+241405630
3200+242114670+243429506+245834493+248544692+251507775+254814087+258350522
3186+261965147+264737337+266693380+269935859+275213471+280255545+284276873
3173+288875642+292941076+294945764+297174800+300470709+302967255+305201728
3159+308916024+314065969+318865630+322194860+325301067+328753717+332335695
3146+336684435+341736530+346444024+349187702+350637731+353958670+358535758
3132+361682386+364718357+369222601+373148842+374847553+375629706+376904031
3119+379077412+383008192+388379969+393236228+396442982+398250441+400430068
3105+404576861+408918051+411115788+413452111+418359329+422350145+422726088
3092+422941517+426263669+431514071+436343053+440067617+443065998+445982368
3078+448056933+448442853+449307397+452328336+456233143+459515301+461502867
3065+461948508+462340854+465236149+470050617+473758554+475204449+475564754
3051+476332100+477891011+479137970+479247976+479722377+480992747+481780539
3038+483145053+485331286+486060031+485008638+484100775+484190604+483798303
3024+482218226+480713284+478858237+475103206+469797216+463956252+457591455
3011+449880614+441597814+434713186+427168432+415762281+401718908+385885108
2997+367333671+347600997+326898715+302965143+276853539+250542752+223766596
2984+197434328+172893084+149593338+128706646+115176825+111647895+115603930
2970+126094129+145348651+171424192+198645809+226143475+255098426+281938370
2957+302692038+317637297+328678829+335327178+335541820+330236258+323238703
2943+316036235+307724607+300193874+295493749+291957089+288631679+286822760
2930+287405144+290705614+295686169+299744099+302540330+305531476+308575850
2916+311262952+312981817+313081263+312402915+311243854+308950019+305390194
2903+300914058+296838041+294232635+292745353+292507973+292986553+292846888
2889+293144237+294072951+294235219+294317207+294957987+297017857+302233702
2876+309863544+318194090+327142723+337491415+349429441+361209895+370685213
2862+377916822+384489408+392581270+403809246+415695280+424547612+431511465
2849+438891839+446506290+453577721+459617128+465300050+471316044+477175883
2835+482203622+485995951+489245799+493190015+497832554+502250541+507050584
2822+513103023+517738731+519061453+520211258+523387455+526837498+530181759
2808+535016224+541746763+549928949+557218685+561283243+564091899+567554300
2795+570043949+570902381+571693274+573639184+576966594+580557649+583558861
2781+586673359+589437843+590496470+590646965+591702132+593133332+593956580
2768+595797202+599128926+602110860+604139409+605770085+606932382+606683251
2754+605405735+604924999+605448560+606142928+607109524+608060348+608059763
2741+608130045+609711695+611223423+611074861+610218989+609465080+608693511
2727+607922571+607344500+607537999+608966818+611250879+613652002+615928199
2714+618558051+621431552+623792949+625548641+626734844+628169640+630888782
2700+634480602+638849923+643130807+646316216+649554965+652513847+655295226
2687+659564832+663582161+665568739+666355946+666270296+665250090+663734947
2673+662338932+661496542+660839562+658764188+654715988+651136840+650110477
2660+650465121+650518506+651390285+655416691+661924208+667464094+671522810
2646+676228889+680849858+683765240+685314355+686621844+688195945+689122277
2633+689904632+692260323+695064486+695429015+693223459+691343741+690987615
2619+691473160+692663633+693992062+694862493+694817691+693517078+692083900
2606+691341539+690655440+690412286+691070794+691251486+690954002+691129257
2592+691267798+691802324+692708121+692733285+692931817+694254810+695401828
2579+695229584+693631712+692282971+692910068+694878985+697624371+700942434
2565+703291114+704261620+704947270+705633594+706508608+707143974+706364181
2552+704945338+703775761+702989047+703562489+704309568+703308056+701293707
2538+698950643+696965863+697001004+698629208+699540038+698739079+697027966
2525+695864635+696241747+698055452+700113614+701034510+701177544+701261622
2511+701023590+701537805+703886935+706729339+708359791+709055641+709565183
2498+709450953+709431091+710950862+713504321+715719449+716701189+716523103
2484+716148823+716291857+717015524+718626473+720951427+722240941+722133092
2471+722168547+723027070+724894879+727754674+730904178+733162266+733781049
2457+733383671+733072077+733873395+735809868+736935856+736306737+735927064
2444+736968121+738315918+739622688+740559985+739923676+737681272+734464092
2430+730744202+727436699+725521481+724557626+723225961+721733287+720658257
2417+719217755+717032869+715120393+714714566+716493580+719623626+721510758
2403+721253314+720803718+721196289+722072921+723372186+724525406+725436281
2390+727457775+730080527+731170116+731204313+731941865+733696073+736108115
2376+737627752+737175685+737994259+742453948+747988127+752746558+756247246
2363+757801170+754132328+744723135+739068614+740159012+743952554+747809817
2349+749438606+749210326+748849212+749012108+749987872+752225828+752932957
2336+750409741+747579829+744692488+741273631+740260615+740238506+739019543
2322+738995367+740023122+737980822+732403863+728365369+728595042+729430242
2309+728468230+727694863+728514919+729398607+728234062+725842871+724521811
2295+724595508+724175616+721994506+720017275+720006220+720686927+721030965
2282+721327595+721504467+721500018+721302745+720377401+719186568+718958108
2268+719102671+717931791+715222220+712602659+711400502+710975443+710379892
2255+709540153+708623392+708468269+710096159+712538039+713538698+712778318
2241+711967294+712089882+712077614+710483562+707887637+705950939+704988163
2228+704503966+704509134+704714990+704248094+703297181+702930629+702576031
2214+700970025+699212132+698414589+697614395+696870012+696909017+696652112
2201+694961984+692811835+692006383+692440251+692691179+692415850+692336446
2187+692843336+693080065+692569310+692357432+692576006+692436611+692462090
2174+693350271+694688902+695742990+696332924+696935980+697074521+695790489
2160+694311565+694109079+694233195+693580978+692667273+692282612+692426365
2147+692530889+692577084+692920269+692542842+690919580+689731130+689670195
2133+689980261+690536896+691440086+692225721+691941629+690746258+690196273
2120+690769895+691715461+692553537+693046587+693328297+693742572+693935711
2106+693779061+693760367+693637015+693245119+693219145+693722620+694255753
2093+694238857+693604705+693028881+692853896+692461731+691288424+689764563
2079+689062691+689796783+691072411+691868202+692328268+692698055+693002728
2066+693659438+694657895+695126903+694734558+693999657+693403207+693650855
2052+694884872+696206381+697439095+698592899+698921299+698464649+698297618
2039+698917974+699771868+700400717+700461922+699887491+699752905+700397032
2025+700588105+700074205+699983207+700706469+701648575+701928892+701051541
2012+700533282+701646463+702455060+701553668+700506275+700483671+700808386
1998+700801646+700430511+700104627+700359825+700598800+700048096+699111832
1985+697915428+696240893+695037973+695284228+695806666+695342601+695009123
1971+695566478+695784288+695429689+695603371+695849761+695624761+695892990
1958+696214470+695188287+693510652+692679136+692481054+692139802+691885952
1944+691633675+690926905+689732073+687730397+684704110+681058680+677607379
1931+674817146+672665784+671619200+671692582+672037160+672290919+672715709
1917+673667701+674779444+675520681+676260660+677135585+677512831+677261184
1904+677498586+679123915+681239732+682782376+683694689+684352657+685120811
1890+685517561+685678211+686812512+688654438+690048116+690584485+690727295
1877+691164353+691579122+691403957+691091375+691102924+691124134+690769760
1863+690159335+689788694+689704976+689889308+690848220+692008630+691793022
1850+689931774+688262362+687969147+687831640+687811239+688921903+690016300
1836+689998281+689540282+688716541+686715313+684839730+684813352+685673582
1823+685869822+685314176+684946725+685053091+685104634+684688966+683435042
1809+682032377+681635313+681903947+681894779+681220993+680121024+679596967
1796+680154771+679575488+675962817+672540455+671137969+669813045+668214453
1782+666717779+664451873+661641598+659526950+657477011+654055637+650486736
1769+647992728+646182124+645224290+644618988+643824950+643200954+643395262
1755+644845696+646133322+645588550+643861169+642645128+642297045+642321356
1742+641923843+640837130+640147525+638956154+634931590+631033255+630162824
1728+630826364+630698249+628196467+625231610+623249840+620038278+615283756
1715+611941652+609620832+606898275+604104088+600650854+596694865+593443039
1701+588437005+582384880+578782725+573906110+567934827+563024554+558021890
1688+553679172+548435151+539968244+533098580+529254393+525385042+519642759
1674+513799817+510178204+506150585+500962061+498181131+496736629+493701714
1661+490445304+489194661+489969466+490196892+486521939+484777662+486825758
1647+487252975+485992940+486874695+489659175+492798569+494916857+495676698
1634+498286867+503776694+509563330+514625895+520202900+526580458+533005695
1620+539046540+543652005+547085152+551677405+556616304+560886134+565515371
1607+569948143+573073561+575263883+577246911+579419438+581381975+582993463
1593+584926386+587028093+588428646+589294314+590467711+592058663+593730906
1580+595247127+595330351+593531160+593651637+595714293+596006564+594983976
1566+595120674+596599239+598892242+599026334+594725722+592152446+592317994
1553+592522593+592448671+592340058+592826592+593559066+593177775+589972909
1539+585690721+585398630+586063698+583860119+581512023+581163895+580865244
1526+580547583+580056197+576816054+572520475+570050509+568126574+566276560
1512+564505410+562545390+558925709+552184835+547289166+545591444+543721927
1499+539510110+531921049+523738728+516887982+508332324+497577805+488703499
1485+482678112+477048396+470120718+462083499+453070427+442367316+427638519
1472+409944683+397777523+393380701+393458711+396450981+401147893+405199689
1458+407021527+408659618+413588540+420820128+428606418+436132074+442280408
1445+446305286+448562880+449212759+447513329+442543065+437136102+433872233
1431+430614206+426194241+421869453+418238268+414986712+411655977+407335592
1418+403040552+400480757+398861001+397704635+397476175+398986510+402222698
1404+405663394+408459334+410900180+412489739+411773218+408354001+402988920
1391+394442609+379319174+357810518+336184914+319975058+313661940+320133192
1377+335553077+352849601+367003159+376711813+385041954+396711526+413411174
1364+433141692+452626269+468700527+479637356+484938402+485078111+481224398
1350+474111040+464314355+453437293+444363376+439850077+440694399+445539289
1337+451449142+456178274+459178812+460041334+458563848+455403829+451217132
1323+446139648+440302683+433982015+427688039+422368479+418559613+416355540
1310+415882802+416753368+418589452+421885451+427001581+433335820+440598953
1296+448977289+457660299+465817770+473525465+480641924+487173212+493473254
1283+498901247+502634574+505153431+507476363+510610004+515325296+521465182
1269+528377851+535473459+542232668+548613057+554699468+559895002+563903029
1256+567123893+569707729+572155362+575058296+578035557+580675115+583164583
1242+585613339+587710282+589356147+590969882+592548836+593630831+594543952
1229+595980770+597685367+599392572+601280468+602813945+603376512+603222782
1215+603038900+603353370+604157159+604942884+605370729+605371808+604651152
1202+603348426+601873817+600094848+597982536+595315207+592038890+588879500
1188+585881299+582760464+579222030+573878473+565698085+554655070+539922812
1175+519968238+493713802+461521426+427083546+396668072+375801298+367518857
1161+371389107+383945175+400911434+418774143+435092499+447979372+456470051
1148+460730983+460988113+456888774+447329447+431753316+411352652+388482156
1134+366989072+351820430+347093567+354535258+371708205+392813415+412294937
1121+426181659+432027342+430215435+423817070+415894396+408317692+403036059
1107+401013981+400204484+398252688+394454966+387587369+377071556+365469525
1094+356621776+353297556+356818240+367125523+383077036+403427011+426523989
1080+449025372+468334650+484677901+498235370+508494277+515322150+517535930
1067+513906138+503885756+485522763+456678199+417195863+370050566+323231917
1053+286961548+267848218+267642496+285133845+317684099+361306600+409960816
1040+457417414+499784665+535376889+564099269+586795768+604417929+618189162
1026+629483016+638932427+646399260+651941618+656379423+660488109+663936714
1013+666317705+668380586+670685318+672674053+673952602+674691368+674763761
999+674090919+673219094+672642282+672134583+671279611+670280390+668790367
986+665808388+661997545+658775647+655770031+651296816+644568209+636307069
972+627070524+616422327+603285245+586187410+562288575+526455892+475295761
959+413395760+353872751+311745486+296347059+308519387+342411147+389168839
945+440018725+488126462+528741257+559624076+582641112+601184527+616521683
932+628605485+637718991+644731016+650067293+653492980+655722533+658033242
918+660400212+662110202+663347410+664186385+663631861+661466658+658980111
905+656791810+654032944+650136990+644881915+637405466+627205695+613754683
891+595608601+572169112+544741189+516298183+492727029+482718376+492558110
878+520102196+555028677+586432901+609775910+625978239+637327590+645310165
864+650192218+652227418+652245123+651319779+650415375+649701281+648729516
851+647368463+646037876+644701088+642954609+641166833+639544560+637610558
837+635101902+631903775+627925497+622986779+616529367+607420489+593571064
824+571173711+537487044+500363274+479198680+487517250+518813490+554428318
810+581060585+596150722+602551782+605177365+608091489+611946775+615400952
797+617399214+618519989+619579201+619794449+619046472+618599887+618654126
783+618427868+617394495+615609910+613729788+612455687+612024336+611869753
770+611037698+609653052+608818616+608520997+607830045+606587490+604927560
756+603161353+601994832+601439635+600890953+600033105+598849777+597659798
743+596938603+596677564+596771662+596867917+596143756+594890641+594071124
729+593789279+593779123+593791526+593402101+592165703+590776653+590706866
716+591344882+591028121+590245542+590347414+590906251+590988082+590631057
702+590308139+590486674+590846845+590841452+590944044+591189580+591345916
689+591791781+591983303+591864534+592430966+593279063+593765642+594297697
675+595258002+597278867+600164590+600655034+597453492+597320074+598714786
662+599205409+599924177+601511534+602964304+603748591+603994532+604365577
648+605502844+606940965+608491474+610501149+612285376+613666606+615225518
635+617011991+618918042+620578062+622222219+624466242+626794566+629083211
621+631856861+634025344+634696030+635368603+637095445+639763179+643218524
608+646585973+649278423+652007406+655219462+657830486+659386162+661457132
594+664937553+669098815+673040065+676039974+678233217+680906074+684801174
581+689143263+692716254+695506397+698475029+701721103+704821581+707719123
567+710395710+713045469+716289790+720271709+723696857+725733539+727337119
554+729695461+732843527+735835167+738980358+743357273+747929125+751097098
540+753429782+756062105+758525465+760280437+762420880+765964797+770434866
527+775464043+780660925+785056130+788316044+790722963+794086323+799267028
513+804302316+808650606+812741857+815773131+817423670+818578193+819517917
500+819415910+819523219+821955213+825180886+827327350+829278787+831335826
486+835367939+844745586+856955167+867056660+874835895+881592902+887142361
473+892140621+898030163+903900112+908633243+912746872+916259603+919099446
459+921208702+922859689+925568765+928121460+928413192+927611874+925839287
446+923139378+922433147+924563793+927068225+927230718+926099472+927191892
432+929776493+933204382+940158842+950061714+959938701+970212753+984044472
419+1000752343+1013866417+1022741937+1030203557+1036995615+1046003610
407+1058201057+1066810730+1066854409+1066100365+1073741823
##END=
