##TITLE=павел 6-многокр
##JCAMP-DX=4.24
##DATA TYPE=INFRARED SPECTRUM
##DATE=3/2/2015
##SAMPLING PROCEDURE=Instrument type and / or accessory
##ORIGIN=Default
##XUNITS=1/CM
##YUNITS=TRANSMITTANCE
##RESOLUTION=4
##FIRSTX=3996.3347
##LASTX=399.24773
##DELTAX=-1.928733
##MAXY=0.36840412
##MINY=0.063162819
##XFACTOR=1
##YFACTOR=3.4310307e-010
##NPOINTS=1866
##FIRSTY=0.28291818
##XYDATA=(X++(Y..Y))
3996+824586564+820525980+816772797+815363215+815621018+814859854+812611193
3983+812178538+815250816+818731081+818135388+813367406+810548068+813310599
3969+817568532+819521431+818800049+816850972+816263270+816397470+814807390
3956+811985880+809338353+807559784+807504540+808807978+810014393+811040310
3942+813630596+817343909+817997018+814942807+812693972+814041362+816339273
3929+816373757+815864230+814992665+811335551+807653507+808521250+813823775
3915+817391422+815145801+813025781+815495244+816161816+811341718+808052547
3902+810796317+815155443+816385744+814332520+811761170+810742550+812045467
3888+814750062+817397676+818482485+817038332+815022719+813600715+811232533
3875+810023426+812568284+814640009+813658478+812504180+809536048+804144057
3861+802547983+806008444+810282620+813560412+816147310+816921938+814719660
3848+811786273+809687447+806979465+804555778+804903744+807501934+808888064
3834+807686514+806771259+806335476+806465855+808959985+809594853+805763409
3821+802817427+802509156+802296433+803003396+805354119+808743701+811326430
3807+812010288+811299851+806839097+800597169+799983235+802673150+804589481
3794+805143655+802705636+799163874+797792249+797726756+796622490+794763662
3780+794827939+796669222+798472198+801307954+803959390+803107630+800473045
3767+799877872+799740545+796966634+793671210+793572101+794174831+791604870
3753+789039340+790653220+792837864+792756475+793366848+793955940+792101195
3740+789695923+789194821+790935605+791334819+788303278+784727119+783763829
3726+784524558+782965227+780635004+780910614+780387797+777519729+775159973
3713+773044296+769252286+764574380+760604305+758877158+757747876+752874706
3699+744852993+736934385+730528724+725879525+721689561+714980798+704929575
3686+696310648+691845725+689354418+684559249+676338928+669499917+668407377
3672+670181646+670658123+667545063+661440333+655089958+650229036+645137149
3659+638587689+634221136+634087544+632400831+626278554+620516491+616663504
3645+612181687+606838337+600884441+595547476+590188144+582734459+575493151
3632+571606853+568799588+565023474+560952901+555339760+548499402+542055740
3618+537069823+533579613+530214612+525815226+519108287+511244749+504849945
3605+498411667+490686455+484156365+480005055+476816773+473733073+470199996
3591+465948751+460306817+452601930+445046445+439126380+433272201+425464297
3578+417496003+414197191+413322152+409291144+403702976+399189628+395202529
3564+391269500+387287525+383956835+381001385+375981897+368235186+360587042
3551+355539802+353076811+351323693+347735112+343649229+341694853+341130104
3537+339783148+334737494+327319618+323378555+322943988+320442909+314225606
3524+307121711+301331244+297082953+294259619+293240195+292292583+288945932
3510+284355495+281025065+279123523+276930583+274704398+273657395+271828078
3497+268776907+265757831+261739135+257570604+255610887+254716934+252724448
3483+250411835+249099907+248236463+247026510+244728620+240562304+234964429
3470+229447966+226309890+226099773+226605326+227298717+227582362+225734544
3456+224568172+225577738+224369586+219278286+212809303+208965632+210270200
3443+212900637+213682778+213366886+210391805+205124590+201578940+200400538
3429+200104190+200380039+200211745+198638712+196634283+196553241+199494294
3416+201169932+197102030+191493841+190687531+193050870+193645956+192541082
3402+192355525+192597259+190849613+187153064+184263737+184357200+187785674
3389+191415383+190568661+186297004+184092838+185963653+188677303+188917083
3375+188276396+189921198+193055061+194909807+193947038+191081641+189619312
3362+190694349+192804749+194988112+196716171+198304058+199681415+200776560
3348+202128749+202383469+200396847+197266740+195755031+198067643+202717277
3335+206510567+207067000+204717993+203337726+204736841+206547679+208159214
3321+210949519+213915610+215173902+214511499+213482042+213494463+214182469
3308+215619239+217820626+219677347+221829093+224535512+225534372+224567282
3294+224902588+228414535+232488496+234193689+234941824+237632543+241776536
3281+244001419+243210678+242115164+243273240+246550098+249233456+250507643
3267+253035302+255999330+256847029+257833924+261062161+264452156+265541373
3254+264800969+264769916+266473979+268872454+271077120+273614594+277229776
3240+281070276+283688922+284164335+283821798+285616567+289752981+294763174
3227+299250269+301548354+302337986+304213905+307907783+311664332+314536221
3213+316761538+318180567+320116072+323740244+327812446+332051986+337346998
3200+342436734+345868705+348359296+349934197+351071904+354246439+358593492
3186+361500083+363974973+367080976+370432990+374462001+378643973+382064912
3173+385166029+387900938+390438890+393995984+398058870+401713509+405526192
3159+409309993+412890366+416615840+420718291+425558280+429082063+429732045
3146+430809514+434542979+439205728+444193642+449826196+455012066+458648247
3132+460148512+459970664+459635988+460476630+463413970+468003799+472304554
3119+475281329+477952309+480703418+482905782+485863187+490453494+495056005
3105+498848449+502362155+505202732+506686146+507690174+509022493+510840236
3092+513903785+517528196+520500758+523578726+527072107+530195503+532168206
3078+533105221+534733867+536696755+536681554+534848437+533400896+534886395
3065+540120083+546594755+550826499+552001817+552468348+553823295+555440650
3051+556825954+557607922+557470507+557903163+559088253+558744630+557650484
3038+557272464+557389075+559339976+562383417+563131508+560528193+556464873
3024+553601061+553192466+553786640+552034434+547414116+543027238+539869575
3011+535536638+528423275+520021458+512436440+505482424+496213516+482567371
2997+466822053+450332813+430667148+406840705+380115966+351465276+322073727
2984+293119414+264715541+237866373+214752669+197389866+188557348+189887257
2970+201227196+222260576+250315941+282112740+315568870+346671953+372843517
2957+394238196+409383000+418246614+423555306+425949069+424282464+417712896
2943+407035274+396457368+389759289+386123369+383223770+379911147+376467450
2930+375622074+379024555+384224367+388769072+391676314+392567509+393451365
2916+396273613+399837656+402235805+402351982+399348888+394567096+391180076
2903+389756770+388714870+387759137+386689052+384532333+381894274+380385018
2889+379865892+380169081+381985434+384190839+386375136+390491789+396247077
2876+401462350+406958011+415089646+425098133+434433708+442550056+450149406
2862+457482093+465709753+475395638+483920016+489982967+496349454+504873398
2849+513760985+520890938+526383689+530628419+533877373+537454879+541392946
2835+544652714+547900799+552042425+556740353+561074159+564695269+568247064
2822+571261754+573271981+575569067+578450902+581545634+584956237+588261433
2808+591723979+595621525+598861445+601136903+603792812+607227910+609570250
2795+609991787+610642638+613279742+617765251+622634990+625897277+627554240
2781+628676182+629021281+628355100+628075407+629458236+631507638+633187967
2768+634398203+634887014+635212005+635455259+635092875+634568407+633931324
2754+633678428+635103689+637337062+638514813+638317638+637673432+637671608
2741+638159985+638529405+638430731+637640034+636925905+636565953+635707026
2727+634101138+632891075+633196305+634265262+635880879+638990985+642784037
2714+645651584+646868813+646906467+647216909+648403215+649669216+650618999
2700+652418110+655639094+658763272+661258880+664296674+667545063+669371666
2687+669103700+667875266+667555487+668123124+668572370+669453837+670856123
2673+671037750+669196598+666480624+664397867+663155232+662018784+661892184
2660+663592317+665288976+666061215+667225849+668954646+670177347+671632966
2646+674447440+677416788+679881429+681817173+682443225+682732733+683592224
2633+684234475+684533842+684930667+685181783+684306874+682964565+683189405
2619+684430998+685202716+684967713+683407644+682607132+684147180+685559238
2606+685430640+685176050+684788562+683468707+682416385+682578598+682795316
2592+682238319+681844100+682790365+683970721+683357568+681610487+680575493
2579+681023089+682549152+683636002+683964597+684811276+685709681+685265039
2565+684704220+685680409+687512354+688828647+688894401+688409151+688728540
2552+689934867+691130728+690843912+688372366+685306341+683537458+683163477
2538+683083174+682422986+681521802+681707945+683262238+684441335+684008158
2525+682665502+681684058+682149721+683706403+684698617+685256527+686520747
2511+687991523+688477902+687676478+687124562+688103313+688955030+688701873
2498+689042239+690261378+691127861+691853022+692638594+693144430+693799015
2484+693793717+692623263+692253886+693148078+694101466+695106015+696180574
2471+696727104+696946949+697141171+696924496+697290181+699151485+700954635
2457+701738340+702090996+702209475+702311927+702833833+703362860+703145230
2444+702306976+701676625+701733823+701581034+700564368+699571502+698476965
2430+696428910+694343374+693357066+692615793+690819591+689015703+689033205
2417+689912587+689687009+688887669+689137439+689917321+689480888+688255581
2403+687478869+687357002+688750820+691267882+692475338+691889330+691313961
2390+691598996+692189001+692977873+693679407+693526575+693374872+694794270
2376+696877895+697179564+696611970+698056687+700759458+701159324+693575391
2363+681862862+682665546+696076253+706621282+707499839+703469005+702502023
2349+704672422+706284521+706090170+705016305+704703215+704282503+701263557
2336+699086122+702414424+705406399+701031377+696535575+698138554+699728721
2322+697820816+695302668+693626813+692188827+690662894+690234625+690822414
2309+690521440+689271769+687953304+687377285+688310043+689618041+689620864
2295+688403245+686734946+685195854+684036909+683198482+683187147+684014195
2282+684613711+684792905+684556165+683512007+682634797+682768216+682986975
2268+682041839+680010027+678433541+678182990+678973947+680050504+679903448
2255+678379600+676932016+676376713+676728674+677148344+676980702+676653061
2241+676571282+676638729+676448547+676107139+675696547+674714321+673449188
2228+672321427+671457202+671525779+672218540+671809424+670106207+669053277
2214+669316205+669638417+669465911+669073950+668135980+666994538+666950065
2201+667196142+666503946+666039065+666013224+665521633+665111518+664802597
2187+663939588+663328390+663620590+664003301+664040781+664142278+664065927
2174+663416163+663306544+664453980+665405543+665438160+665560286+665819437
2160+665292494+664266186+663811251+663687300+662765443+661387000+661070869
2147+661605238+661454143+660761339+660484556+660122475+658974128+657912468
2133+658010577+658955149+660076786+660894671+661002379+660672654+660207730
2120+659822544+660333548+661756377+662783770+662710894+662049794+661508258
2106+661301572+661437900+661782044+661404502+660244124+659646607+659608301
2093+659559137+659453080+658946028+658623426+658601363+657672818+656337762
2079+656073834+656885465+657724543+657851057+657867083+658378304+658581559
2066+657856268+656908917+656765119+657133844+657129414+657244462+657839070
2052+658274809+658641927+659380290+660305101+660771241+660527379+660486988
2039+661034561+660981315+660180933+659911142+660329248+660511830+659822066
2025+658800492+658310118+657927104+657347002+656900666+656587531+656646814
2012+657088633+657667041+658424427+658858038+658870242+659183680+659499464
1998+659371040+659151542+658939253+658797973+658428640+657445328+656504622
1985+655855162+655192107+654898560+655084877+655102510+654384516+653318122
1971+653034259+653716901+654516935+654925226+655019688+654734870+653888191
1958+653186961+653008635+652338893+651288090+651127006+651580291+651341987
1944+650490010+650237635+650221870+649434386+648286907+646554115+644042959
1931+642223479+641591651+641145446+640267106+639747763+640566212+641576407
1917+641807762+642087281+642520414+642827468+643441663+644147974+643937814
1904+643268809+643728956+644724341+644894850+645124988+646132795+647002926
1890+647525700+648317613+648909702+648538153+647848563+647948366+648663233
1877+648814068+648381499+648519435+649458534+650534700+650819865+650105476
1863+649361684+649235822+649595818+650143043+650303736+649754730+649485591
1850+650270555+650753199+649251935+646778086+646080635+646745904+646762364
1836+646361326+646810008+647677403+647650867+647000016+646378916+645401641
1823+644545060+644388363+644395963+643875838+643090701+642874199+642938216
1809+642439459+641473346+640678133+640624192+641348049+641803245+641503791
1796+640998824+639428114+636911660+635978077+636153102+635831542+635038630
1782+633501579+630971401+628708842+628171519+628253168+626034040+622259794
1769+620300684+620194887+620119188+619025432+618115388+618477860+618540313
1755+618219969+618744567+619050144+618210197+617245952+616587935+616056171
1742+615416092+614766587+614925934+614774970+612321447+610093024+609621802
1728+608790107+607238376+605583455+604571262+604024427+601725474+597648560
1715+595222268+594283342+593039795+591562591+589859114+587748084+585689128
1701+582545754+578268233+574399656+569763529+566033930+563844030+560909731
1688+557949329+554630409+548429479+542749630+540094241+538125621+534447529
1674+529605151+525680678+521994552+518462171+516239785+514047106+510932657
1661+508407473+507682009+508489644+508434270+504700631+502398029+502878936
1647+501643162+499599580+500057121+502080291+504571077+506659306+507540469
1634+508737806+511423335+515076845+519138602+522883272+525666737+528289943
1620+531864019+535207999+537749425+541382783+546243054+551052208+554753057
1607+556984042+558845693+561203625+563482514+565244405+566862672+568553641
1593+570118618+571172895+571857534+573029421+574456984+575257366+575992124
1580+577526092+578874264+578327212+577719141+578772158+579679553+579542313
1566+579431391+580017313+581239796+580855219+577315497+575496712+576173013
1553+577353846+578363781+578866924+579134760+579089245+578443910+576363456
1539+573622596+573680185+574807599+573985545+572161244+571292242+570876872
1526+570741282+570554226+568566800+565794366+563540972+561280975+560384134
1512+560394818+559658366+557518281+552743872+548547610+547303412+546297256
1499+543060853+537401546+532440603+529168718+523692210+514674721+506332795
1485+500706669+496383851+491851697+486416796+479432075+470000042+456697737
1472+441296215+430897808+427580929+429245709+433063126+436220181+438313013
1458+439276216+440297703+444174923+450488381+457661808+464027470+468487312
1445+471540871+473451729+473768555+471989466+467624563+463345002+461414296
1431+459373754+455632949+451777705+448689965+445900116+442974242+439093113
1418+435463142+433866635+433114678+432466346+432511254+433410831+434562088
1404+435873952+437899423+440387474+442623844+443546874+441614691+436509862
1391+428530712+415942970+397900131+378550858+363449898+357246797+362213517
1377+375136738+390086364+402100215+409633855+416219101+426586933+441514627
1364+458618106+474833516+487188644+494738657+498338183+498710209+495854693
1350+490035344+482487676+474556733+467526497+463574098+464135569+468165838
1337+473158660+477025457+479058616+479361891+477851116+474731845+470892931
1323+466719861+461798787+456476110+452010145+448711984+445901940+443451196
1310+441962961+442116314+443829998+446445864+450176203+455293409+461210433
1296+467710860+474586831+481170905+487087972+492323657+497414154+502753117
1283+507481273+510603409+512695373+515190155+518348991+521750820+525719071
1269+530543860+535963386+541557765+546840963+551460368+555254550+558231628
1256+560477379+562408737+564580308+566888991+569221994+571516821+573134958
1242+574136857+575541098+577708717+579728022+580570444+580658999+581187853
1229+582219807+583019016+583713254+584875065+585956399+586423625+586848420
1215+587310000+587345396+587207243+587539530+588416828+589189545+589195538
1202+588114899+586400260+584966921+583468566+581205095+579045814+577686785
1188+576478764+574818066+571915905+567107446+561064039+553657738+542957054
1175+527518399+506822909+481133468+452859951+426874661+408566331+400825962
1161+403250517+413819997+429113984+444612443+457431453+467410190+475017401
1148+479767837+480498947+476203447+467257228+454595263+437686744+417191903
1134+397724976+384728639+381148180+387492083+402170399+420876074+437806569
1121+449202098+454242520+453087267+447376190+440453401+434209215+429067383
1107+425939123+424541006+422885216+419470357+413422520+404383794+394216003
1094+386567967+384297895+388367252+398292570+413053664+431321864+450859930
1080+469248606+485486036+499472720+510823212+519201923+524451159+526367576
1067+524285385+516461324+501096284+476745330+442242263+400284556+358804934
1053+326442538+308994546+308378483+323740592+353009255+391669930+433435803
1040+473604171+509489893+539194925+562549712+580778737+594456891+604604356
1026+612928172+620225289+626609843+631254655+633741402+635553760+637491371
1013+639003276+640158052+641240168+642123719+642716503+642870334+642626211
999+642383130+642293750+642114425+641819054+641438689+640420112+638570838
986+636316140+633917513+631874192+629965028+626785042+622101880+616773384
972+610663615+602956861+592919231+579333672+559703837+530289313+488196711
959+435554607+382603364+344094827+330168946+341408928+371967305+414019039
945+459258533+500727689+534466074+559276394+576943775+590736845+602146620
932+610957640+617558521+622954943+626973834+629007948+629995386+631273547
918+633248639+635475194+636689122+636441524+635651739+634679546+633145014
905+631149987+629162735+626919329+623649832+618909733+611846837+601224285
891+586399869+567504358+545580564+522777084+503503207+494801632+502269778
878+524613416+553291010+579104576+598421233+611814482+620323485+625109751
864+627778646+629558300+630662870+630746561+629924507+629096981+628744629
851+628296034+627425338+626104919+624344635+622648931+621199697+619967659
837+618747303+616754665+614117431+611168452+606700011+599428475+588235940
824+570019770+542169832+511142861+493219586+499818687+525896615+556057320
810+578445083+590954302+596863813+599944603+602818752+605918869+608127574
797+608713409+608811953+609796437+610832386+610628784+609836610+609758435
783+610112438+610137540+610227051+610302446+609334553+607316378+605438787
770+604672976+604841183+605048868+604943722+604383294+603199030+602241559
756+601940021+601234404+599961194+598977101+598316001+597972204+598139890
743+598330984+598174764+597518919+596448747+596048795+596752674+597055689
729+596142952+595248152+594927591+594571460+594206600+594365426+595132019
716+595612100+595329584+595118468+595415664+595724542+595593165+595151215
702+594962466+595305567+595493057+594973020+594628181+594799167+595078035
689+595923584+597053127+597572513+597890598+598538713+599162506+599532447
675+600005580+601723042+604615691+604428115+599672424+599568451+602369853
662+604471241+605403522+605679870+606290678+607419308+608520707+609581369
648+610629348+612135911+614009810+615399979+616417079+617771679+619355852
635+620261162+620960004+622857615+625753088+628544935+630707821+632768427
621+634990465+636178769+636353621+637637906+640637221+644110624+646956065
608+648864187+650168754+651069764+652397524+655445915+660047254+664899708
594+668781879+671479004+673555810+675311274+677152774+679652550+682438056
581+684890711+688005464+692313038+696170758+698778851+701446226+705107379
567+708661607+710775894+711831300+713137431+715623006+719418924+723464829
554+726515392+729191149+732189335+734998858+737413945+739602498+742266703
540+745773895+749251641+752046225+754928538+758740612+762574750+765506226
527+768312623+771991886+776134902+779674841+782401064+785404983+789726846
513+793791165+795783933+797423090+800610285+804461100+808340058+812265660
500+814279188+813571617+812568718+812595385+813627729+816181360+819964336
486+824915073+831348269+838982842+847873079+857617248+866455629+872139909
473+875091884+879383867+886827866+895310290+901616843+903941768+904651597
459+906528232+909281817+911962351+913415799+914031384+916122913+919099904
446+920992695+921556945+920588009+918756629+917621615+918491008+921954335
432+926015267+928767722+932283861+940074523+952995204+967854973+979880549
419+985713709+989119794+999043766+1015273248+1029106839+1038674854+1048330424
405+1058093008+1067252167+1073181656+1073741823
##END=
