##TITLE=Ρμερό_5_2,1μμ
##JCAMP-DX=4.24
##DATA TYPE=INFRARED SPECTRUM
##DATE=7/4/2017
##SAMPLING PROCEDURE=Instrument type and / or accessory
##ORIGIN=Default
##XUNITS=1/CM
##YUNITS=TRANSMITTANCE
##RESOLUTION=2
##FIRSTX=7998.4873
##LASTX=3799.619
##DELTAX=-0.96437031
##MAXY=0.63983494
##MINY=3.8377926e-005
##XFACTOR=1
##YFACTOR=5.9589272e-010
##NPOINTS=4355
##FIRSTY=0.1712209
##XYDATA=(X++(Y..Y))
7998.49+287335105+287704375+288103778+288500806+288830216+289177230+289584360
7991.74+290002043+290420876+290795998+291134410+291463695+291754895+292076053
7984.99+292475531+292896139+293345980+293806349+294203601+294553892+294857120
7978.24+295094206+295317139+295580757+295925996+296333201+296714299+297081244
7971.48+297515281+297951918+298273551+298557224+298963779+299461933+299878565
7964.73+300157662+300415954+300748664+301118685+301453546+301772228+302134897
7957.98+302523972+302903895+303300923+303749463+304235314+304682129+305059726
7951.23+305424420+305799217+306181541+306559263+306923482+307302905+307664898
7944.48+307940869+308144722+308373956+308700015+309144605+309689645+310153565
7937.73+310390751+310553768+310820637+311196409+311607015+311979461+312297693
7930.98+312608198+312974293+313380822+313756369+314168125+314783209+315499344
7924.23+315919077+315959612+316017102+316324206+316718633+317078576+317463500
7917.48+317842648+318202516+318652632+319054911+319242534+319432958+319782398
7910.73+320137415+320423314+320790483+321321795+321853432+322234931+322532283
7903.98+322867969+323367973+324144098+324857607+324980164+324819147+325075013
7897.23+325734934+326338639+326602907+326594855+326627389+326886431+327312966
7890.48+327807468+328282541+328840885+329783353+330735473+330847452+330390484
7883.73+330287683+330590411+330897390+331157007+331493244+331943660+332406679
7876.98+332718010+332879951+333060523+333342496+333720943+334162882+334626352
7870.23+335151262+335670946+336094130+336767729+337843456+338537210+338390197
7863.48+338177868+338455889+338899104+339311385+339659550+339779956+339838246
7856.72+340076457+340385762+340637252+340923601+341558440+342600533+343433698
7849.97+343724423+343878463+343994768+343896818+343815272+343972712+344340032
7843.22+344990575+345989007+346857306+346983864+346662556+346589512+347102644
7836.47+348242963+349358476+349716018+349498062+349170753+349022064+349178755
7829.72+349463753+349729522+350049004+350440205+350799073+351097400+351395001
7822.97+351735139+352131341+352537421+352897664+353249855+353647682+354043584
7816.22+354377346+354852468+355782658+356882042+357514705+357917184+358816665
7809.47+359781289+359780464+359215468+359459181+360706578+361612612+361254594
7802.72+360458139+360507352+361683330+362975438+363182566+362665033+362366356
7795.97+362269331+362220018+362328146+362560306+362864184+363318877+363978222
7789.22+364591480+364917414+365204813+365808169+366886322+368262652+369016246
7782.47+368540223+367653319+367283124+367392227+367657296+367962924+368310414
7775.72+368829523+369827705+371466403+373020404+373297525+372422374+371723094
7768.97+371938000+372666612+373083720+372999898+373073617+373862021+375247078
7762.22+376630260+377163697+376506703+375520899+375130598+375279211+375609872
7755.47+375994546+376404752+376809131+377244018+378023494+379418404+380827017
7748.72+381172531+380486154+379830210+379861193+380514561+381461431+382590872
7741.96+383941845+385042679+385317625+384791314+383873703+383155218+382968169
7735.21+383187326+383748596+384796716+386331362+387739050+388201994+387764131
7728.46+387196510+387026791+387407064+388364936+389259167+389203402+388553635
7721.71+388281365+388528328+388905150+389242637+389710358+390617667+391793545
7714.96+392427909+392321407+392278971+392971049+394464234+396222963+397349053
7708.21+397424723+397034197+397170332+397747306+397671911+396833670+396253146
7701.46+396449746+397000113+397280686+397198314+397125596+397309318+397697118
7694.71+398107549+398412527+398684598+399114258+399816540+400928001+402233213
7687.96+402777878+402277849+401762466+402084599+403270505+404629606+405422085
7681.21+405692280+405652070+405637166+406390535+407762814+408491377+408012453
7674.46+407143204+406834449+407449608+408668272+409363127+408942418+408270445
7667.71+408150714+408620935+409747801+411183946+411771498+411200751+410526127
7660.96+410436003+410746959+411188372+411717359+412346321+413161856+414189021
7654.21+414805855+414642063+414374719+414470244+414807806+415250270+415735270
7647.46+416273884+417034880+418273650+419670935+420585221+420937162+420807728
7640.71+420260737+419735902+419607269+419750806+420012923+420626181+421851097
7633.96+423384243+424295378+424061918+423286768+422758081+422657855+422823148
7627.20+423076263+423347683+423659714+424057716+424525187+424974703+425372155
7620.45+425729648+426096092+426576316+427328660+428588185+430102125+430865322
7613.70+430462168+429741882+429479665+429648408+430030657+430664870+431630119
7606.95+432626576+433423882+434337418+435273759+435572286+435187287+434636895
7600.20+434323764+434369426+434655850+435116419+435738129+436573494+437553797
7593.45+438030520+437718740+437301732+437252519+437464124+437801711+438214718
7586.70+438621473+438933553+439198721+439524405+439921308+440355770+440797384
7579.95+441199938+441553129+441917923+442324728+442736084+443138938+443563097
7573.20+444031968+444621320+445363611+445959665+446086148+445972018+446079696
7566.45+446474448+446932616+447314414+447654852+448151280+449060115+450217063
7559.70+450863130+450734396+450508038+450580857+450765855+450986161+451268734
7552.95+451582065+451941908+452371369+452803430+453189680+453555524+453904964
7546.20+454282111+454758534+455297273+455911532+456777205+457787065+458358513
7539.45+458238182+457938905+457920550+458148459+458531958+459124710+459992584
7532.70+460843104+461138980+460975188+460929926+461174789+461524179+461909229
7525.95+462349742+462741793+463062576+463498989+464225676+465149964+465855896
7519.20+466078804+466021239+466006635+466240846+466854054+467622252+468000299
7512.44+467966291+467988446+468277071+468806507+469477480+470228124+471099049
7505.69+471904406+472308561+472321064+472293507+472595184+473311119+474039507
7498.94+474309677+474221204+474257813+474566143+474914783+475241717+475668627
7492.19+476269232+476997970+477640886+478023384+478097153+477950066+477841988
7485.44+478005180+478498657+479100362+479459055+479556430+479690764+480097169
7478.69+480740085+481308632+481639367+482053474+482691238+483179764+483471640
7471.94+483884646+484374572+484639291+484647993+484720362+485130317+485792188
7465.19+486346931+486541431+486534429+486615050+486807750+487007251+487255015
7458.44+487659520+488144195+488588909+489074685+489630478+490056938+490283947
7451.69+490470295+490690451+490899955+491130565+491504761+492044501+492577488
7444.94+492916375+493037457+493086719+493241409+493546438+493973098+494453572
7438.19+494815415+495018067+495230122+495497591+495739504+495971263+496278793
7431.44+496709304+497158770+497465549+497694908+498057901+498596690+499124677
7424.69+499425154+499524030+499620755+499822857+500146440+500485177+500667925
7417.94+500722489+500804810+500994109+501262678+501504040+501688138+501903593
7411.19+502141155+502324802+502512450+502783820+503093200+503392277+503700807
7404.44+503933167+503964425+503915312+503966275+504091007+504192234+504249298
7397.68+504337371+504500263+504642150+504679459+504671557+504693263+504743426
7390.93+504793088+504816945+504805342+504719469+504608841+504595988+504662105
7384.18+504747177+504784686+504641149+504312064+504021239+503961924+504033993
7377.43+503929016+503474798+502934309+502560163+502253784+501969910+501782112
7370.68+501656279+501404565+500981055+500615811+500369898+500088325+499740485
7363.93+499456812+499256811+499039905+498812046+498584387+498275308+497959076
7357.18+497755223+497542268+497254844+497083000+497077098+497084400+497030136
7350.43+496943214+496768719+496462940+496171765+496125303+496354762+496620981
7343.68+496790625+497003880+497250093+497281451+497191828+497320211+497566925
7336.93+497715213+497812088+497962077+498197788+498484111+498737827+498954883
7330.18+499230504+499528781+499664966+499728582+499939587+500243315+500419511
7323.43+500427263+500481827+500665624+500844470+500930292+500976054+501030718
7316.68+501055174+501061226+501158051+501307289+501298137+501060576+500781004
7309.93+500689530+500787255+500781304+500502832+500264421+500258119+500332388
7303.18+500324886+500236863+500126735+499924783+499623055+499392846+499319527
7296.43+499389245+499369540+498962735+498394938+498001437+497764826+497557072
7289.68+497344267+497134863+496911106+496685648+496452487+496161062+495809672
7282.92+495480087+495232173+495017017+494754149+494459323+494188403+493886876
7276.17+493553590+493312928+493090320+492736529+492338126+492000389+491726068
7269.42+491487307+491197132+490819685+490411579+490028781+489706398+489387665
7262.67+488996314+488609515+488312988+488058373+487759095+487375696+486947186
7255.92+486571589+486285365+485964332+485504414+485043295+484725663+484496854
7249.17+484265644+484040386+483852188+483690046+483597022+483544608+483287792
7242.42+482894441+482638525+482482434+482352651+482250775+482153600+482062276
7235.67+482027467+482063676+482002111+481676427+481300930+481129836+481101978
7228.92+481096527+481094226+480994351+480735434+480480068+480305373+480156585
7222.17+480025501+479891416+479702067+479488462+479288911+479054500+478751722
7215.42+478460447+478212233+477906154+477549662+477222778+476883390+476491639
7208.67+476100389+475796110+475536293+475152644+474642663+474146635+473726326
7201.92+473376136+473071257+472778732+472469952+472160072+471865396+471531110
7195.17+471143360+470802922+470561360+470368710+470184713+470028823+469954653
7188.42+469988362+470082386+470173060+470282888+470463335+470692844+470916251
7181.67+471113702+471383872+471810482+472348871+472961779+473645305+474371443
7174.92+475104982+475852325+476680388+477635734+478711512+479849105+480922232
7168.16+481927041+483028325+484223033+485403488+486616901+487918236+489231225
7161.41+490418881+491555574+492808448+494134790+495448378+496740562+498005288
7154.66+499259211+500524738+501721246+502801425+503868300+504955680+505994598
7147.91+506988705+508013119+509017728+509897705+510721968+511550731+512381796
7141.16+513219262+513994762+514633226+515237632+515918208+516579478+517136122
7134.41+517664758+518211799+518736234+519219309+519678978+520112739+520512493
7127.66+520867184+521196719+521527804+521829482+522092000+522372622+522687654
7120.91+522970577+523229993+523431345+523429095+523374581+523466654+523603890
7114.16+523679059+523703466+523673508+523616093+523610242+523635248+523595238
7107.41+523481308+523348524+523197335+523008436+522810885+522632439+522445191
7100.66+522198928+521920006+521683495+521490745+521265987+520950506+520563306
7093.91+520176606+519847921+519574751+519315284+519034461+518720330+518403299
7087.16+518119425+517864210+517624448+517434349+517341325+517324020+517314918
7080.41+517319369+517414644+517623698+517902619+518218601+518569341+518977697
7073.66+519507883+520145548+520745703+521353409+522134611+523023240+523933925
7066.91+524909977+525916686+526921546+528009876+529195182+530380338+531524283
7060.16+532676430+533890993+535140665+536372033+537570542+538727340+539867334
7053.40+541038236+542207888+543336729+544464770+545603864+546724853+547800980
7046.65+548809791+549780241+550744940+551700486+552635677+553564617+554488355
7039.90+555354829+556178841+557014407+557838869+558641876+559431330+560164169
7033.15+560826440+561488410+562208146+562953188+563644717+564262026+564867782
7026.40+565505597+566145362+566750167+567301760+567816693+568364534+568961438
7019.65+569549940+570111234+570649973+571130097+571538352+571917950+572313552
7012.90+572767119+573255445+573699310+574113417+574540877+574946831+575300573
7006.15+575611903+575906079+576203506+576520987+576860375+577186359+577459279
6999.40+577694090+577940153+578217525+578503599+578764216+579023283+579322810
6992.65+579624488+579898659+580172029+580474807+580804942+581117273+581400646
6985.90+581672916+581960690+582313781+582704082+583050371+583358501+583715393
6979.15+584145554+584589018+585023380+585465544+585917861+586383981+586885911
6972.40+587424550+587965889+588538937+589182003+589820417+590414521+591042683
6965.65+591732761+592438893+593128421+593805995+594527081+595288578+596017116
6958.90+596700592+597389720+598134862+598894958+599583935+600243506+600964091
6952.15+601732940+602496037+603264235+604060390+604836090+605529469+606161582
6945.39+606831905+607598402+608386956+609100690+609751258+610408777+611126562
6938.64+611877006+612565784+613180942+613792300+614439767+615119292+615806619
6931.89+616480993+617111706+617679702+618231045+618813845+619422502+620047013
6925.14+620689729+621326293+621921046+622482741+623050538+623642490+624261700
6918.39+624887361+625481465+626079069+626724285+627381255+628022220+628649982
6911.64+629274643+629932613+630619040+631290763+631975389+632716030+633458122
6904.89+634164454+634884690+635630132+636378775+637134970+637890665+638639858
6898.14+639394453+640161000+640928198+641686944+642445840+643201085+643947577
6891.39+644718376+645540688+646387706+647215820+648016126+648802579+649570577
6884.64+650313919+651055660+651808704+652561599+653302090+654000720+654641935
6877.89+655259745+655896159+656573833+657291869+658025308+658739492+659384158
6871.14+659929649+660431778+660965566+661541215+662140869+662741774+663322974
6864.39+663879868+664409004+664921186+665429217+665903790+666320797+666717800
6857.64+667137008+667568619+667965521+668303259+668616889+668954627+669331824
6850.89+669699869+670006098+670267765+670489022+670683572+670911581+671163646
6844.14+671394956+671622415+671868628+672101788+672296738+672508843+672783064
6837.39+673083941+673391171+673689898+673943313+674231838+674649945+675126518
6830.63+675577785+676008646+676446159+676932634+677476774+678029267+678570607
6823.88+679125900+679707800+680318657+680962223+681643549+682361884+683089972
6817.13+683788552+684443521+685079735+685728303+686399476+687121112+687919818
6810.38+688729477+689449212+690089777+690729342+691421921+692167013+692911505
6803.63+693640493+694378884+695095918+695750137+696383601+697061525+697780961
6796.88+698510049+699259692+700062049+700863756+701548083+702106326+702673473
6790.13+703366251+704130148+704851584+705531460+706199232+706848600+707502268
6783.38+708190646+708889726+709576703+710256528+710935604+711634734+712323462
6776.63+712941921+713517019+714100170+714723130+715403106+716087132+716711043
6769.88+717298445+717906051+718535864+719157424+719765281+720359834+720945785
6763.13+721555993+722185255+722790011+723381764+723992021+724604829+725209135
6756.38+725833446+726466409+727042258+727546688+728067922+728670177+729277784
6749.63+729841680+730428831+731044790+731648646+732250151+732849505+733430805
6742.88+733994501+734545243+735112639+735715144+736312999+736884346+737460795
6736.13+738042495+738605890+739167985+739748935+740314130+740827663+741342696
6729.38+741905141+742466536+743011676+743577372+744160222+744724118+745239451
6722.63+745741580+746284620+746847665+747401458+747936896+748470084+749044282
6715.87+749616129+750113508+750588030+751101162+751632600+752160436+752688672
6709.12+753220409+753755147+754298587+754842777+755377765+755931808+756496854
6702.37+757049447+757619644+758187340+758727179+759291875+759892780+760484833
6695.62+761043177+761585767+762146161+762719909+763279903+763823594+764384638
6688.87+764992645+765609754+766203557+766812164+767454480+768077991+768640086
6682.12+769179625+769742870+770313317+770874562+771457913+772091326+772741094
6675.37+773355552+773943304+774541808+775152115+775754721+776358626+776993840
6668.62+777653811+778285824+778868124+779445923+780042277+780630978+781230483
6661.87+781878150+782543172+783160531+783720525+784290772+784906081+785527041
6655.12+786147251+786775063+787359214+787887700+788440893+789039297+789621547
6648.37+790185593+790765492+791371698+792008563+792660281+793290043+793871043
6641.62+794416634+794965375+795533522+796120323+796712576+797284223+797832815
6634.87+798396010+799001316+799623477+800221131+800795379+801369677+801927971
6628.12+802458858+803005499+803589700+804188254+804786658+805377611+805956960
6621.37+806510753+807027436+807542819+808079257+808644053+809246008+809803152
6614.62+810273423+810767151+811332746+811905844+812452335+812985373+813523912
6607.87+814075854+814614693+815108270+815586494+816084522+816589652+817096933
6601.11+817632121+818209870+818770515+819263992+819751018+820266601+820767880
6594.36+821271210+821799346+822305676+822778148+823256772+823765003+824280686
6587.61+824767861+825236732+825705803+826196230+826741871+827316819+827851257
6580.86+828325279+828795200+829295729+829790007+830260228+830723547+831193169
6574.11+831690347+832223634+832745569+833204987+833632898+834104519+834618052
6567.36+835114030+835607357+836109737+836566704+837013770+837514749+838021780
6560.61+838483649+838948219+839459400+839979135+840467160+840919177+841372494
6553.86+841859920+842359648+842865279+843379912+843879741+844339659+844762168
6547.11+845204282+845702411+846232347+846754682+847244108+847716530+848193853
6540.36+848659673+849110690+849577910+850050332+850493646+850935060+851418585
6533.61+851914413+852362728+852780736+853244556+853762189+854270120+854730539
6526.86+855171653+855639974+856130800+856610324+857053938+857461643+857883352
6520.11+858363076+858870107+859353131+859824253+860304076+860770797+861231916
6513.36+861706538+862181561+862661885+863127405+863551114+863982525+864485155
6506.61+865048200+865595041+866070764+866504576+866946189+867416511+867910838
6499.86+868429972+868989116+869548060+870046289+870496805+870949322+871434547
6493.11+871952981+872498821+873084172+873689329+874256575+874780510+875292842
6486.35+875832281+876430736+877039993+877614241+878195891+878795345+879368593
6479.60+879910433+880460375+881040324+881637478+882242835+882842489+883423939
6472.85+883996987+884565434+885124178+885682122+886274974+886899836+887478685
6466.10+887976813+888462439+888991675+889521812+890026942+890556679+891111722
6459.35+891650561+892158192+892633614+893099835+893575557+894054981+894538306
6452.60+895025831+895520659+896008685+896457601+896890912+897354332+897823153
6445.85+898261166+898689776+899141793+899609313+900064031+900505044+900948959
6439.10+901396174+901836188+902277201+902734319+903192337+903634452+904075565
6432.35+904531383+904979698+905407209+905829418+906236823+906637326+907084841
6425.60+907578969+908045189+908456495+908879604+909336222+909775935+910194343
6418.85+910620753+911061167+911511083+911959399+912403813+912860231+913333853
6412.10+913799273+914236886+914654394+915068500+915483207+915886311+916283214
6405.35+916701922+917142335+917586650+918007458+918372453+918738147+919181061
6398.60+919644481+920049485+920412979+920790276+921210685+921651998+922073107
6391.85+922487214+922911823+923313627+923707228+924140640+924591857+925020567
6385.10+925436474+925861284+926293495+926703801+927073897+927438991+927842595
6378.35+928274606+928696615+929093818+929484818+929892524+930318734+930747344
6371.59+931181456+931636173+932066484+932420276+932737057+933103252+933526261
6364.84+933932966+934309663+934715367+935152280+935558985+935930781+936316980
6358.09+936729387+937157697+937573405+937938699+938262182+938579464+938920652
6351.34+939304251+939721759+940145768+940543871+940903263+941248252+941618348
6344.59+942009149+942396748+942778347+943134739+943449320+943764301+944124494
6337.84+944503192+944858383+945207073+945576569+945944363+946295954+946645244
6331.09+946981831+947299313+947622896+947972887+948324877+948643259+948965343
6324.34+949343540+949737442+950086332+950422718+950784512+951141204+951482492
6317.59+951836083+952215181+952586777+952904058+953194233+953518217+953874609
6310.84+954228500+954571188+954916177+955284072+955680975+956070175+956407262
6304.09+956699837+956995214+957305694+957621775+957965164+958337460+958693852
6297.34+959017035+959333517+959665202+960005490+960341176+960667961+960999246
6290.59+961321929+961620806+961932987+962265873+962580254+962873330+963181009
6283.84+963518396+963857683+964172164+964473542+964791724+965114708+965410784
6277.09+965699258+965988733+966265604+966556579+966866759+967160835+967437307
6270.34+967723780+968033260+968347841+968636216+968909886+969211664+969519444
6263.59+969780711+970015972+970280440+970577616+970887696+971201977+971511857
6256.83+971823038+972120314+972374180+972612041+972860505+973105168+973353832
6250.08+973618601+973901274+974185247+974412205+974605355+974863822+975169701
6243.33+975443872+975674431+975877383+976081636+976316697+976567861+976830129
6236.58+977120404+977395075+977595927+977761369+977980226+978251796+978508462
6229.83+978746223+978985085+979191038+979362582+979559133+979797594+980048659
6223.08+980277818+980477970+980675121+980877773+981085126+981289279+981468425
6216.33+981626266+981781306+981950550+982138898+982321245+982487288+982654631
6209.58+982825175+982992818+983163762+983345209+983512252+983623381+983690398
6202.83+983766018+983886949+984038288+984157019+984241540+984352669+984490205
6196.08+984605034+984683654+984748571+984807887+984857099+984908613+984965727
6189.33+985026343+985091760+985137372+985140172+985113265+985079056+985058351
6182.58+985051349+985032945+985005738+984979331+984915814+984810887+984727166
6175.83+984675052+984598332+984493005+984399481+984291153+984115008+983905554
6169.08+983723307+983569667+983423129+983256786+983060436+982833577+982570710
6162.33+982313243+982089285+981845322+981563650+981286378+980997304+980671220
6155.58+980351937+980058462+979753383+979425999+979084510+978730019+978384830
6148.83+978048543+977682449+977288347+976896446+976503145+976093939+975677132
6142.07+975282030+974923837+974586050+974246363+973876867+973484866+973117672
6135.32+972764581+972379881+971984879+971607482+971229285+970849787+970469989
6128.57+970079788+969700290+969350700+969020015+968687629+968349442+968020157
6121.82+967701275+967392095+967117724+966894267+966709219+966547677+966402840
6115.07+966272706+966145773+966000536+965845196+965697758+965547919+965396580
6108.32+965266647+965153117+965023084+964872845+964748313+964639985+964491347
6101.57+964322403+964167863+963996619+963794667+963600217+963438175+963292838
6094.82+963162404+963045874+962914840+962783206+962679279+962590757+962504834
6088.07+962415411+962318786+962214860+962097229+961974598+961877673+961806054
6081.32+961729234+961649414+961591299+961547788+961501776+961462966+961438860
6074.57+961412653+961382545+961368041+961355738+961326130+961292422+961247510
6067.82+961152186+960991744+960806897+960642754+960482913+960289463+960037298
6061.07+959729819+959423240+959141567+958823685+958436185+958002873+957522349
6054.32+957000815+956472179+955927838+955322882+954659411+953978335+953270753
6047.57+952514658+951740558+950950355+950103436+949196802+948254559+947282208
6040.82+946261445+945168563+943999562+942789050+941575337+940349320+939079893
6034.06+937745649+936341687+934883111+933381623+931845427+930290226+928703817
6027.31+927051991+925338249+923596800+921830344+920010675+918142693+916255006
6020.56+914334511+912358802+910339381+908286151+906199013+904087968+901951417
6013.81+899770455+897549482+895305503+893029616+890722521+888394821+886012307
6007.06+883546371+881057929+878609397+876160566+873658721+871119966+868558605
6000.31+865952033+863273342+860519332+857729412+854902383+851990132+848996460
5993.56+845951075+842856477+839704664+836491185+833225243+829926642+826599134
5986.81+823246419+819896805+816579450+813314107+810109081+806941114+803777098
5980.06+800613832+797465870+794327961+791174398+787984625+784762344+781511055
5973.31+778211204+774858440+771478468+768089144+764681115+761232175+757744876
5966.56+754255726+750775629+747283328+743784325+740274720+736716253+733103321
5959.81+729473785+725826394+722114387+718325559+714488220+710600667+706640346
5953.06+702626611+698568064+694424345+690180851+685860137+681471005+676988899
5946.31+672373008+667627034+662778884+657782945+652570301+647154804+641548858
5939.56+635702051+629583973+623211179+616588271+609681240+602468930+594958743
5932.81+587147628+579032885+570630768+561954081+553011774+543831557+534443235
5926.06+524849661+515060737+505144879+495183560+485219140+475295281+465478449
5919.30+455833612+446416133+437294630+428541823+420186018+412250021+404792148
5912.55+397856184+391447781+385573491+380275575+375582765+371468203+367897007
5905.80+364845720+362283485+360160287+358413211+356983968+355801688+354790127
5899.05+353898147+353060181+352190006+351236686+350166860+348926990+347457361
5892.30+345707285+343634150+341214401+338445612+335316455+331810300+327929850
5885.55+323693682+319131731+314299684+309249857+304003004+298599435+293096566
5878.80+287562289+282083876+276698037+271421226+266324511+261501818+257014535
5872.05+252886921+249144180+245823999+242954834+240541287+238588258+237099999
5865.30+236044202+235371553+235047170+235053121+235349473+235872358+236575064
5858.55+237424308+238383055+239406694+240438985+241429616+242358405+243194021
5851.80+243883524+244404483+244760550+244957851+244993235+244854124+244532116
5845.05+244034888+243380494+242575811+241616664+240500476+239238576+237831088
5838.30+236267259+234566521+232752678+230814803+228736992+226533074+224223203
5831.55+221823884+219341744+216772907+214136277+211466163+208781183+206066896
5824.80+203315561+200557250+197823807+195125511+192455423+189815754+187221660
5818.05+184679305+182168069+179682353+177263455+174933304+172686849+170527355
5811.30+168473375+166543265+164753566+163139074+161703242+160426987+159323690
5804.54+158410542+157679766+157112433+156686460+156377068+156172340+156073077
5797.79+156076165+156162813+156323304+156566554+156896939+157316810+157818077
5791.04+158400352+159091543+159902640+160824790+161879775+163090887+164436371
5784.29+165912277+167551225+169356940+171318146+173456060+175794288+178323540
5777.54+181024950+183881962+186886024+190048990+193371959+196832852+200414950
5770.79+204108103+207898493+211780394+215758620+219825344+223963811+228164245
5764.04+232416616+236716000+241060346+245435074+249821755+254208286+258595093
5757.29+262994077+267406615+271808201+276175652+280508469+284817206+289100685
5750.54+293333877+297491274+301546395+305481860+309308422+313024080+316601528
5743.79+320010607+323247217+326325061+329233811+331947136+334453457+336746774
5737.04+338799928+340585814+342101079+343349251+344317401+344988524+345365246
5730.29+345468148+345333538+344982848+344425854+343698316+342854874+341942914
5723.54+340984491+340003213+339030863+338096672+337208268+336353097+335545389
5716.79+334783542+334038550+333303235+332574898+331833731+331073135+330302161
5710.04+329489652+328594496+327618744+326592605+325531281+324434623+323310108
5703.29+322144157+320921667+319657041+318379587+317088929+315772764+314459476
5696.54+313161916+311859005+310536939+309217974+307930467+306670692+305427221
5689.78+304199655+303009923+301871704+300785224+299739604+298742772+297837214
5683.03+297021153+296283538+295648349+295137192+294764021+294550591+294515282
5676.28+294653718+294968499+295459275+296130098+297001648+298089404+299387839
5669.53+300876547+302567284+304473125+306594072+308925473+311455951+314188106
5662.78+317124363+320253845+323544744+326977879+330549500+334228874+337968514
5656.03+341750389+345587529+349464529+353368635+357316304+361298906+365287959
5649.28+369297719+373357116+377447245+381564807+385734108+389956472+394216495
5642.53+398517379+402884056+407313323+411780950+416280211+420832235+425452026
5635.78+430121180+434830895+439583171+444381258+449238211+454160880+459128911
5629.03+464114597+469126790+474190546+479310066+484454993+489587917+494718290
5622.28+499850914+504938826+509967523+514967262+519932693+524833457+529667454
5615.53+534440735+539128294+543706074+548179978+552551706+556803552+560931267
5608.78+564945402+568840757+572594825+576184751+579623438+582936842+586113711
5602.03+589133040+592001330+594732684+597321152+599753079+602032817+604181221
5595.28+606206644+608110535+609889993+611540369+613091069+614566550+615960609
5588.53+617265996+618475808+619596797+620654970+621671832+622639682+623547166
5581.78+624400586+625207394+625972741+626700429+627399459+628070582+628710497
5575.02+629327506+629924911+630497708+631046700+631586289+632109274+632593049
5568.27+633047266+633513686+634011314+634514844+635024976+635557713+636103004
5561.52+636657547+637236946+637847054+638480717+639142788+639833666+640548300
5554.77+641285240+642047537+642844092+643654051+644458509+645262166+646054370
5548.02+646829770+647609522+648398275+649181777+649945074+650663659+651331882
5541.27+651963394+652569251+653148000+653681237+654155510+654568616+654949414
5534.52+655315459+655640243+655920065+656166328+656367680+656510217+656607442
5527.77+656682411+656746728+656787789+656775485+656715420+656626097+656515268
5521.02+656400639+656285409+656152475+656005287+655847196+655651145+655437790
5514.27+655251592+655103254+654982123+654857891+654733059+654620030+654484094
5507.52+654335156+654250734+654223977+654199521+654194370+654232430+654313000
5500.77+654430981+654560664+654699050+654884798+655119458+655377225+655687405
5494.02+656003386+656227244+656448951+656762882+657128276+657491770+657852863
5487.27+658237162+658656571+659103836+659576108+660070685+660588769+661151164
5480.52+661760271+662406138+663072159+663782543+664569646+665292032+665907091
5473.77+666620074+667458641+668316212+669182935+670076916+670990952+671916290
5467.02+672847581+673827083+674848897+675826399+676807002+677928791+679095142
5460.26+680151314+681232843+682436203+683678374+684878783+686073141+687327265
5453.51+688632251+689964595+691344551+692801527+694250150+695625305+697098485
5446.76+698760113+700369629+701819202+703370553+705122404+706916817+708580496
5440.01+710176808+711890550+713698016+715551594+717546108+719518567+721268218
5433.26+723024921+724930863+726920676+728993011+731067496+732976988+734794857
5426.51+736695547+738702815+740745942+742773665+744786284+746829261+748903596
5419.76+751001937+753118533+755240980+757356876+759533487+761906749+764152028
5413.01+766123987+768279443+770552029+772629215+774655337+776760730+778914886
5406.26+781091497+783300267+785520589+787692900+789843254+792013664+794206930
5399.51+796438205+798728196+801068749+803287021+805424573+807782131+810079623
5392.76+812062585+814112163+816301678+818479040+820615641+822774547+825025428
5386.01+827120818+828948940+830796866+832702358+834549184+836363552+838149913
5379.26+839946526+841847516+843629776+845121961+846627949+848183350+849641126
5372.51+851099903+852574383+854003051+855393710+856732855+858027289+859305519
5365.76+860581048+861808464+862948758+864057644+865163930+866248209+867314684
5359.01+868356553+869342607+870304556+871291710+872231953+873005352+873652619
5352.26+874321692+875070185+875864189+876573272+877101509+877620142+878309720
5345.50+878963289+879279170+879519932+879899030+880359749+880962104+881596268
5338.75+881871439+881958761+882187620+882452389+882735862+883117860+883467950
5332.00+883692008+883936271+884325372+884843705+885267415+885410451+885558690
5325.25+885907080+886307483+886680579+887066379+887468582+887883489+888326804
5318.50+888804127+889289652+889758673+890214891+890690813+891202145+891736083
5311.75+892267220+892788754+893372105+894008469+894481091+894763364+895111253
5305.00+895554568+895965274+896324866+896689060+897078661+897410546+897663312
5298.25+897915377+898183146+898453815+898721584+898982752+899260924+899620516
5291.50+900007616+900216770+900333900+900590166+900964763+901387972+901780573
5284.75+902045942+902291605+902646097+903069106+903444703+903724175+904008848
5278.00+904350636+904705928+905058919+905398807+905728091+906054076+906389462
5271.25+906773261+907181266+907510351+907800526+908158418+908587329+909074555
5264.50+909457253+909694915+910008795+910358786+910673367+911040962+911453468
5257.75+911895582+912428720+912955856+913271537+913525202+913915203+914368120
5251.00+914840342+915378380+915869607+916155381+916446756+916933681+917425908
5244.25+917707681+917944342+918309236+918716441+919099240+919456632+919776115
5237.50+920089595+920428383+920776673+921083252+921363624+921679906+921966279
5230.74+922161730+922372884+922668060+923026953+923382545+923584697+923690124
5223.99+923912281+924218460+924510636+924810513+925123394+925407467+925687039
5217.24+926007922+926349810+926691998+927048090+927421986+927792482+928177581
5210.49+928623996+929066311+929462813+929899425+930285625+930576900+930963700
5203.74+931435221+931877035+932306846+932765365+933251890+933746718+934213838
5196.99+934637547+935071959+935542681+936003600+936445514+936893229+937352548
5190.24+937809966+938243377+938665086+939111201+939564118+939952718+940302408
5183.49+940701411+941123020+941507019+941871613+942241709+942597000+942936988
5176.74+943278676+943620464+943966653+944323545+944685239+945034729+945365214
5169.99+945707502+946082399+946462197+946830992+947206889+947583986+947933476
5163.24+948279666+948673467+949094276+949497480+949895683+950298886+950687487
5156.49+951075187+951495095+951944211+952398928+952837441+953250648+953649651
5149.74+954045953+954441055+954833756+955224557+955607055+955968049+956309837
5142.99+956640522+956963505+957296291+957639880+957979367+958318655+958657242
5136.24+958977625+959273101+959552373+959825143+960101615+960384088+960663760
5129.49+960926127+961159688+961360739+961539586+961710230+961873372+962025811
5122.74+962158645+962265473+962362998+962464424+962564450+962653973+962729792
5115.98+962803812+962887933+962973855+963058977+963157303+963263030+963352953
5109.23+963434274+963525498+963623323+963730451+963858183+963999720+964144857
5102.48+964293996+964461539+964662491+964888049+965121509+965352069+965574026
5095.73+965801585+966052850+966324420+966601891+966883764+967181641+967485419
5088.98+967769092+968050865+968348542+968632715+968903185+969192759+969502839
5082.23+969817420+970129201+970432379+970727155+971027533+971339213+971647192
5075.48+971947970+972257250+972576932+972902016+973242304+973598496+973960189
5068.73+974320482+974670972+975014861+975361050+975712941+976069933+976416822
5061.98+976751609+977084295+977401476+977691451+977964522+978225989+978468352
5055.23+978688308+978890460+979082210+979259856+979410995+979535627+979644455
5048.48+979750782+979856410+979953835+980049359+980158387+980283220+980411853
5041.73+980540286+980673620+980806054+980925785+981041615+981168148+981298081
5034.98+981424614+981546745+981656974+981762201+981882132+982011665+982125995
5028.23+982219719+982311743+982417870+982534000+982652931+982779663+982906596
5021.48+983023026+983138356+983254386+983358813+983452137+983539059+983613979
5014.73+983676995+983721406+983736710+983734410+983719206+983676095+983605676
5007.97+983522255+983423329+983309500+983197371+983088743+982974414+982851282
5001.22+982710446+982552605+982406167+982294238+982200314+982090286+981966654
4994.47+981853825+981750098+981652173+981571752+981513937+981476727+981459923
4987.72+981460723+981469025+981475327+981494632+981547546+981623165+981701785
4980.97+981786607+981888434+982009265+982156003+982340950+982565808+982835178
4974.22+983155360+983521455+983935862+984421687+984981131+985589888+986255360
4967.47+986996551+987809461+988687687+989603823+990531463+991478607+992447457
4960.72+993423909+994399660+995363809+996304051+997228190+998137924+999019552
4953.97+999874272+1000721591+1001570910+1002409026+1003226837+1004034245
4948.18+1004846755+1005673568+1006505482+1007325794+1008139604+1008963316
4942.40+1009794731+1010621444+1011434154+1012235360+1013041768+1013855678
4936.61+1014666887+1015466894+1016252596+1017037299+1017824502+1018605403
4930.83+1019384604+1020158304+1020910598+1021646387+1022375675+1023096961
4925.04+1023806344+1024502024+1025185300+1025858274+1026521145+1027162910
4919.25+1027779469+1028391927+1029004685+1029592937+1030144179+1030664513
4913.47+1031156740+1031629762+1032091581+1032537796+1032968807+1033388316
4907.68+1033793420+1034184321+1034570220+1034950819+1035318513+1035675305
4901.89+1036025996+1036371385+1036714073+1037047659+1037365441+1037683523
4896.11+1038027712+1038387905+1038728593+1039042074+1039354954+1039679138
4890.32+1040002822+1040325205+1040656990+1040991477+1041318361+1041646445
4884.54+1041984633+1042334223+1042694116+1043061210+1043431706+1043797700
4878.75+1044161494+1044536791+1044930893+1045333796+1045725597+1046104995
4872.96+1046496796+1046915904+1047350417+1047786029+1048219441+1048661155
4867.18+1049134977+1049644108+1050164942+1050696780+1051254123+1051832673
4861.39+1052432427+1053064290+1053732462+1054434744+1055138025+1055812899
4855.60+1056472269+1057128038+1057781307+1058442277+1059120652+1059815331
4849.82+1060513311+1061202589+1061877863+1062539034+1063192602+1063836668
4844.03+1064458929+1065048281+1065601424+1066130460+1066647193+1067150623
4838.25+1067633048+1068080963+1068488568+1068867466+1069221857+1069561345
4832.46+1069903133+1070228017+1070525594+1070813368+1071085538+1071330901
4826.67+1071564762+1071791120+1071993872+1072170218+1072328959+1072478897
4820.89+1072624035+1072751568+1072852694+1072942517+1073033440+1073127365
4815.10+1073222689+1073308711+1073376329+1073434144+1073485257+1073531469
4809.31+1073575980+1073613490+1073648899+1073692910+1073731420+1073741823
4803.53+1073730420+1073715116+1073695811+1073670004+1073644498+1073617591
4797.74+1073582782+1073547673+1073521266+1073491658+1073447447+1073396334
4791.96+1073344821+1073291907+1073243795+1073201884+1073155272+1073106559
4786.17+1073072350+1073058447+1073053245+1073048444+1073043543+1073034040
4780.38+1073025338+1073031040+1073039842+1073027939+1072998731+1072960922
4774.60+1072907808+1072851193+1072806282+1072768472+1072732063+1072699654
4768.81+1072668946+1072640939+1072617133+1072604130+1072614032+1072648841
4763.02+1072697854+1072742365+1072774874+1072810283+1072855594+1072897205
4757.24+1072929614+1072963622+1073004233+1073046044+1073087654+1073136567
4751.45+1073182579+1073194382+1073172776+1073146870+1073128765+1073106759
4745.67+1073067049+1073007134+1072928213+1072830688+1072717459+1072588025
4739.88+1072442488+1072281646+1072115103+1071948961+1071773415+1071585467
4734.09+1071379914+1071142153+1070887187+1070638723+1070379756+1070081979
4728.31+1069745292+1069379298+1068985896+1068571490+1068137178+1067663155
4722.52+1067126017+1066527262+1065885597+1065205822+1064487236+1063733742
4716.74+1062929034+1062059610+1061130771+1060143116+1059103548+1058013967
4710.95+1056864570+1055651057+1054370127+1053018278+1051585909+1050069118
4705.16+1048475607+1046809877+1045076630+1043272365+1041381477+1039401767
4699.38+1037338034+1035185579+1032951403+1030647609+1028264494+1025786055
4693.59+1023204189+1020522798+1017765486+1014943859+1012019805+1008956114
4687.80+1005753889+1002403925+998880316+995172760+991276255+987175297+982870387
4681.05+978372127+973666513+968754646+963678737+958495000+953261651+948046105
4674.30+942924084+937966106+933252490+928854356+924774604+920979425+917449214
4667.55+914171769+911141288+908352868+905770402+903341576+901034781+898827012
4660.80+896683759+894565012+892433363+890268704+888070938+885837762+883559974
4654.05+881234875+878877467+876515557+874162050+871833850+869558663+867348893
4647.30+865202040+863118602+861092080+859105367+857153364+855237270+853353384
4640.55+851500406+849667233+847833160+845983683+844109500+842197607+840245703
4633.80+838254490+836199210+834062058+831855239+829606059+827341225+825073090
4627.05+822815808+820615140+818520350+816524285+814583485+812657888+810708736
4620.30+808712921+806672845+804605862+802536678+800488800+798479432+796529429
4613.55+794661047+792889690+791230012+789694266+788296255+787052334+785967355
4606.80+785041866+784291372+783721926+783304768+783001290+782796987+782707464
4600.05+782748024+782928121+783270709+783793194+784505978+785416012+786504043
4593.30+787741062+789111165+790592247+792146398+793730957+795312365+796889522
4586.55+798479232+800073193+801636646+803144635+804587957+805932054+807127562
4579.79+808162429+809063211+809881372+810681529+811528747+812492045+813634640
4573.04+814983438+816514983+818174561+819890554+821579689+823158396+824566359
4566.29+825777572+826787032+827607994+828266664+828787848+829196604+829513585
4559.54+829746295+829893483+829964952+829976605+829916939+829765600+829533090
4552.79+829230562+828848864+828388645+827862960+827278409+826641295+825957968
4546.04+825231031+824458282+823634819+822761944+821846458+820889961+819890804
4539.29+818847385+817753502+816612258+815433354+814214790+812958366+811673584
4532.54+810359045+809002195+807599634+806160913+804693784+803193247+801651000
4525.79+800063840+798433770+796774142+795090408+793381267+791663074+789937379
4519.04+788184726+786406918+784621708+782827445+781008076+779152197+777261909
4512.29+775341564+773375307+771355136+769291304+767185211+765039157+762859395
4505.54+760647024+758396294+756102802+753765750+751387586+748969563+746485122
4498.79+743905857+741248271+738533471+735746402+732872911+729903345+726834304
4492.04+723695444+720502921+717239329+713892216+710462932+706953177+703355549
4485.29+699665197+695880971+691999820+688016243+683933090+679761714+675499414
4478.54+671125336+666620725+661992031+657252408+652397056+647412621+642282598
4471.79+637004736+631597142+626065065+620392952+614571501+608600361+602475081
4465.03+596182808+589710489+583060574+576238365+569236859+562045504+554657199
4458.28+547055488+539214216+531132782+522825239+514289388+505514775+496485696
4451.53+487186598+477607777+467752135+457634376+447255149+436598451+425663731
4444.78+414455590+402962951+391187664+379146584+366850863+354313904+341550087
4438.03+328574666+315416897+302120768+288734591+275321207+261949333+248671634
4431.28+235548074+222653898+210054424+197790561+185890505+174390739+163316157
4424.53+152667949+142441486+132630969+123228444+114230173+105633243+97430221
4417.78+89619957+82211715+75215617+68636595+62480783+56754356+51448847+46555779
4410.07+42072560+37981296+34261830+30904971+27892969+25199290+22803119+20681426
4402.35+18808012+17161379+15725960+14498433+13467000+12593190+11846455+11225644
4394.64+10729627+10333245+10005563+9732951+9509440+9329852+9184677+9051808
4386.92+8921273+8795279+8667449+8539899+8415600+8283646+8148863+8033031+7938763
4378.24+7850779+7765987+7691042+7624269+7563737+7514963+7478737+7446011+7408025
4369.56+7357613+7282514+7178043+7051843+6896219+6693423+6443993+6156979+5840352
4360.88+5503807+5149766+4780936+4404915+4022207+3638109+3265960+2909444+2563748
4352.20+2234272+1942976+1695879+1468185+1248626+1053988+889119+742967+611670
4343.52+498859+407036+331352+265412+212315+176677+153619+133127+106697+77890
4333.88+66009+64404+67739+73055+77077+80416+88355+92679+91853+100094+122125
4323.27+156181+194005+226915+262142+309687+367609+435008+508264+581162+659345
4313.63+745046+831748+928573+1045129+1170039+1290370+1399390+1498182+1599180
4304.95+1712524+1832833+1950952+2079619+2227854+2373570+2505693+2641256+2785565
4296.27+2924434+3052465+3174840+3290587+3389544+3461851+3506992+3525882+3514908
4287.59+3475940+3414535+3331315+3229202+3110708+2970779+2814397+2650274+2470304
4278.91+2276652+2091868+1921363+1750338+1576652+1415168+1273518+1143209+1012426
4270.23+886633+789283+719045+647631+571242+502340+443471+396585+366212+351382
4260.59+342968+328550+309904+305473+321481+351656+386744+418426+452601+505286
4250.94+583442+679755+781233+887073+1005940+1137422+1285789+1458728+1641113
4242.26+1815422+1984944+2155846+2320794+2472779+2619977+2770797+2916441+3040932
4233.59+3145516+3245872+3349022+3446967+3529979+3596950+3656260+3723904+3802329
4224.91+3875349+3937101+3996070+4053384+4105867+4162941+4227561+4284649+4320656
4216.23+4337437+4350323+4366468+4382691+4396167+4398972+4391307+4386304+4384624
4207.55+4382047+4386422+4397181+4408281+4419983+4429481+4432269+4429780+4433003
4198.87+4443573+4451681+4459314+4471253+4480311+4478986+4472053+4471710+4482188
4190.19+4493699+4498905+4499353+4494270+4480305+4455271+4420889+4381989+4342956
4181.51+4299146+4238006+4158801+4071647+3984269+3895562+3808322+3731229+3656342
4172.83+3581788+3523688+3484366+3452451+3422372+3404155+3409439+3428834+3447570
4164.15+3469963+3508136+3564334+3634653+3717509+3814068+3921216+4028964+4127184
4155.47+4215275+4306986+4413828+4528377+4639530+4749152+4857135+4954130+5041571
4146.79+5127053+5208725+5277004+5324952+5367421+5417693+5461374+5489616+5514219
4138.11+5541926+5564853+5576379+5580170+5584464+5591883+5601775+5618212+5638112
4129.43+5656111+5673001+5690039+5709568+5726568+5737758+5751075+5772410+5803165
4120.75+5838977+5869470+5894440+5922156+5951458+5984803+6029360+6081496+6133954
4112.07+6183934+6232014+6278265+6326197+6382210+6444582+6504732+6560150+6614041
4103.40+6669502+6728189+6782142+6823558+6850263+6869333+6894625+6920085+6938068
4094.72+6954662+6963039+6952195+6940166+6945242+6947138+6927036+6889959+6842141
4086.04+6779888+6695850+6591924+6481698+6371813+6241457+6079963+5906294+5731452
4077.36+5548430+5352952+5155324+4965892+4790862+4633658+4497439+4385559+4301539
4068.68+4252346+4233546+4242427+4286055+4365272+4468828+4583070+4707518+4845902
4060.00+5008310+5202461+5431069+5700357+6014386+6377174+6781243+7227004+7731732
4051.32+8300668+8917044+9556088+10207758+10868873+11543223+12235742+12931976
4043.60+13613899+14276373+14923677+15565074+16209881+16857288+17508203+18165816
4035.89+18826520+19497547+20188430+20896210+21612263+22327622+23031074+23722057
4028.17+24408254+25085060+25752371+26406010+27031246+27629685+28202908+28745157
4020.46+29263113+29762345+30237889+30697139+31153110+31611193+32076320+32553893
4012.74+33050314+33567317+34108106+34685508+35305521+35955242+36631898+37349229
4005.03+38101645+38877417+39668706+40461104+41254061+42049157+42839802+43629890
3997.31+44420341+45213198+46021463+46843725+47678112+48544392+49464701+50437258
3989.60+51447681+52506942+53627806+54796532+55994047+57215900+58475550+59780761
3981.88+61107147+62424162+63719215+64969012+66151261+67272562+68335362+69317271
3974.17+70199180+70987646+71689895+72302866+72839767+73322616+73758910+74149130
3966.46+74499470+74823410+75135372+75440194+75750099+76066199+76370252+76673143
3958.74+76997308+77346986+77706241+78059482+78404665+78754042+79114079+79459799
3951.03+79787846+80101108+80393728+80681821+80962706+81228874+81478707+81702859
3943.31+81895415+82062177+82215154+82360160+82500321+82634043+82765621+82899786
3935.60+83039560+83180728+83320658+83467489+83624861+83800444+83976027+84136030
3927.88+84294734+84458401+84630458+84807804+84987712+85161282+85321073+85477545
3920.17+85628240+85763438+85887438+85993134+86077075+86170918+86274594+86363974
3912.45+86436967+86499671+86568214+86651035+86748842+86856207+86967179+87098401
3904.74+87255053+87421728+87618285+87847906+88068445+88326886+88624500+88899859
3897.02+89173692+89429295+89663650+89884413+90085240+90272132+90421751+90556761
3889.31+90710445+90875769+91040880+91206573+91357386+91537883+91783796+92055273
3881.59+92396117+92838312+93232383+93613906+94073731+94567496+95085423+95735716
3873.88+96381095+96890388+97402371+98067017+98865417+99450130+99904322
3867.12+100370949+100919621+101557455+102064835+102491433+102975158+103437633
3860.37+103837893+104237565+104643288+105029488+105338080+105618377+105994624
3853.62+106284674+106438826+106574536+106715960+106877214+107035555+107195359
3846.87+107373567+107578670+107792500+107976573+108143778+108345130+108571964
3840.12+108779117+109051562+109384548+109610332+109822111+110080690+110304686
3833.37+110525868+110786735+110989137+111137600+111285476+111415885+111527739
3826.62+111631540+111770114+111974729+112256039+112666307+113364212+114174159
3819.87+114860573+115598964+116464312+117771574+119440404+120635900+121700812
3813.12+122917626+124173913+125396565+126560578+127609986+128704969+130059268
3806.37+131159027+131955694+132796074+133713385+134798640+136024419+136874426
3799.62+137527156
##END=
