##TITLE=Ρμερό_1_2,1μμ
##JCAMP-DX=4.24
##DATA TYPE=INFRARED SPECTRUM
##DATE=7/4/2017
##SAMPLING PROCEDURE=Instrument type and / or accessory
##ORIGIN=Default
##XUNITS=1/CM
##YUNITS=TRANSMITTANCE
##RESOLUTION=2
##FIRSTX=7998.4873
##LASTX=3799.619
##DELTAX=-0.96437031
##MAXY=0.76574421
##MINY=6.9032547e-005
##XFACTOR=1
##YFACTOR=7.1315487e-010
##NPOINTS=4355
##FIRSTY=0.35586631
##XYDATA=(X++(Y..Y))
7998.49+499002851+499477788+500051138+500600795+500989938+501330020+501793005
7991.74+502374003+502890604+503224919+503557772+504052099+504590848+505064614
7984.99+505518405+506049591+506699040+507285136+507627350+507901405+508264555
7978.24+508611616+508975017+509427094+509864086+510269862+510687296+511129219
7971.48+511647617+512159119+512520806+512830633+513248151+513750752+514269568
7964.73+514719473+515043550+515369423+515802821+516248882+516663516+517130178
7957.98+517640135+518097311+518503337+519014588+519685601+520265137+520605720
7951.23+520883787+521223410+521621621+522061037+522523186+523028838+523494497
7944.48+523817780+524097435+524397399+524701166+525169291+525827057+526351138
7937.73+526649012+526943586+527268624+527571806+527917697+528341525+528794606
7930.98+529237073+529705448+530151383+530478552+530866901+531621326+532559958
7924.23+533060929+533053950+533125076+533530851+533989991+534286696+534610857
7917.48+535100837+535611629+536150211+536619799+536833343+537072086+537510791
7910.73+537914477+538291125+538846172+539514593+540009171+540255770+540526398
7903.98+541010027+541774690+542940364+544015313+544177874+543827302+543998806
7897.23+544762800+545533940+545787476+545486551+545236901+545465865+546044607
7890.48+546735051+547311871+547968591+549312288+550743617+550811316+549878242
7883.73+549429549+549676608+550072396+550455897+550881021+551349271+551806698
7876.98+552148619+552376580+552659620+553054739+553489307+553911255+554395092
7870.23+555110151+555819401+556263748+557113034+558704793+559708449+559284704
7863.48+558710852+558965558+559455121+559827549+560168174+560229270+560109293
7856.72+560167923+560413227+560750259+561266149+562348620+563969088+565086036
7849.97+565169782+564971700+564877465+564633582+564433912+564589954+565034133
7843.22+565893741+567469620+568939396+568979263+568100640+567683582+568278287
7836.47+569888141+571502800+572009246+571639117+570964343+570412890+570344690
7829.72+570623969+570980181+571356203+571744510+572086723+572339884+572580423
7822.97+572936762+573419931+573927798+574398346+574821840+575175504+575509652
7816.22+575922782+576618325+577939163+579516254+580350579+580783100+582102517
7809.47+583598076+583390968+582130683+582233360+584079031+585355864+584454341
7802.72+582856816+582778294+584554469+586499181+586735625+585709737+584842022
7795.97+584352417+584159434+584256051+584485767+584861579+585476093+586329558
7789.22+587087074+587411611+587699248+588521538+590092945+592118979+593133919
7782.47+592157509+590512051+589694608+589647930+589864190+590194786+590642935
7775.72+591328909+592688820+595083478+597392134+597575381+595901255+594616816
7768.97+594742393+595566062+595939869+595687502+595782991+596945364+598964962
7762.22+600927142+601499114+600225248+598477071+597660464+597681693+597933224
7755.47+598208867+598592201+599113858+599745338+600888278+602973194+605096974
7748.72+605522306+604187720+602819492+602622581+603497818+604775237+606241460
7741.96+608123613+609772289+610167534+609219750+607561462+606238326+605832384
7735.21+606051360+606748616+608172674+610325581+612260013+612688480+611713825
7728.46+610634781+610226290+610598717+611873461+613165799+612997471+611823523
7721.71+611137132+611188073+611521511+611923358+612517478+613774169+615493636
7714.96+616264985+615697025+615322634+616366867+618727718+621349544+622816896
7708.21+622556757+621643533+621762591+622646646+622370961+620759394+619505712
7701.46+619494554+620091432+620293693+619948387+619622137+619650554+619957414
7694.71+620385672+620815517+621189031+621663466+622534817+624089593+625945293
7687.96+626578486+625567475+624564237+624865580+626454748+628258212+629171394
7681.21+629320958+629079206+628972727+630106223+632187503+633179960+632162429
7674.46+630505563+629800868+630582497+632283410+633174318+632357669+631129479
7667.71+630720695+631230651+632796584+634830432+635497600+634379984+633134158
7660.96+632759767+632974774+633465841+634154656+634910710+635861127+637196382
7654.21+638032128+637678924+637043391+636912590+637249496+637806507+638318929
7647.46+638845308+639844828+641690164+643728276+644925710+645193538+644718142
7640.71+643642273+642630510+642287837+642413957+642625871+643261028+644905943
7633.96+647193830+648580820+648024436+646383909+645142262+644724744+644770796
7627.20+645030434+645388862+645730281+646057033+646378435+646699712+647081333
7620.45+647499394+647896728+648392099+649353340+651208873+653511219+654612328
7613.70+653769770+652303087+651532281+651507751+651848711+652554325+653839224
7606.95+655276905+656358540+657555515+658844216+659125543+658227781+657071301
7600.20+656388671+656321264+656652612+657258559+658001157+658942714+660148673
7593.45+660706311+660036928+659114845+658803012+658968289+659274438+659611679
7586.70+659969271+660315789+660656540+661026836+661422247+661812894+662205715
7579.95+662597156+662931931+663225168+663556098+663965007+664425527+664900923
7573.20+665417106+666106548+666998877+667632613+667613139+667350535+667368880
7566.45+667667507+668058615+668418463+668777476+669401267+670627284+672176961
7559.70+672916968+672465266+671848037+671709338+671810426+671986401+672229741
7552.95+672493767+672780651+673143341+673570304+674003493+674404420+674768699
7546.20+675180450+675696089+676252891+676940954+678096515+679506448+680153055
7539.45+679708123+679046597+678823024+678984874+679348191+679935792+680980444
7532.70+682118996+682442488+682047578+681785266+681861574+682072359+682411146
7525.95+682867695+683263608+683565662+684053846+685047557+686322259+687077394
7519.20+686993104+686582983+686367057+686595771+687415595+688402954+688738732
7512.44+688484777+688360955+688639691+689237948+689957478+690745167+691809000
7505.69+692847676+693189931+692934221+692745584+693066025+693933197+694782567
7498.94+694959378+694644955+694493426+694657951+694874546+695109820+695545558
7492.19+696338303+697400256+698273989+698592591+698338177+697803482+697481787
7485.44+697638205+698190201+698815956+699143125+699179774+699260470+699644097
7478.69+700308089+700868276+701106935+701491523+702209632+702684778+702891802
7471.94+703334269+703866332+704040761+703861902+703694493+703932944+704641442
7465.19+705311159+705429256+705225574+705208357+705424324+705637952+705803354
7458.44+706074735+706479340+706933424+707448603+707945647+708200646+708280798
7451.69+708493422+708806007+708960294+709002501+709238611+709800846+710414147
7444.94+710682602+710580971+710466468+710602618+710926485+711336189+711767790
7438.19+712000724+711967961+711968463+712155094+712364543+712522089+712759118
7431.44+713155533+713523697+713695118+713852747+714251836+714886367+715483119
7424.69+715732519+715662480+715566949+715633728+715924499+716279542+716376326
7417.94+716240093+716113889+716090654+716184513+716304281+716370476+716476370
7411.19+716629570+716718999+716785194+716924938+717082233+717224986+717456750
7404.44+717678234+717582118+717228329+716986953+716950513+716928364+716822136
7397.68+716695012+716546827+716381425+716282216+716180668+715963698+715711122
7390.93+715518473+715328248+715063052+714695138+714305828+714045981+713920195
7384.18+713826086+713605939+713121850+712428397+711772972+711353072+711084449
7377.43+710710351+709964911+708965559+708122667+707448771+706775710+706150290
7370.68+705656674+705098367+704302613+703504352+702835638+702144859+701415299
7363.93+700792511+700226725+699549276+698856324+698264753+697586302+696811652
7357.18+696204661+695667165+694988004+694370189+693929353+693495328+693035686
7350.43+692638018+692144360+691451867+690785911+690369731+690229861+690164001
7343.68+690025762+689954929+689953675+689736412+689343424+689130131+689064104
7336.93+689009067+689028625+689144716+689294907+689465366+689663406+689816690
7330.18+689942810+690177165+690364298+690369020+690472616+690748510+690914581
7323.43+690833050+690697819+690646000+690640359+690653397+690675169+690645583
7316.68+690508221+690349087+690344364+690410642+690243318+689764077+689177688
7309.93+688739651+688552518+688374829+687892204+687336237+687015002+686822269
7303.18+686561671+686242901+685954763+685577655+684971709+684300278+683773397
7296.43+683484716+683218267+682575211+681688022+680935771+680361334+679834035
7289.68+679296999+678754949+678201657+677671934+677144510+676512780+675815356
7282.92+675214717+674696445+674135296+673522664+672914001+672337934+671725510
7276.17+671030719+670417334+669919079+669305736+668549640+667817866+667178571
7269.42+666606391+665996265+665270425+664487918+663739344+663054625+662383153
7262.67+661688905+661032644+660413534+659766258+659111000+658452524+657743901
7255.92+657068041+656528247+655972448+655227594+654463934+653868518+653382633
7249.17+652928549+652495987+652055025+651612308+651310171+651189483+650863692
7242.42+650187665+649571146+649104609+648667366+648272874+647917831+647543774
7235.67+647162028+646871717+646612665+646103670+645387065+644806401+644413455
7228.92+644099115+643888622+643675412+643273941+642828174+642469788+642156492
7222.17+641929367+641791002+641581010+641241221+640883629+640573384+640282321
7215.42+639987580+639684022+639275238+638735486+638211196+637757906+637308921
7208.67+636868920+636546974+636308816+635921512+635360615+634795789+634244587
7201.92+633694722+633200645+632785760+632446806+632134556+631772325+631354097
7195.17+630909039+630483581+630137565+629875880+629657781+629440351+629231278
7188.42+629080084+628996756+628944895+628941343+629070807+629359781+629719629
7181.67+630001833+630204804+630512959+631039130+631712232+632387173+633040508
7174.92+633746332+634523489+635370686+636314960+637367760+638528294+639688911
7168.16+640758846+641919923+643208499+644433932+645645156+647022159+648559800
7161.41+649976044+651182211+652456830+653890416+655332652+656684498+658014446
7154.66+659399514+660814336+662168272+663412635+664635268+665905248+667189520
7147.91+668447799+669700562+670889638+671919622+672920687+673952342+674935062
7141.16+675928020+676905015+677684513+678384486+679198460+679982513+680600244
7134.41+681157798+681733197+682288703+682795024+683296079+683812303+684301699
7127.66+684710358+685055580+685399173+685740383+686060156+686341440+686560542
7120.91+686728536+686953781+687237322+687302471+687162602+687134520+687224200
7114.16+687285003+687281577+687209072+687097035+686987212+686832758+686631710
7107.41+686449508+686238931+685904657+685480119+685062601+684664640+684225851
7100.66+683723710+683200256+682704257+682241021+681745399+681138408+680440943
7093.91+679762199+679159219+678597528+678036672+677460689+676906854+676447588
7087.16+676073071+675720828+675374018+675079654+674877267+674745046+674657413
7080.41+674622059+674675884+674822523+675033100+675334444+675768427+676323641
7073.66+677000253+677787482+678566520+679333983+680240855+681279990+682390962
7066.91+683602437+684868489+686131449+687440293+688840990+690319458+691829393
7060.16+693336779+694852105+696396432+697985057+699585842+701127704+702606464
7053.40+704089236+705597834+707114873+708657404+710204030+711677023+713047549
7046.65+714361157+715665990+716968399+718253925+719490390+720675872+721854500
7039.90+722984820+723975898+724873367+725802513+726812647+727816679+728677708
7033.15+729408689+730140672+730916116+731687716+732416774+733113236+733797245
7026.40+734428851+735007383+735620100+736241592+736766300+737232084+737722191
7019.65+738229765+738713603+739182981+739650187+740077693+740443016+740742646
7012.90+741016533+741327530+741662180+741992818+742322703+742636876+742897141
7006.15+743077169+743215827+743376799+743570452+743770623+743946389+744094156
6999.40+744245768+744384844+744472183+744557601+744681465+744801818+744894089
6992.65+744976498+745069271+745173744+745263173+745324102+745379515+745465685
6985.90+745599662+745747011+745858923+745957546+746096204+746256508+746409791
6979.15+746577868+746791245+747073742+747407806+747757249+748124077+748530520
6972.40+748983518+749467272+750007776+750620075+751239644+751826953+752416852
6965.65+753062164+753766650+754456343+755112436+755831381+756633237+757411439
6958.90+758117764+758819909+759592930+760418438+761210765+761939322+762691531
6952.15+763545289+764426962+765257903+766073799+766898889+767687706+768431641
6945.39+769202489+770040283+770870638+771581476+772217344+772922498+773705465
6938.64+774477733+775166256+775779891+776423365+777139802+777849387+778496705
6931.89+779108836+779684443+780230464+780806322+781406501+781993475+782593738
6925.14+783222084+783825941+784378230+784911881+785478211+786097530+786717016
6918.39+787296468+787849843+788398956+788976904+789606503+790287838+790995918
6911.64+791669646+792290637+792915305+793568808+794232675+794928385+795668392
6904.89+796421938+797187604+797988205+798809618+799610554+800394691+801211256
6898.14+802049886+802845974+803598100+804384409+805250453+806124855+806916848
6891.39+807665797+808465480+809317649+810171240+811011876+811827020+812582155
6884.64+813315559+814107719+814930302+815694797+816394268+817068582+817737213
6877.89+818432087+819164656+819864712+820513367+821185341+821871774+822499952
6871.14+823076228+823653089+824250176+824832470+825364031+825876704+826399740
6864.39+826908651+827400513+827897556+828381310+828815335+829204896+829581084
6857.64+829957858+830320172+830659335+830996659+831336741+831656430+831962746
6850.89+832288286+832628870+832911032+833073007+833196704+833395037+833641594
6844.14+833876367+834110973+834355859+834580937+834770159+834960134+835186967
6837.39+835433190+835675568+835913434+836142105+836415575+836806724+837248438
6830.63+837637832+837997221+838391964+838826239+839271631+839729309+840222507
6823.88+840755322+841303098+841850957+842409264+842973671+843543010+844145279
6817.13+844751142+845305437+845858144+846475123+847113832+847713008+848289702
6810.38+848877178+849471340+850084140+850705715+851298874+851877407+852449755
6803.63+853027201+853661731+854315067+854904632+855473971+856101481+856756070
6796.88+857384248+858019113+858697021+859362308+859925379+860385063+860877175
6790.13+861505269+862209254+862891424+863506899+864072059+864630616+865194773
6783.38+865792947+866422630+867019299+867579946+868161821+868784651+869405391
6776.63+869981332+870523425+871048300+871553701+872062529+872599439+873139024
6769.88+873656627+874173646+874702951+875224483+875747853+876287689+876802116
6763.13+877274170+877749315+878255887+878782350+879298950+879795492+880295126
6756.38+880808384+881306597+881779152+882256220+882747496+883236934+883704390
6749.63+884144015+884584391+885057782+885570705+886076858+886540303+886993050
6742.88+887439778+887872717+888319863+888784645+889247839+889708860+890166872
6736.13+890617612+891075374+891542328+892012459+892463200+892839305+893179220
6729.38+893588338+894046517+894490404+894924931+895354108+895774844+896199006
6722.63+896618405+897019834+897414242+897834226+898276274+898718741+899151428
6715.87+899555365+899945427+900349781+900771520+901210727+901640573+902042587
6709.12+902443431+902871689+903318334+903740491+904152952+904614474+905099900
6702.37+905568777+906048938+906538626+907002071+907436012+907862682+908313589
6695.62+908772772+909197853+909617921+910088051+910592115+911052969+911450888
6688.87+911874800+912372595+912905326+913446249+913972795+914459558+914912890
6682.12+915371570+915866942+916366911+916837459+917312772+917835976+918406986
6675.37+918981507+919519587+920023986+920511668+921006789+921532333+922084621
6668.62+922655381+923237173+923804841+924361643+924923460+925469564+926002713
6661.87+926564948+927156268+927726693+928271293+928836286+929404873+929938356
6655.12+930484293+931067590+931618876+932128707+932673808+933253510+933809727
6648.37+934354828+934903189+935423217+935933883+936496954+937102566+937682603
6641.62+938219680+938732604+939225802+939733376+940263099+940775270+941273483
6634.87+941787326+942322398+942855547+943343647+943781851+944220724+944689350
6628.12+945197175+945750300+946306851+946807321+947259733+947715739+948185369
6621.37+948635190+949070635+949539011+950045833+950563855+951067668+951521584
6614.62+951953269+952427412+952915345+953390825+953879677+954368363+954845765
6607.87+955327346+955813441+956304215+956772508+957178784+957566256+958003122
6601.11+958476680+958952828+959407748+959838346+960280144+960732723+961189063
6594.36+961671146+962141528+962584746+963042006+963494084+963919751+964348761
6587.61+964793567+965232273+965655181+966102412+966588673+967074350+967539466
6580.86+967996057+968455657+968892691+969276903+969653676+970086698+970565855
6574.11+971042171+971490404+971905707+972282982+972638108+973026249+973459270
6567.36+973893546+974339021+974790263+975182331+975532777+975920834+976364220
6560.61+976819390+977261104+977706245+978149630+978554403+978927833+979325417
6553.86+979742058+980148167+980587625+981066364+981518108+981909842+982272239
6547.11+982663054+983085378+983505612+983933034+984367143+984780607+985173344
6540.36+985568839+985975951+986382144+986777222+987146222+987491570+987869263
6533.61+988298440+988730626+989141249+989545854+989947366+990335423+990695313
6526.86+991052529+991465492+991916316+992332288+992671535+992965314+993311665
6520.11+993744937+994185147+994564177+994912450+995278943+995664325+996067844
6513.36+996475040+996855240+997205101+997534568+997883510+998276748+998686285
6506.61+999089302+999486468+999877617+1000248122+1000599989+1000986039
6500.82+1001425664+1001864620+1002264795+1002639312+1003021351+1003421694
6495.03+1003811087+1004171897+1004528528+1004913743+1005346263+1005813218
6489.25+1006276077+1006715033+1007135017+1007559263+1008013347+1008478296
6483.46+1008917168+1009346680+1009789731+1010232365+1010666055+1011079687
6477.68+1011477188+1011918735+1012400232+1012844788+1013272544+1013741672
6471.89+1014209296+1014617829+1014993098+1015411661+1015882042+1016338550
6466.10+1016755859+1017156703+1017545177+1017912088+1018285936+1018699150
6460.32+1019126823+1019524408+1019883128+1020226302+1020569811+1020907637
6454.53+1021243958+1021601425+1021984216+1022371687+1022752890+1023116792
6448.74+1023447180+1023778904+1024140132+1024480381+1024773408+1025072704
6442.96+1025406852+1025745932+1026068462+1026381632+1026704831+1027040484
6437.17+1027359421+1027655039+1027974143+1028322165+1028645866+1028956696
6431.39+1029299954+1029646806+1029951033+1030233362+1030556812+1030925228
6425.60+1031274336+1031559006+1031798793+1032077027+1032412764+1032726017
6419.81+1032998150+1033281231+1033602842+1033943844+1034266542+1034577455
6414.03+1034903747+1035232128+1035533262+1035823281+1036130600+1036432571
6408.24+1036706458+1036962544+1037226235+1037527788+1037859763+1038174103
6402.45+1038441304+1038691288+1038965845+1039258120+1039545213+1039823781
6396.67+1040083377+1040329266+1040596133+1040889746+1041185865+1041479060
6390.88+1041762810+1042023994+1042285596+1042590324+1042924556+1043240233
6385.10+1043527159+1043800211+1044067245+1044324417+1044569387+1044814189
6379.31+1045069857+1045349930+1045652652+1045937990+1046190565+1046439547
6373.52+1046697638+1046966678+1047258118+1047553903+1047824699+1048072510
6367.74+1048311044+1048554760+1048792458+1049005166+1049228906+1049491762
6361.95+1049747095+1049968495+1050196498+1050434197+1050657101+1050900399
6356.16+1051154145+1051366100+1051571621+1051812579+1052059052+1052287473
6350.38+1052511715+1052744733+1052980509+1053215115+1053439775+1053650143
6344.59+1053854242+1054067786+1054304147+1054529475+1054715355+1054912266
6338.81+1055151385+1055394265+1055617839+1055840576+1056062060+1056248107
6333.02+1056406405+1056593538+1056826556+1057070857+1057288663+1057489001
6327.23+1057692014+1057883828+1058073719+1058291275+1058535993+1058766420
6321.45+1058952383+1059124723+1059303581+1059481437+1059688127+1059928417
6315.66+1060152659+1060345642+1060525922+1060711132+1060930694+1061177251
6309.87+1061403165+1061594477+1061770327+1061946344+1062132474+1062324789
6304.09+1062506823+1062688691+1062885686+1063075494+1063248335+1063428363
6298.30+1063612905+1063799370+1064007063+1064215759+1064402391+1064589775
6292.52+1064769386+1064919493+1065067010+1065237511+1065429658+1065625901
6286.73+1065793310+1065950020+1066140329+1066342005+1066523956+1066698886
6280.94+1066883010+1067074824+1067249838+1067411312+1067589168+1067738941
6275.16+1067825529+1067914958+1068054702+1068206481+1068334022+1068463820
6269.37+1068631312+1068824379+1068992456+1069099521+1069180425+1069302199
6263.59+1069459077+1069596397+1069712070+1069834847+1069958795+1070081321
6257.80+1070226748+1070387638+1070531895+1070662779+1070788482+1070897385
6252.01+1070999100+1071118952+1071247162+1071346287+1071403037+1071422260
6246.23+1071455691+1071569777+1071711108+1071811236+1071915793+1072047847
6240.44+1072155079+1072210074+1072252699+1072350486+1072491902+1072597462
6234.65+1072650367+1072692658+1072757181+1072852711+1072953173+1073035498
6228.87+1073097180+1073124426+1073127519+1073143984+1073180675+1073237090
6223.08+1073311643+1073380512+1073425143+1073444032+1073457822+1073479135
6217.30+1073496686+1073517414+1073568898+1073644036+1073703126+1073734635
6211.51+1073741823+1073718003+1073695019+1073703460+1073721095+1073725024
6205.72+1073708475+1073662256+1073604587+1073574916+1073580432+1073585280
6199.94+1073554941+1073497104+1073437680+1073395138+1073354686+1073282725
6194.15+1073186358+1073077037+1072956015+1072846945+1072742387+1072614595
6188.36+1072465407+1072306942+1072144297+1071974967+1071793935+1071610730
6182.58+1071427693+1071224429+1070987483+1070732400+1070476482+1070210534
6176.79+1069923023+1069630999+1069340813+1069027643+1068683800+1068324244
6171.01+1067937942+1067517792+1067095969+1066673645+1066226164+1065749932
6165.22+1065247456+1064717232+1064158341+1063584238+1063015902+1062438372
6159.43+1061823148+1061170732+1060498090+1059826033+1059171945+1058512758
6153.65+1057836857+1057189371+1056572727+1055939617+1055291965+1054654760
6147.86+1054039286+1053442115+1052847368+1052252788+1051668405+1051110767
6142.07+1050600518+1050125122+1049663683+1049212943+1048757104+1048302853
6136.29+1047864733+1047418923+1046939850+1046432275+1045910743+1045370323
6130.50+1044809007+1044233567+1043637985+1043052933+1042517945+1042017391
6124.72+1041517088+1040987449+1040438336+1039922739+1039461216+1039056862
6118.93+1038735167+1038501899+1038322956+1038153459+1037976773+1037802177
6113.14+1037630589+1037468196+1037319760+1037176088+1037041860+1036925268
6107.36+1036812353+1036676955+1036506621+1036332945+1036180664+1036016014
6101.57+1035812416+1035573046+1035301498+1035012984+1034731073+1034461448
6095.78+1034208705+1033999675+1033853579+1033756210+1033696869+1033680236
6090.00+1033698958+1033723029+1033723363+1033706898+1033702719+1033705561
6084.21+1033686672+1033662601+1033659509+1033658172+1033650984+1033666780
6078.43+1033724115+1033818392+1033926543+1034033190+1034148612+1034271640
6072.64+1034387731+1034491452+1034596344+1034712936+1034795930+1034795763
6066.85+1034734834+1034652258+1034561659+1034451836+1034300141+1034086764
6061.07+1033809031+1033494775+1033156364+1032784021+1032391367+1031950656
6055.28+1031397866+1030776875+1030188564+1029617219+1028996981+1028342141
6049.49+1027678107+1026966600+1026177700+1025332969+1024432825+1023459549
6043.71+1022440640+1021391642+1020294085+1019133342+1017909247+1016635338
6037.92+1015333097+1014026760+1012711313+1011360344+1009956972+1008475956
6032.14+1006905008+1005267365+1003609662+1001962825+1000291416+998549717
6026.35+996766563+994975970+993135648+991207066+989217222+987185253+985089264
6019.60+982921313+980699955+978426026+976088744+973678331+971170464+968563307
6012.85+965887280+963153166+960339735+957431192+954431298+951348743+948210275
6006.10+945072726+941990757+938976821+935994729+933008959+929999118+926905949
5999.35+923643617+920170081+916500302+912653671+908625171+904417730+900083165
5992.60+895671791+891164385+886548410+881881034+877245168+872727900+868443064
5985.85+864502908+860977887+857898676+855242374+852928661+850854653+848914872
5979.10+847017716+845108692+843134728+841007229+838653733+836062288+833256212
5972.35+830272532+827154958+823955143+820728499+817507455+814300786+811124958
5965.59+807990752+804894407+801832497+798780198+795670899+792446177+789095669
5958.84+785601657+781936224+778125949+774230089+770286172+766296871+762268873
5952.09+758226918+754162730+750038199+745826495+741517672+737098191+732542894
5945.34+727830052+722926984+717781286+712352340+706612147+700504582+693953800
5938.59+686906517+679330514+671210664+662578518+653498766+644007638+634134973
5931.84+623960630+613557574+602919703+592015425+580865132+569505684+557928178
5925.09+546114688+534116530+522015444+509848290+497662832+485559866+473648755
5918.34+462042582+450851921+440152745+429999130+420427307+411432470+402998281
5911.59+395134516+387847279+381118180+374923611+369249570+364079091+359362613
5904.84+355044805+351105025+347514918+344226509+341217149+338473528+335971909
5898.09+333678673+331542858+329530656+327616743+325733900+323808474+321806991
5891.34+319701891+317462501+315061031+312448043+309580140+306437242+303005496
5884.59+299273054+295239184+290932639+286390172+281643459+276736609+271727918
5877.84+266672883+261611078+256594050+251695871+246990885+242532310+238364171
5871.09+234523056+231022001+227885518+225146912+222818176+220895487+219370236
5864.34+218227943+217457493+217068580+217055123+217384173+218019289+218929713
5857.59+220085232+221431687+222893940+224406884+225944379+227468146+228915878
5850.83+230263858+231500010+232594621+233518919+234262958+234834658+235234562
5844.08+235443739+235454667+235286715+234945965+234420191+233691008+232759543
5837.33+231650389+230364508+228885058+227218455+225408325+223474395+221387160
5830.58+219133394+216750270+214284506+211744421+209148023+206524860+203875830
5823.83+201214722+198561742+195913547+193276071+190676999+188128973+185629569
5817.08+183155093+180684837+178255431+175899156+173608072+171383475+169249510
5810.33+167232627+165354099+163622241+162032927+160606018+159369626+158342107
5803.58+157529042+156908877+156473275+156237937+156206376+156365583+156708580
5796.83+157229966+157921351+158779016+159798510+160976282+162298896+163747119
5790.08+165299815+166942337+168683232+170526124+172463115+174494467+176630282
5783.33+178881478+181251899+183737073+186335581+189058161+191899444+194854645
5776.58+197940082+201151348+204467902+207891186+211432734+215082956+218817362
5769.83+222625088+226506969+230454439+234452390+238491483+242560768+246633021
5763.08+250684964+254718165+258728340+262694823+266613688+270499142+274349786
5756.33+278156467+281927021+285664060+289350806+292979673+296552458+300046450
5749.58+303433461+306725944+309946717+313065732+316038548+318870324+321577713
5742.83+324147386+326548376+328767728+330816976+332696894+334379920+335818876
5736.07+336989795+337892028+338512851+338848650+338928008+338780889+338409778
5729.32+337818437+337027321+336074314+335004212+333859183+332686405+331504788
5722.57+330318031+329148095+328009898+326896419+325808515+324770988+323790149
5715.82+322844977+321905405+320966083+320036791+319110759+318170414+317176369
5709.07+316112494+315000875+313859125+312698236+311539019+310407027+309310891
5702.32+308267054+307292400+306390605+305562673+304820556+304186465+303656533
5695.57+303229048+302904950+302669216+302514470+302441882+302439646+302475648
5688.82+302548549+302682443+302884724+303133204+303413737+303750371+304169958
5682.07+304703504+305356547+306108130+306954595+307912806+309001002+310218327
5675.32+311559600+313006496+314550970+316207335+317989695+319905552+321947424
5668.57+324119972+326442314+328926277+331552052+334297595+337164683+340130561
5661.82+343166813+346270241+349447573+352671626+355903954+359147690+362410106
5655.07+365692706+369007734+372371280+375800770+379317266+382932259+386657994
5648.32+390512231+394483521+398570901+402788163+407126406+411571796+416118108
5641.57+420759073+425494983+430321869+435205004+440124579+445090164+450104475
5634.82+455171149+460296035+465483564+470740463+476073377+481465381+486890608
5628.07+492354072+497864508+503400936+508918058+514387289+519812557+525193529
5621.31+530512276+535762197+540955659+546089865+551141494+556097175+560963051
5614.56+565741210+570414729+574973703+579411404+583708651+587866698+591900964
5607.81+595803050+599555907+603145617+606573435+609851397+612967884+615904259
5601.06+618669130+621277374+623716162+625957328+627998282+629871743+631604582
5594.31+633208585+634684922+636026529+637260403+638423988+639512727+640517303
5587.56+641461033+642370203+643247405+644089169+644890314+645654517+646398828
5580.81+647133361+647856652+648564481+649265540+649973118+650683998+651371267
5574.06+652007970+652598413+653161734+653705581+654223101+654719560+655201559
5567.31+655670854+656143074+656622315+657112171+657625052+658159204+658710365
5560.56+659285095+659880134+660492307+661138497+661814733+662498951+663193073
5553.81+663919290+664684328+665443851+666177673+666905477+667623378+668334884
5547.06+669046892+669731821+670361002+670913249+671376443+671768428+672101740
5540.31+672369694+672563430+672678016+672711824+672649265+672521640+672380392
5533.56+672194847+671933078+671620786+671271301+670869120+670417501+669928774
5526.81+669405153+668866571+668335595+667817907+667295373+666748893+666219212
5520.06+665755558+665335282+664936277+664567109+664208890+663871901+663586312
5513.31+663346023+663145392+662970545+662807190+662667655+662520097+662308266
5506.55+662088287+661925015+661792543+661665545+661551293+661492579+661517527
5499.80+661578874+661626890+661702905+661859281+662083773+662398489+662769705
5493.05+663028339+663206446+663480417+663849585+664224937+664566232+664883455
5486.30+665216976+665573440+665959867+666403378+666898415+667448740+668065092
5479.55+668740743+669438919+670204125+671159055+672081389+672717298+673362234
5472.80+674182477+675055583+675940139+676840952+677746111+678632088+679466999
5466.05+680340982+681308073+682224264+683080989+684099397+685193903+686073570
5459.30+686894440+687877452+688957207+689995632+691003551+692079586+693240454
5452.55+694440813+695700722+697097408+698519920+699797129+701156539+702859040
5445.80+704608846+706082508+707615093+709492691+711579320+713516426+715249266
5439.05+717082985+719055362+721086578+723353570+725658507+727579566+729381108
5432.30+731347717+733439946+735665734+737923281+739934856+741769411+743701002
5425.55+745788550+747924574+750035775+752130762+754255001+756406320+758588730
5418.80+760790364+762988905+765164127+767401449+769942496+772365864+774323614
5412.05+776448020+778813468+780978996+783012301+785081044+787201439+789355683
5405.30+791555227+793784609+795959664+798112989+800325654+802588718+804849442
5398.54+807145269+809567216+811873490+814001239+816383570+818743418+820649517
5391.79+822565060+824658208+826728790+828707936+830675633+832786917+834768905
5385.04+836367935+837904114+839504816+841062140+842598319+844092541+845560269
5378.29+847194903+848802458+850048201+851254912+852540271+853707616+854865517
5371.54+856073398+857237735+858341477+859392731+860406292+861392020+862381008
5364.79+863356373+864242643+865070575+865904524+866742151+867581701+868417656
5358.04+869220264+870006740+870832248+871691439+872456603+872991674+873384662
5351.29+873847605+874476285+875137728+875619142+876026756+876686276+877524739
5344.54+877991945+878181752+878503280+878942988+879525700+880305323+880858865
5337.79+881048673+881263638+881535269+881817180+882209750+882627393+882894093
5331.04+883075376+883339485+883757964+884181542+884312008+884301895+884448827
5324.29+884680758+884883938+885084694+885290131+885487293+885691894+885926082
5317.54+886171052+886388190+886577161+886777918+886999067+887218044+887422895
5310.79+887618553+887877982+888229682+888453589+888427346+888411048+888519951
5304.04+888630777+888682930+888727979+888810973+888843401+888775368+888702069
5297.29+888661784+888631278+888603279+888582719+888590157+888697640+888898563
5290.54+888956400+888842649+888832619+888990500+889248424+889532341+889695738
5283.78+889787507+889974306+890257471+890523837+890671521+890768389+890908968
5277.03+891066013+891211022+891342074+891458833+891549516+891632092+891770582
5270.28+891960975+892066201+892081997+892158137+892320531+892572855+892784644
5263.53+892834290+892948291+893154815+893332503+893571455+893901675+894271010
5256.78+894752257+895340317+895754868+895982453+896305904+896744442+897205462
5250.03+897764270+898423039+898887570+899155523+899577513+900165072+900589067
5243.28+900829106+901144616+901557662+901968954+902342635+902647196+902904034
5236.53+903161624+903439356+903685663+903867112+904074889+904280911+904347356
5229.78+904358138+904450493+904646067+904923131+905087948+905031365+905001528
5223.03+905089954+905184565+905285027+905443326+905620513+905760507+905888216
5216.28+906050275+906259640+906510544+906792371+907101947+907452226+907902632
5209.53+908392070+908791410+909245326+909733594+910015421+910268498+910652710
5202.78+911075117+911494182+911916338+912338578+912783552+913222759+913561671
5196.03+913829290+914136944+914488727+914840928+915182599+915539397+915915167
5189.28+916247309+916514594+916793664+917135585+917435633+917605549+917754737
5182.53+917953404+918140871+918266908+918345639+918399464+918427129+918431140
5175.78+918429719+918439164+918442089+918439582+918467581+918493657+918481037
5169.02+918480870+918526169+918598382+918701016+918850539+919010927+919156354
5162.27+919355439+919657827+920031257+920449402+920921622+921435130+921970954
5155.52+922543386+923147326+923760962+924366073+924944605+925497312+926023942
5148.77+926521988+927002567+927472948+927910483+928287006+928625918+928963994
5142.02+929285271+929570609+929842826+930124570+930420021+930714302+930979581
5135.27+931214605+931440184+931656737+931847965+932028078+932216381+932394069
5128.52+932547520+932680661+932791737+932882671+932961904+933037125+933109671
5121.77+933188820+933286858+933381219+933443151+933483770+933527231+933588411
5115.02+933666891+933745539+933819506+933891050+933944122+933970700+933988085
5108.27+933999786+933995022+933989338+934000956+934023355+934046841+934077180
5101.52+934135183+934234642+934367198+934522488+934692403+934874605+935082967
5094.77+935328438+935590876+935839021+936076134+936332053+936599756+936845143
5088.02+937078495+937310426+937511433+937675582+937828866+937989254+938159337
5081.27+938325157+938474178+938609408+938736281+938866664+939011005+939164288
5074.52+939332867+939527605+939742570+939984865+940263851+940566407+940877236
5067.77+941188651+941507337+941836387+942164517+942487717+942802809+943108540
5061.02+943409173+943699944+943967480+944210109+944443545+944664527+944841296
5054.26+944959978+945046817+945114850+945151959+945169176+945179038+945172268
5047.51+945146860+945133989+945169092+945241472+945324298+945415566+945521294
5040.76+945641062+945770275+945909601+946055864+946196945+946329334+946468660
5034.01+946622779+946780910+946931018+947076695+947229478+947386188+947544235
5027.26+947713566+947893595+948071618+948246799+948428917+948612289+948788139
5020.51+948968836+949166584+949371937+949565840+949736508+949891630+950046251
5013.76+950188252+950297238+950377975+950443000+950495487+950538280+950581824
5007.01+950637153+950718476+950831808+950946813+951035992+951099010+951133612
5000.26+951142137+951153587+951186099+951230229+951266502+951287815+951305282
4993.51+951338881+951396551+951469515+951556604+951665591+951794971+951932959
4986.76+952062339+952168819+952259836+952353444+952446886+952528124+952605853
4980.01+952698458+952812877+952953958+953135742+953365166+953635711+953953060
4973.26+954337689+954790687+955306034+955886990+956529628+957230269+957981225
4966.51+958763690+959571646+960400497+961235868+962082270+962950236+963829569
4959.76+964704389+965568092+966412656+967244516+968077546+968899461+969694964
4953.01+970476844+971263070+972052722+972834602+973599766+974348883+975088222
4946.26+975817196+976524858+977209619+977892458+978581399+979259139+979904619
4939.50+980519424+981132559+981761656+982389584+982995865+983588940+984185944
4932.75+984775760+985344096+985892790+986422095+986929586+987421698+987906288
4926.00+988384610+988846884+989279655+989693872+990117031+990551976+990962849
4919.25+991345724+991729100+992104870+992456737+992796485+993128794+993436949
4912.50+993715768+993972439+994206794+994420839+994622181+994813325+994995694
4905.75+995165861+995308196+995416765+995497585+995549738+995577319+995590859
4899.00+995592364+995584089+995567875+995544389+995516223+995487305+995462064
4892.25+995452286+995475019+995531184+995604483+995697506+995824546+995989614
4885.50+996194466+996441023+996728869+997049477+997384461+997732065+998102486
4878.75+998489624+998880605+999278858+999672849+1000037420+1000387699
4872.96+1000751350+1001121688+1001489936+1001862614+1002230027+1002589917
4867.18+1002977054+1003405228+1003852877+1004324512+1004825066+1005325870
4861.39+1005812967+1006304661+1006816832+1007339033+1007833820+1008283808
4855.60+1008710144+1009133220+1009562146+1009999013+1010440392+1010889879
4849.82+1011354410+1011832732+1012316737+1012795393+1013273714+1013754878
4844.03+1014220913+1014663045+1015083447+1015471838+1015825627+1016155262
4838.25+1016456563+1016720839+1016949344+1017156954+1017350272+1017523363
4832.46+1017685757+1017838455+1017980122+1018126301+1018269304+1018389073
4826.67+1018493463+1018591250+1018683103+1018773117+1018857616+1018934090
4820.89+1019006637+1019067148+1019111277+1019159920+1019223189+1019294900
4815.10+1019377560+1019473090+1019577062+1019685297+1019790857+1019896835
4809.31+1020005236+1020104027+1020193540+1020279041+1020349581+1020399060
4803.53+1020429817+1020440515+1020436921+1020422295+1020399561+1020371980
4797.74+1020334036+1020287984+1020236833+1020172478+1020099931+1020035659
4791.96+1019982336+1019935782+1019895414+1019856633+1019820277+1019799883
4786.17+1019819357+1019898423+1020040423+1020235914+1020461410+1020704123
4780.38+1020966978+1021245881+1021528210+1021800259+1022069048+1022338841
4774.60+1022586819+1022811061+1023024689+1023221684+1023399289+1023563103
4768.81+1023713629+1023858053+1023995039+1024120073+1024248450+1024381758
4763.02+1024505120+1024612268+1024703954+1024792882+1024886156+1024965640
4757.24+1025022055+1025066519+1025104464+1025138982+1025169238+1025184950
4751.45+1025167482+1025109730+1025030330+1024949927+1024863590+1024748418
4745.67+1024598227+1024428729+1024245692+1024044434+1023815177+1023554411
4739.88+1023278350+1022998361+1022712940+1022418826+1022112342+1021788641
4734.09+1021451735+1021113826+1020783857+1020463917+1020140551+1019803226
4728.31+1019454953+1019090466+1018704081+1018303655+1017885343+1017435689
4722.52+1016956281+1016456814+1015932691+1015369955+1014766599+1014127806
4716.74+1013442544+1012693260+1011866498+1010953901+1009967169+1008904631
4710.95+1007746062+1006497311+1005168324+1003753418+1002258360+1000695519
4705.16+999065315+997367411+995602644+993764495+991829896+989757057+987508871
4698.41+985072966+982463551+979720745+976912413+974125812+971429392+968849564
4691.66+966367524+963895346+961296629+958486459+955453717+952191469+948680155
4684.91+944897378+940810875+936371084+931532873+926265485+920527214+914283040
4678.16+907542157+900386890+893020169+885807735+879235012+873769459+869714549
4671.41+867119175+865783084+865369035+865549482+866081544+866794137+867556460
4664.66+868254009+868787910+869088293+869107850+868819169+868206620+867245797
4657.91+865916142+864223921+862175655+859761314+856973793+853834405+850413022
4651.16+846836099+843277898+839909755+836851021+834149085+831783553+829716231
4644.41+827939763+826492262+825422286+824733847+824353480+824134837+823914607
4637.66+823561236+822982118+822107299+820879609+819239542+817112043+814438691
4630.91+811209790+807461531+803307998+799002685+794914845+791414982+788704604
4624.16+786700551+785123168+783670317+782131130+780422444+778543509+776517307
4617.41+774384794+772223612+770118345+768136190+766343341+764797718+763538770
4610.65+762590401+761959381+761638856+761623059+761888172+762372093+763003865
4603.90+763716375+764443009+765132451+765768736+766367328+766939341+767480848
4597.15+767990429+768470004+768879206+769134873+769156687+768867923+768204390
4590.40+767168932+765869699+764545142+763564178+763289203+763877682+765225641
4583.65+767056268+769043856+770911007+772495912+773755947+774733234+775530325
4576.90+776286630+777161199+778289513+779734674+781492838+783485608+785568476
4570.15+787600611+789486902+791153296+792551152+793667515+794508150+795098468
4563.40+795484100+795712521+795822511+795846665+795796434+795652846+795418157
4556.65+795110169+794705982+794173668+793513980+792742548+791874331+790925293
4549.90+789926944+788925169+787963009+787075486+786292770+785626898+785052377
4543.15+784530009+784038649+783560077+783070556+782553955+782002669+781418202
4536.40+780807074+780173714+779523220+778854088+778167153+777467598+776751829
4529.65+776008229+775219579+774379277+773502201+772593616+771628531+770599174
4522.90+769523682+768406902+767249586+766048725+764790195+763477005+762134478
4516.15+760766293+759350551+757869117+756328007+754736499+753081137+751365765
4509.40+749607684+747804555+745961976+744088055+742181539+740241507+738263280
4502.64+736234571+734141757+731977651+729732222+727396528+724981853+722508170
4495.89+719963613+717321937+714578379+711741713+708828490+705846230+702793514
4489.14+699669588+696465469+693167197+689765498+686264673+682667315+678971251
4482.39+675175811+671276608+667268210+663141547+658889683+654510404+649999738
4475.64+645357937+640592774+635697020+630648900+625448877+620115921+614655090
4468.89+609045404+603270484+597338477+591251306+584988159+578534579+571899757
4462.14+565080896+558060943+550841822+543422447+535780626+527893083+519752548
4455.39+511356135+502698456+493776458+484575349+475074276+465266050+455161538
4448.64+444779460+434130515+423216499+412032984+400581557+388878014+376941287
4441.89+364779565+352395148+339798670+327006471+314037148+300918177+287693500
4435.14+274414977+261135431+247914619+234822895+221937380+209323873+197026357
4428.39+185079307+173514986+162357192+151613605+141281695+131363198+121863921
4421.64+112779028+104100318+95830403+87970713+80521463+73489303+66879889
4414.89+60694085+54933409+49601712+44698576+40208581+36098443+32339768+28928989
4407.17+25861513+23105700+20634082+18444258+16518294+14817991+13321256+12020822
4399.46+10905068+9956534+9160133+8505822+7978924+7553655+7206263+6925546
4391.74+6708245+6548490+6424230+6311639+6210382+6129569+6062596+5996833+5932588
4383.06+5879697+5838286+5796420+5753084+5718824+5702148+5706861+5727654+5760123
4374.38+5805091+5860336+5924196+5990664+6049636+6097093+6129722+6140281+6119903
4365.70+6062166+5968463+5837084+5660971+5442802+5187720+4901012+4598133+4287134
4357.03+3964218+3634414+3308670+2992609+2691094+2414314+2165342+1929711+1698410
4348.35+1478997+1280565+1106344+949731+804861+675760+560751+458461+378371
4339.67+317679+263687+217823+184220+157442+132972+116117+111250+112629+110412
4330.02+101848+96799+99820+101840+105020+117569+135743+156033+179206+202815
4320.38+223158+242000+264699+290646+313771+340231+385113+451296+522883+586103
4310.74+648695+721248+803916+896823+999979+1108096+1214659+1321302+1435011
4302.06+1556717+1675876+1789143+1910380+2046246+2188241+2323306+2441744+2548730
4293.38+2651093+2746535+2833532+2905610+2950790+2966126+2959246+2934089+2882161
4284.70+2797519+2686286+2555421+2408712+2252145+2087979+1914892+1743347+1584054
4276.02+1434561+1297718+1178272+1066088+957513+864633+786277+706152+625959
4267.34+566426+523274+476269+434770+408245+382418+354333+336188+334781+344416
4257.69+356526+369500+383915+402739+432921+476997+533477+597117+663320+735977
4248.05+816315+904084+1006659+1128367+1262457+1398841+1535737+1680498+1838222
4239.37+2002438+2166142+2331377+2499370+2664152+2819123+2964425+3103720+3240176
4230.69+3372946+3498016+3622744+3753585+3882836+4005052+4118963+4222311+4324659
4222.01+4435753+4542562+4631203+4704397+4766519+4814889+4844077+4851544+4843692
4213.33+4836592+4834151+4826769+4816437+4812960+4815954+4819275+4828673+4853432
4204.65+4888506+4924103+4957307+4987045+5012699+5035809+5054264+5072286+5100092
4195.98+5128510+5143577+5152611+5164456+5174634+5181478+5184351+5177250+5160132
4187.30+5135901+5106425+5072953+5026324+4953634+4855846+4742335+4616032+4473313
4178.62+4319399+4169346+4021271+3866144+3714348+3573994+3440981+3319814+3221419
4169.94+3148106+3095194+3060135+3047523+3058222+3080261+3109313+3155277+3222573
4161.26+3304798+3395494+3498583+3618805+3749269+3882520+4020128+4165487+4318232
4152.58+4471823+4616858+4754078+4892632+5028148+5149383+5260121+5362740+5450487
4143.90+5527407+5598159+5656320+5701157+5737595+5766051+5789513+5811035+5829547
4135.22+5842759+5843923+5830687+5810421+5783615+5747475+5713401+5685574+5648736
4126.54+5599753+5549807+5500463+5449667+5405170+5368677+5330287+5292174+5265501
4117.86+5247016+5227225+5208444+5196390+5193938+5203137+5222112+5249012+5285624
4109.18+5335370+5398597+5470915+5543717+5616574+5698442+5786521+5866595+5930888
4100.50+5987761+6043926+6095479+6140427+6177076+6204102+6218005+6218101+6209525
4091.82+6195802+6176785+6144130+6091831+6025383+5951367+5869346+5779103+5679265
4083.14+5568026+5455054+5348683+5249171+5146265+5031394+4910346+4789078+4669115
4074.46+4547283+4425780+4310650+4207006+4116489+4038770+3981047+3936484+3894465
4065.79+3849749+3793153+3724078+3647360+3571552+3507653+3477274+3503958+3591011
4057.11+3738901+3963942+4280016+4680047+5154081+5693384+6281451+6889431+7496058
4048.43+8111821+8739345+9359326+9966331+10565661+11145479+11697661+12240688
4040.71+12795922+13380519+14000347+14645391+15308197+15997273+16722715+17478026
4033.00+18257517+19059916+19878270+20694832+21493288+22272942+23041099+23804623
4025.28+24543397+25234873+25885239+26493954+27054765+27572152+28051806+28504615
4017.57+28947413+29389193+29842472+30331298+30873182+31476009+32136744+32849082
4009.85+33618769+34454291+35356308+36347822+37468559+38719345+40071248+41495065
4002.14+42960390+44451376+45960078+47462512+48934931+50370606+51782989+53183154
3994.42+54553700+55893484+57227314+58577482+59939405+61276326+62582726+63871715
3986.71+65138514+66381242+67594379+68785962+69980951+71173067+72334040+73446892
3978.99+74485876+75423787+76251118+76956220+77521553+77940423+78224205+78383919
3971.28+78426967+78357947+78186224+77948797+77675317+77374600+77057857+76751802
3963.56+76482663+76255292+76081876+75969201+75910534+75920245+76018570+76202397
3955.85+76460989+76790238+77180368+77606375+78049859+78536403+79052199+79556383
3948.13+80091210+80653899+81205561+81745767+82281225+82832950+83345941+83773640
3940.42+84145890+84452123+84689685+84923486+85218812+85584564+85975911+86370769
3932.70+86771822+87118188+87402393+87653667+87848782+87992746+88119786+88255717
3924.99+88378724+88464058+88532070+88585728+88605807+88558366+88463546+88322214
3917.27+88086417+87803785+87528868+87244637+86943299+86649911+86380318+86145257
3909.56+85951720+85799748+85684926+85598291+85523394+85425445+85334783+85280180
3901.84+85242115+85232812+85235225+85179462+85072262+84937883+84745067+84486839
3894.13+84210575+83955879+83625074+83183610+82865180+82678450+82569593+82555881
3886.41+82645457+82801843+83017471+83345173+83738835+84274319+85050871+85758946
3878.70+86392337+87120016+87879831+88650334+89600751+90509994+91142707+91724300
3870.98+92480281+93374648+93957234+94353074+94769275+95276620+95841926+96243878
3863.27+96560902+96922788+97255860+97532872+97821783+98137021+98439326+98663307
3855.55+98872682+99219399+99498186+99587229+99632654+99672814+99706141+99716118
3847.84+99725709+99748285+99786920+99821688+99805297+99781404+99820759+99890756
3840.12+99936609+100036643+100221122+100385052+100585474+100869924+101120618
3833.37+101356457+101658229+101895697+102006920+102071933+102100977+102059334
3826.62+101941519+101844829+101820487+101878302+102078787+102566553+103167704
3819.87+103667558+104231077+104928250+106020510+107406529+108366881+109232883
3813.12+110277702+111415356+112562935+113655937+114631981+115707327+117144820
3806.37+118324473+119146230+120011689+120967183+122169830+123654075+124693190
3799.62+125462616
##END=
