##TITLE=Ρμερό_6_2,1μμ
##JCAMP-DX=4.24
##DATA TYPE=INFRARED SPECTRUM
##DATE=7/4/2017
##SAMPLING PROCEDURE=Instrument type and / or accessory
##ORIGIN=Default
##XUNITS=1/CM
##YUNITS=TRANSMITTANCE
##RESOLUTION=2
##FIRSTX=7998.4873
##LASTX=3799.619
##DELTAX=-0.96437031
##MAXY=0.70113289
##MINY=5.6840887e-005
##XFACTOR=1
##YFACTOR=6.5298089e-010
##NPOINTS=4355
##FIRSTY=0.32319593
##XYDATA=(X++(Y..Y))
7998.49+494954658+495450633+495895216+496300822+496673431+497093094+497689113
7991.74+498418812+498943722+499138835+499347412+499836814+500453462+500879971
7984.99+501136242+501555084+502220065+502847941+503235884+503481247+503767139
7978.24+504183790+504677939+505135073+505548256+505977733+506463757+506946542
7971.48+507331473+507671266+508067334+508532272+509090181+509719699+510226719
7964.73+510561765+510913972+511283751+511608163+512006786+512499931+512983035
7957.98+513386359+513698768+514031167+514584557+515385364+516074854+516410539
7951.23+516663433+517088026+517597418+517988694+518279651+518717297+519236822
7944.48+519548911+519719789+519964696+520341823+520914655+521605241+522107148
7937.73+522400160+522732833+523108590+523419493+523733545+524125596+524562557
7930.98+525001344+525405718+525759386+526105979+526557135+527345208+528349845
7924.23+528876307+528760609+528699496+529100995+529687064+530138447+530509960
7917.48+530964995+531515738+532124992+532648944+532971166+533233918+533509312
7910.73+533725191+533961289+534398342+535066517+535679605+535980193+536176538
7903.98+536600857+537400705+538569192+539553929+539652604+539366621+539721612
7897.23+540615525+541289269+541352527+541079825+541065540+541427286+541962100
7890.48+542588287+543132366+543739977+545013756+546426692+546537735+545634374
7883.73+545184907+545435108+545851303+546268730+546737640+547232565+547673680
7876.98+547977051+548140992+548338432+548711314+549197933+549692812+550231779
7870.23+550917344+551555306+551990122+552876961+554504773+555479515+554975006
7863.48+554365478+554632474+555229451+555794343+556182606+556135505+555980647
7856.72+556082653+556331804+556640333+557104999+558084077+559609060+560736835
7849.97+560930031+560870835+560911090+560757008+560545008+560574538+560848837
7843.22+561567491+563018308+564402400+564461915+563687397+563393473+564042708
7836.47+565632683+567280165+567830999+567372359+566568083+565978729+565943631
7829.72+566298531+566718742+567057166+567356932+567711787+568090465+568430806
7822.97+568755355+569132618+569578936+570023383+570399870+570700230+571006021
7816.22+571430203+572151732+573482972+575068703+575893288+576276440+577533240
7809.47+578957038+578728426+577580067+577838392+579731511+580995248+580161809
7802.72+578650563+578597118+580407217+582315489+582393306+581281414+580457239
7795.97+579991616+579754650+579824389+580074453+580465683+581083928+581978571
7789.22+582817488+583164218+583378819+584160731+585797944+587893935+588879083
7782.47+587821047+586127559+585306579+585301696+585564265+585904697+586340837
7775.72+587004722+588388905+590850613+593155591+593281239+591550645+590210140
7768.97+590335834+591193509+591549002+591242116+591322900+592531367+594604902
7762.22+596591219+597156156+595880598+594155344+593293333+593233179+593557181
7755.47+594019427+594482449+594910328+595382934+596429971+598535455+600722818
7748.72+601159642+599798417+598398717+598188862+599117781+600472343+601956844
7741.96+603788439+605345371+605674256+604752000+603199724+601936899+601480312
7735.21+601676246+602372263+603660372+605681513+607676821+608227655+607310145
7728.46+606244579+605813642+606208660+607594668+608930243+608682462+607448664
7721.71+606773140+606843381+607148350+607473995+608019352+609277248+611015600
7714.96+611848446+611402083+611142161+612208275+614499425+617057616+618538145
7708.21+618361015+617548433+617675268+618454532+618112640+616493911+615165546
7701.46+615055462+615669417+615986846+615764121+615517297+615525421+615759420
7694.71+616141293+616533618+616917956+617450990+618312408+619792983+621612393
7687.96+622279382+621344438+620420858+620754718+622309733+624089025+625047108
7681.21+625215658+624877463+624643008+625687945+627697858+628660688+627674262
7674.46+626056857+625386536+626242385+628007437+628875837+628033954+626838723
7667.71+626458173+626986233+628543895+630508258+631117832+630022462+628877526
7660.96+628623172+628849914+629230692+629811329+630536053+631523438+632901825
7654.21+633749915+633414640+632820585+632711139+633008577+633498482+634010841
7647.46+634584906+635587763+637440810+639519001+640721398+640968084+640472292
7640.71+639373180+638346179+637968413+638029434+638221809+638890350+640554308
7633.96+642862846+644260767+643646492+641944378+640721489+640405475+640563619
7627.20+640836412+641135174+641442425+641755792+642081984+642434055+642839478
7620.45+643309894+643830514+644438582+645384662+647100924+649267658+650340071
7613.70+649548894+648116652+647338300+647312559+647679873+648441657+649780656
7606.95+651226225+652301285+653520797+654858427+655163533+654192898+652893241
7600.20+652086364+651966056+652351033+653079637+653896007+654832229+656018378
7593.45+656556068+655892958+655003791+654667969+654804343+655159151+655540751
7586.70+655906741+656243111+656528273+656833972+657194166+657576588+657980505
7579.95+658387024+658768122+659135893+659488784+659848933+660273161+660765575
7573.20+661335441+662107358+663063844+663697105+663587248+663158091+663072379
7566.45+663409525+663906047+664357157+664729856+665263621+666402623+668002229
7559.70+668855111+668439875+667833040+667710267+667730394+667770741+668011950
7552.95+668412262+668792630+669132149+669508271+669928300+670346549+670740837
7546.20+671139551+671606909+672134878+672756272+673844613+675334727+676127775
7539.45+675706104+674976359+674716208+674852902+675191508+675831752+676969978
7532.70+678173698+678528827+678087666+677707573+677701320+677906519+678265801
7525.95+678698883+679027905+679313979+679875447+680969539+682305298+683060692
7519.20+682962611+682561523+682353083+682583658+683366666+684228630+684451493
7512.44+684218590+684183812+684507128+685113826+685858267+686683811+687757365
7505.69+688777474+689126715+688927859+688812480+689154555+689950889+690718972
7498.94+690841106+690423268+690190593+690417015+690729971+690970816+691427722
7492.19+692312462+693420657+694296177+694616208+694311923+693698607+693317920
7485.44+693464700+694109873+694852077+695189132+695156864+695138471+695398393
7478.69+695997834+696622195+696989555+697448150+698166211+698685371+698985365
7471.94+699417352+699863487+699993699+699809403+699691103+700017386+700740376
7465.19+701331328+701382263+701146850+701052420+701172134+701368251+701600881
7458.44+701960436+702393518+702814551+703329694+703895316+704234972+704365732
7451.69+704573487+704827567+704894932+704884983+705142212+705744985+706397826
7444.94+706741179+706692708+706536071+706590474+706887319+707320401+707741160
7438.19+707914594+707850104+707859049+708043163+708281862+708551141+708869665
7431.44+709198596+709448021+709560022+709694616+710123818+710836630+711473908
7424.69+711729129+711642321+711489152+711556152+711938345+712332769+712373663
7417.94+712155410+711980790+711987088+712136698+712301505+712438609+712600039
7411.19+712756175+712803367+712760055+712772195+712926368+713191494+713483547
7404.44+713647715+713509197+713191128+713019292+713024039+712990813+712856493
7397.68+712730206+712648373+712583654+712510584+712369418+712176724+711996582
7390.93+711768517+711443374+711142147+710884188+710616370+710417423+710287850
7384.18+710151705+709934411+709481840+708771949+708086841+707669961+707496801
7377.43+707289320+706596909+705538371+704676908+704034154+703422253+702856403
7370.68+702373253+701775044+700937634+700155494+699540353+698879707+698167854
7363.93+697576810+697023512+696341096+695643437+695049609+694443367+693819874
7357.18+693291403+692702870+691984170+691419918+691067665+690667672+690187216
7350.43+689807031+689379563+688716955+688020117+687558510+687379371+687272755
7343.68+687134373+687161256+687290920+687057880+686544106+686299336+686272911
7336.93+686250501+686236718+686225855+686248310+686374689+686588970+686818770
7330.18+687134328+687540801+687641712+687429758+687425012+687694381+687891229
7323.43+687871831+687852982+687935363+687994787+687941068+687861517+687853164
7316.68+687770510+687558738+687504654+687634912+687562252+687066963+686402986
7309.93+686009657+685982592+685873237+685288127+684651991+684364685+684223062
7303.18+683969256+683650960+683362375+682930252+682264404+681638537+681250456
7296.43+681102627+680901033+680219165+679262816+678503816+678010625+677619715
7289.68+677178463+676580072+675881226+675280050+674795029+674282442+673696328
7282.92+673104098+672509905+671880478+671273460+670732530+670228751+669685128
7276.17+669065285+668471686+667898990+667226844+666520558+665876846+665297897
7269.42+664742727+664091484+663318061+662530855+661822790+661241559+660672651
7262.67+659908448+659048856+658353388+657792649+657204025+656546803+655872968
7255.92+655267821+654746790+654165879+653430840+652682839+652047342+651515631
7249.17+651054389+650654670+650305795+649979968+649776777+649633831+649098560
7242.42+648313271+647783659+647399002+646971899+646535485+646100350+645690499
7235.67+645392467+645221589+644970338+644380071+643607698+643002232+642611504
7228.92+642343276+642187642+641981849+641544568+641076754+640758093+640547006
7222.17+640436054+640348150+640071843+639623837+639234205+638967847+638721937
7215.42+638407292+637989590+637471526+636963229+636564423+636208427+635804327
7208.67+635385348+635033643+634678606+634178570+633633897+633138835+632600187
7201.92+632052958+631574829+631128329+630718843+630412322+630182751+629863405
7195.17+629363597+628850096+628492777+628271741+628086532+627870059+627653587
7188.42+627527391+627478647+627439260+627480792+627696306+628041941+628364710
7181.67+628491134+628593506+628992449+629602615+630192198+630783151+631491764
7174.92+632327349+633187214+634021065+634926981+635981594+637140450+638243899
7168.16+639269850+640414010+641626219+642759562+643963739+645401914+646961721
7161.41+648307246+649453049+650743623+652220410+653668079+654991651+656314447
7154.66+657700045+659084182+660432400+661733928+662990865+664217543+665433632
7147.91+666677607+667973521+669167155+670148835+671124216+672156420+673193827
7141.16+674316398+675346411+676023031+676636347+677456687+678278717+678944246
7134.41+679546471+680151617+680769406+681383178+681928171+682369924+682769643
7127.66+683138555+683467896+683814215+684177650+684513837+684807853+685040163
7120.91+685226558+685541888+685956668+686052376+685871959+685837227+685969447
7114.16+686120015+686206321+686161822+686052193+686002674+685945167+685811577
7107.41+685674884+685491729+685188038+684866182+684573398+684223062+683813622
7100.66+683415729+683052614+682712319+682332773+681860942+681315037+680749598
7093.91+680222862+679732501+679232556+678704953+678166396+677661020+677192703
7087.16+676711790+676228458+675789260+675413640+675116155+674889459+674705529
7080.41+674578785+674542090+674590287+674723739+674954178+675259375+675626598
7073.66+676137040+676809232+677505112+678226002+679067384+680001187+681048589
7066.91+682236563+683472186+684692748+685922529+687223098+688651187+690159557
7060.16+691645975+693115277+694624240+696166430+697719984+699258295+700730883
7053.40+702181016+703669396+705142760+706596042+708074655+709531497+710898017
7046.65+712188728+713458992+714729667+715994180+717195756+718259817+719263084
7039.90+720335086+721421329+722410813+723323804+724218584+725107933+725956663
7033.15+726735608+727478999+728216685+728954417+729689638+730390675+731046574
7026.40+731671072+732278819+732903728+733519098+734039307+734491239+734985114
7019.65+735536359+736056979+736480157+736833688+737198857+737587667+737950737
7012.90+738306413+738672038+739004894+739302059+739587722+739857502+740112541
7006.15+740376890+740640053+740867434+741074596+741265966+741411148+741524975
6999.40+741647839+741776180+741898086+742014241+742084755+742097260+742149382
6992.65+742308347+742500722+742645174+742747591+742831250+742907378+743018604
6985.90+743182955+743322249+743405543+743514213+743638766+743737623+743896132
6979.15+744134877+744392882+744693379+745041387+745380358+745716409+746092349
6972.40+746500466+746943543+747463433+748050597+748664095+749273076+749873293
6965.65+750533208+751243327+751883342+752484655+753160179+753901790+754670512
6958.90+755420703+756147573+756934003+757754709+758500564+759210821+759996977
6952.15+760855062+761710683+762549098+763378156+764157010+764858001+765561594
6945.39+766357152+767190637+767949820+768637895+769355910+770126868+770896457
6938.64+771624239+772267952+772868762+773523885+774213877+774869456+775517458
6931.89+776199509+776845503+777411444+777992630+778640541+779275947+779857406
6925.14+780407008+780919002+781429810+782017841+782665387+783303075+783947609
6918.39+784581463+785096561+785547032+786093439+786748835+787427600+788091850
6911.64+788747247+789368230+789965390+790614944+791341996+792100722+792843109
6904.89+793563772+794284982+795018058+795779979+796571475+797353843+798135481
6898.14+798963216+799836135+800738172+801615381+802398570+803131647+803894755
6891.39+804693371+805501389+806298818+807092323+807885005+808651217+809390957
6884.64+810145119+810931047+811731854+812520977+813276965+814003104+814709709
6877.89+815400796+816069793+816705017+817332755+817994176+818676865+819321491
6871.14+819903954+820477562+821069610+821656272+822247589+822836077+823356834
6864.39+823793613+824211405+824676846+825167207+825602890+825978694+826350480
6857.64+826728474+827088303+827428416+827760952+828084451+828390607+828691104
6850.89+828988223+829249651+829460054+829643072+829833757+830034028+830221792
6844.14+830400976+830586185+830787368+830989555+831167188+831336240+831532311
6837.39+831792370+832108202+832407147+832651779+832896686+833207771+833575724
6830.63+833978729+834431847+834890260+835294999+835709779+836190920+836678816
6823.88+837168447+837727268+838346061+838957186+839533168+840098105+840674635
6817.13+841256185+841839835+842449774+843101154+843753812+844353709+844927775
6810.38+845535705+846167460+846798119+847423849+848028585+848594343+849146045
6803.63+849753062+850420873+851093430+851755855+852384598+852967608+853541491
6796.88+854127240+854734440+855351864+855962259+856602412+857266388+857887007
6790.13+858483801+859095291+859684966+860260309+860875450+861511130+862122347
6783.38+862708643+863285538+863867180+864451012+865021700+865584629+866147284
6776.63+866699807+867252421+867812885+868365500+868907525+869442066+869982905
6769.88+870550398+871137607+871715872+872253881+872763593+873286358+873831031
6763.13+874364111+874841784+875281301+875747016+876252347+876759960+877262278
6756.38+877791068+878325882+878800725+879213406+879642335+880136894+880649710
6749.63+881135415+881610623+882102445+882616812+883114658+883568232+884016421
6742.88+884490990+884962365+885409823+885847880+886284841+886733761+887202214
6736.13+887682442+888171160+888656226+889123767+889549957+889932606+890346656
6729.38+890831723+891315968+891735038+892115131+892515489+892954915+893411228
6722.63+893862155+894299117+894715814+895116902+895524562+895938703+896341069
6715.87+896721436+897087746+897475690+897909822+898369421+898825368+899258952
6709.12+899671085+900088513+900525018+900971016+901425868+901890123+902358120
6702.37+902831502+903304154+903770143+904227551+904669898+905108685+905559430
6695.62+906014556+906475890+906975652+907499057+907988231+908454311+908916009
6688.87+909373417+909853189+910345558+910842948+911361240+911871683+912351911
6682.12+912808133+913269649+913777809+914318648+914833381+915313062+915800227
6675.37+916326096+916876429+917428860+918002743+918578908+919105050+919627633
6668.62+920185815+920745641+921312221+921875880+922407774+922931269+923472565
6661.87+924046447+924645889+925222236+925759515+926303184+926877979+927448849
6655.12+927997447+928553348+929137727+929728223+930276365+930795753+931346267
6648.37+931922706+932486456+933021819+933526145+934021983+934539271+935086043
6641.62+935651893+936220482+936787883+937339585+937847654+938323227+938820799
6634.87+939363738+939897913+940396398+940896891+941416096+941954196+942481982
6628.12+942951440+943378725+943822533+944306412+944819958+945346831+945856087
6621.37+946325636+946772638+947223383+947697952+948207208+948737641+949238955
6614.62+949675369+950098821+950573025+951077808+951577844+952056795+952524244
6607.87+953012231+953508617+953975609+954415948+954835840+955250438+955701547
6601.11+956185610+956662004+957114575+957544964+957983842+958453117+958912716
6594.36+959352690+959830089+960344274+960836460+961286566+961695230+962074046
6587.61+962475773+962939205+963430114+963888982+964321015+964774133+965237383
6580.86+965682560+966141794+966617184+967056793+967471299+967904335+968342483
6574.11+968751787+969131150+969521649+969955507+970402327+970828882+971258906
6567.36+971731011+972220094+972651396+973024278+973400081+973774332+974146576
6560.61+974565829+975019038+975483292+975965894+976428871+976840638+977221553
6553.86+977620816+978072473+978531707+978930513+979276650+979618497+980001055
6547.11+980442672+980910030+981363056+981793263+982221461+982645005+983040798
6540.36+983432119+983824627+984198878+984563637+984944825+985351755+985759963
6533.61+986177938+986612618+987012701+987384945+987779369+988173064+988524677
6526.86+988871818+989261679+989662402+990050437+990463391+990912493+991358947
6520.11+991771628+992157381+992530537+992902598+993286069+993667988+994015585
6513.36+994340727+994696814+995082202+995460378+995843484+996246854+996656522
6506.61+997061444+997444367+997808213+998179726+998554068+998924577+999324661
6499.86+999755689+1000159333+1000532398+1000926549+1001333570+1001729546
6494.07+1002126162+1002548427+1003005379+1003463974+1003893085+1004293625
6488.28+1004688506+1005106937+1005534497+1005945534+1006379027+1006854509
6482.50+1007306349+1007729345+1008167128+1008602628+1009046253+1009515254
6476.71+1009965543+1010398670+1010857539+1011317960+1011736574+1012126890
6470.92+1012527066+1012955081+1013398341+1013856754+1014329862+1014767006
6465.14+1015149747+1015527010+1015927642+1016347351+1016775185+1017202196
6459.35+1017613690+1017984108+1018320752+1018671088+1019046800+1019412562
6453.57+1019746011+1020067593+1020409623+1020774655+1021142973+1021500155
6447.78+1021855602+1022214793+1022566406+1022915738+1023255759+1023570222
6441.99+1023885780+1024220598+1024558976+1024885852+1025182059+1025453254
6436.21+1025738872+1026065475+1026435710+1026824201+1027182113+1027481971
6430.42+1027746868+1028025366+1028348500+1028711159+1029069527+1029390197
6424.63+1029695166+1030012823+1030334497+1030651698+1030987155+1031339773
6418.85+1031642552+1031893209+1032188959+1032556821+1032913181+1033198525
6413.06+1033447265+1033723572+1034031828+1034354871+1034682934+1034988086
6407.28+1035287396+1035602314+1035895691+1036159584+1036410332+1036680706
6401.49+1037019997+1037391784+1037712910+1037979907+1038238140+1038513443
6395.70+1038813940+1039106038+1039337344+1039549572+1039822958+1040149104
6389.92+1040485383+1040821936+1041141418+1041434613+1041728080+1042016984
6384.13+1042268463+1042485438+1042714735+1042985474+1043282319+1043590483
6378.35+1043890889+1044178241+1044471617+1044753858+1045006158+1045265578
6372.56+1045562606+1045847402+1046067206+1046259535+1046490750+1046763132
6366.77+1047049571+1047355270+1047669459+1047954712+1048212945+1048456574
6360.99+1048677656+1048893900+1049138533+1049398227+1049636196+1049858374
6355.20+1050094061+1050340519+1050571642+1050773281+1050972365+1051215355
6349.41+1051487371+1051738303+1051957285+1052159107+1052369692+1052608939
6343.63+1052861696+1053094097+1053299935+1053493359+1053685505+1053912977
6337.84+1054178239+1054424789+1054649066+1054899632+1055162977+1055376574
6332.06+1055561235+1055780309+1056017822+1056227038+1056406952+1056591066
6326.27+1056799186+1057015978+1057232861+1057454765+1057676212+1057893278
6320.48+1058112991+1058342654+1058576881+1058789200+1058981894+1059188006
6314.70+1059400325+1059595392+1059784800+1059983062+1060180594+1060371918
6308.91+1060585698+1060830331+1061065196+1061280071+1061485271+1061678147
6303.12+1061884259+1062112279+1062315470+1062478680+1062643807+1062840974
6297.34+1063056031+1063257397+1063436946+1063612479+1063798601+1063987187
6291.55+1064167923+1064358792+1064576314+1064790641+1064973659+1065149284
6285.77+1065349736+1065567989+1065766525+1065940050+1066104264+1066236712
6279.98+1066364505+1066553366+1066762034+1066926065+1067071293+1067233316
6274.19+1067410401+1067596432+1067764023+1067895742+1068029194+1068177708
6268.41+1068297286+1068387015+1068511796+1068685686+1068851726+1068997866
6262.62+1069137983+1069269427+1069407444+1069545186+1069669146+1069800590
6256.83+1069932035+1070045679+1070163523+1070294967+1070424130+1070543342
6251.05+1070647859+1070744982+1070858718+1070991805+1071120237+1071229683
6245.26+1071330274+1071448574+1071583761+1071686909+1071754091+1071842451
6239.48+1071953540+1072043817+1072114925+1072185120+1072267455+1072375075
6233.69+1072475758+1072546957+1072623268+1072705877+1072767765+1072834583
6227.90+1072926776+1073010025+1073071183+1073122391+1073175152+1073242608
6222.12+1073298381+1073334984+1073381811+1073430647+1073461134+1073487149
6216.33+1073528956+1073572406+1073591575+1073597143+1073615855+1073657388
6210.54+1073713435+1073741823+1073711426+1073668981+1073657206+1073665969
6204.76+1073683586+1073687511+1073655106+1073609192+1073572862+1073537810
6198.97+1073500750+1073456753+1073398151+1073328868+1073248815+1073161551
6193.19+1073075747+1073009568+1072953522+1072856764+1072724589+1072579635
6187.40+1072411313+1072244817+1072100593+1071962394+1071802927+1071602474
6181.61+1071378197+1071160675+1070956479+1070727091+1070446037+1070158594
6175.83+1069894244+1069626974+1069324561+1068986091+1068635847+1068275470
6170.04+1067892912+1067485069+1067048199+1066584310+1066106089+1065626682
6164.25+1065134131+1064611274+1064068245+1063520742+1062958909+1062358463
6158.47+1061721140+1061075785+1060437914+1059806433+1059187184+1058574872
6152.68+1057945126+1057298766+1056654597+1056016909+1055390723+1054784070
6146.90+1054185907+1053576151+1052961922+1052385119+1051872120+1051388058
6141.11+1050892677+1050420025+1050006249+1049601144+1049150399+1048673457
6135.32+1048211941+1047749877+1047251484+1046721051+1046177839+1045642294
6129.54+1045110218+1044544368+1043947391+1043376247+1042848279+1042325331
6123.75+1041796358+1041278340+1040793638+1040377672+1040039567+1039732134
6117.97+1039428716+1039181801+1039004260+1038821972+1038613578+1038425631
6112.18+1038276113+1038162286+1038080681+1037998345+1037890451+1037773064
6106.39+1037642533+1037471929+1037279417+1037103245+1036936658+1036748437
6100.61+1036512202+1036239363+1035970268+1035707835+1035435544+1035165627
6094.82+1034929940+1034732773+1034577413+1034494804+1034477735+1034480838
6089.03+1034470615+1034456740+1034454093+1034446790+1034450076+1034482481
6083.25+1034500555+1034481112+1034458292+1034449164+1034440127+1034424883
6077.46+1034435289+1034515160+1034639667+1034758058+1034868690+1034973755
6071.68+1035067683+1035156042+1035219848+1035244494+1035253348+1035244859
6065.89+1035175942+1035036556+1034876541+1034711231+1034496082+1034222878
6060.10+1033901844+1033532065+1033131616+1032707525+1032235968+1031704440
6054.32+1031135121+1030546725+1029935235+1029295447+1028607555+1027873657
6048.53+1027121959+1026343608+1025505284+1024588094+1023599614+1022567958
6042.74+1021499607+1020375757+1019205263+1017992050+1016705081+1015368182
6036.96+1014034204+1012682426+1011271406+1009795852+1008268267+1006697141
6031.17+1005075445+1003409205+1001728633+1000033092+998289628+996493586
6025.39+994649348+992750980+990795471+988777251+986696322+984562815+982386862
6018.64+980164995+977872386+975488313+973022452+970487766+967878594+965192108
6011.88+962426755+959576419+956630239+953591591+950503377+947407588+944320196
6005.13+941244305+938190779+935174495+932185047+929178621+926083653+922833508
5998.38+919397971+915759151+911918784+907923512+903809941+899572137+895214481
5991.63+890762258+886233268+881664297+877113764+872631601+868320224+864356171
5984.88+860847153+857766607+855039592+852611978+850435934+848428760+846490959
5978.13+844541930+842511388+840330506+837963412+835410743+832663737+829709433
5971.38+826581877+823363680+820133342+816924456+813737385+810575782+807445488
5964.63+804344587+801277550+798217178+795085332+791840663+788474317+784966394
5957.88+781318173+777546631+773671395+769739472+765780987+761777775+757712446
5951.13+753587921+749425104+745220800+740924758+736510873+731971386+727281330
5944.38+722416609+717341668+712003428+706343468+700314779+693880575+686984171
5937.63+679564818+671615535+663178265+654286552+644981292+635343907+625434778
5930.88+615269698+604871715+594262143+583428887+572342098+561003786+549460639
5924.13+537759759+525930218+514017840+502110391+490289249+478624835+467233899
5917.38+456234512+445681717+435628501+426149671+417262568+408935793+401159122
5910.63+393928492+387220629+381015882+375306996+370067201+365253301+360855664
5903.88+356874496+353257538+349932131+346869659+344069163+341501889+339117976
5897.12+336889674+334806577+332840478+330927346+328992831+327001973+324921592
5890.37+322679871+320234275+317593109+314743230+311618550+308181530+304455902
5883.62+300458349+296198683+291699063+286985411+282096546+277085867+272014851
5876.87+266942968+261923869+257008829+252259829+247739921+243494906+239560747
5870.12+235979024+232785427+229976966+227550790+225524743+223903276+222670551
5863.37+221804935+221301065+221153806+221351224+221876157+222689880+223739244
5856.62+224968501+226335568+227790311+229256030+230676406+232044135+233346576
5849.87+234530990+235556553+236416852+237123069+237676368+238065248+238276334
5843.12+238286467+238084987+237686660+237118437+236373677+235420568+234275701
5836.37+232975542+231517992+229888355+228099958+226165284+224079357+221846399
5829.62+219491148+217047218+214527844+211937864+209299779+206648778+203992164
5822.87+201319894+198658807+196036445+193448382+190881576+188345726+185857194
5816.12+183418546+181032248+178679781+176362697+174133117+172016451+169990746
5809.37+168064686+166278720+164647018+163191499+161944854+160915035+160080077
5802.62+159411480+158911397+158597574+158486074+158573510+158842697+159290840
5795.87+159916377+160707542+161648088+162734684+163969965+165341083+166818794
5789.11+168387239+170058454+171841317+173741898+175755223+177861779+180066269
5782.36+182389811+184841957+187429369+190161336+193028559+196008696+199094992
5775.61+202297215+205628510+209094375+212679338+216357568+220124637+223984037
5768.86+227923946+231933526+235997349+240097182+244229762+248378317+252516488
5762.11+256643203+260749723+264805993+268805143+272763514+276688932+280571723
5755.36+284399904+288187420+291941048+295636188+299263483+302817754+306285399
5748.61+309662333+312935892+316088915+319118663+322029039+324803337+327419264
5741.86+329882135+332194507+334321670+336229029+337918706+339388852+340613111
5735.11+341565649+342242839+342656135+342810126+342708896+342360614+341786183
5728.36+341016412+340094704+339062477+337945063+336771556+335567014+334358684
5721.61+333164868+331982142+330818288+329695694+328627320+327608033+326619073
5714.86+325627056+324639785+323683162+322730327+321754032+320740176+319678945
5708.11+318575702+317452423+316328071+315189388+314035347+312909604+311857272
5701.36+310876414+309952629+309089615+308305056+307624283+307047753+306570400
5694.61+306186587+305890221+305674593+305535595+305470443+305458759+305495614
5687.86+305577858+305708276+305899806+306145488+306447947+306830893+307314408
5681.11+307898331+308600189+309429225+310370239+311430192+312603607+313888066
5674.35+315293585+316821353+318462879+320216430+322091794+324092807+326239870
5667.60+328546354+331005209+333599593+336328068+339202320+342188618+345251729
5660.85+348388390+351596820+354847993+358101059+361349014+364614152+367928149
5654.10+371295180+374702694+378156190+381677371+385290221+389012654+392859411
5647.35+396823875+400899428+405096019+409416432+413847341+418379754+423009929
5640.60+427717647+432488167+437317790+442212771+447181780+452216101+457306925
5633.85+462446995+467632614+472876242+478190977+483567830+488993243+494462974
5627.10+499958674+505455743+510942041+516414693+521859914+527253151+532594587
5620.35+537882212+543095763+548240305+553319810+558313876+563216935+568026934
5613.60+572728947+577322244+581810386+586164117+590355505+594403308+598323273
5606.85+602099607+605724187+609203036+612529128+615685300+618661511+621456531
5600.10+624073689+626516319+628790490+630899351+632851574+634655284+636304272
5593.35+637802693+639167205+640420080+641600934+642731265+643785011+644749439
5586.60+645666172+646567479+647435651+648250880+649023573+649765732+650494609
5579.85+651238229+651985545+652696668+653374794+654053330+654723605+655369645
5573.10+655985836+656553786+657088463+657605158+658101818+658585378+659062138
5566.35+659550034+660054908+660568089+661099115+661663094+662245329+662819257
5559.59+663391131+663990390+664634011+665305291+665989167+666691664+667411505
5552.84+668144809+668888566+669646653+670414142+671167483+671892481+672586763
5546.09+673255441+673891623+674458705+674936423+675349789+675710576+675997518
5539.34+676196875+676323710+676397556+676396187+676314764+676187884+676025176
5532.59+675817694+675556129+675238152+674860204+674430089+673975738+673510708
5525.84+673033127+672543907+672056467+671566472+671048088+670525870+670056595
5519.09+669645786+669275596+668930007+668587019+668275889+668023178+667804560
5512.34+667610406+667444229+667313332+667218035+667098092+666905626+666713845
5505.59+666576057+666459354+666355568+666289526+666284552+666335714+666414444
5498.84+666495821+666600520+666772083+667030453+667411277+667830803+668088717
5492.09+668273515+668584692+668986784+669366969+669696675+670013830+670381464
5485.34+670802497+671244479+671709144+672218628+672800817+673442384+674119140
5478.59+674840122+675681047+676680481+677552167+678166989+678855384+679688048
5471.84+680545585+681426948+682332819+683253660+684149216+684986490+685878395
5465.09+686863498+687797164+688688932+689701647+690715823+691553005+692417480
5458.34+693451327+694527985+695514046+696469437+697515743+698658534+699855226
5451.59+701140049+702563072+703964187+705223635+706621829+708336631+710005062
5444.83+711421649+712972054+714849747+716862626+718718548+720437869+722281742
5438.08+724253180+726308094+728579207+730815496+732688899+734511321+736531548
5431.33+738687738+740944155+743151098+745086115+746884895+748791067+750846255
5424.58+752987841+755137961+757244996+759350937+761488460+763667699+765867795
5417.83+768070220+770283506+772596289+775151422+777506559+779462799+781631905
5411.08+783982113+786096816+788093037+790145396+792273973+794460515+796690597
5404.33+798907352+801046153+803184498+805388566+807626407+809884877+812218381
5397.58+814644991+816929476+819107072+821543084+823857509+825715257+827617550
5390.83+829692637+831761974+833780284+835814934+837939587+839854020+841420856
5384.08+842974182+844583372+846144001+847690115+849228289+850815024+852560861
5377.33+854144766+855328314+856506567+857762226+858943948+860144656+861364442
5370.58+862537309+863678046+864774329+865817486+866826413+867848302+868849288
5363.83+869734073+870558522+871404695+872260088+873112560+873959555+874784733
5357.08+875626891+876547093+877481808+878226386+878677405+879043989+879583915
5350.33+880315348+880994204+881443945+881905552+882666743+883493108+883865078
5343.58+884027284+884366209+884861317+885569291+886427696+886908472+887020565
5336.83+887214446+887479434+887796087+888252765+888684432+888901407+889057680
5330.07+889376706+889886601+890322467+890392023+890375227+890555050+890809085
5323.32+891040573+891277173+891504919+891714317+891950552+892240095+892536758
5316.57+892786684+892998091+893220725+893466818+893727151+893991226+894258132
5309.82+894606459+895029911+895266420+895249168+895272627+895413838+895554137
5303.07+895662944+895787360+895939616+896008989+895965814+895940529+895982883
5296.32+896043402+896081558+896103009+896161428+896355765+896619476+896640105
5289.57+896464846+896455170+896664112+896983686+897286282+897424847+897502983
5282.82+897702614+897999551+898248382+898374898+898484800+898646549+898823269
5276.07+898993325+899146221+899278395+899388389+899507328+899692171+899895271
5269.32+899963914+899969756+900095450+900331959+900633277+900824510+900850434
5262.57+900967091+901135048+901266492+901500901+901851055+902267021+902820001
5255.82+903429026+903766309+903920209+904232298+904688246+905202613+905847330
5249.07+906514958+906885649+907121610+907595632+908185397+908544679+908761927
5242.32+909089899+909511799+909946022+910345741+910661938+910933589+911225049
5235.57+911540424+911814815+912028777+912259079+912455332+912522150+912568977
5228.82+912711193+912968148+913274669+913393152+913304792+913287540+913389500
5222.07+913520123+913687076+913905237+914108520+914262054+914412485+914584002
5215.31+914789566+915040132+915333782+915672891+916082011+916595010+917094590
5208.56+917500516+917982479+918432858+918660695+918921667+919329236+919758986
5201.81+920173858+920588181+921021948+921505463+921978115+922327903+922616716
5195.06+922957649+923331718+923699945+924062056+924436764+924815854+925153136
5188.31+925453359+925789820+926178311+926479173+926631156+926779578+926988520
5181.56+927195089+927353917+927470848+927559756+927635884+927698046+927733463
5174.81+927764955+927800828+927842270+927897951+927931451+927943318+927982660
5168.06+928056780+928154724+928291828+928479684+928674842+928858226+929092361
5161.31+929403902+929765466+930177051+930649703+931166170+931707648+932272859
5154.56+932860617+933461336+934052653+934626810+935190377+935736785+936264479
5147.81+936760864+937214074+937636156+938032680+938418159+938789033+939109429
5141.06+939395047+939692988+939993940+940279376+940563989+940836463+941079452
5134.31+941311944+941543250+941759129+941952645+942129182+942297412+942450217
5127.56+942569338+942662810+942766596+942888730+943004383+943095937+943168323
5120.81+943240617+943316380+943387488+943458687+943532899+943615599+943706606
5114.06+943789124+943857402+943911988+943954068+943991767+944030836+944075563
5107.31+944112076+944135535+944163649+944191216+944208286+944243337+944329689
5100.55+944459308+944605449+944768841+944963908+945186725+945428163+945693973
5093.80+945970006+946230795+946487842+946760498+947037079+947289379+947514751
5087.05+947742954+947980649+948208303+948425460+948631573+948803911+948946035
5080.30+949094732+949260498+949438860+949622974+949791387+949958066+950163630
5073.55+950400504+950639386+950894881+951193461+951524810+951870582+952225391
5066.80+952575179+952908719+953245910+953611399+953985011+954325671+954631371
5060.05+954927577+955222506+955510040+955782970+956024956+956225773+956395099
5053.30+956535307+956632338+956679713+956700251+956732108+956781309+956823937
5046.55+956849587+956875419+956930553+957024937+957141229+957272947+957421644
5039.80+957569610+957713012+957872845+958039067+958188859+958340294+958512724
5033.05+958695377+958870544+959031746+959194135+959375327+959573955+959778880
5026.30+959974677+960157513+960348473+960562344+960783882+960986799+961165710
5019.55+961346081+961555753+961788975+962011244+962193532+962346062+962496493
5012.80+962639074+962750163+962827660+962889366+962947421+963007392+963085255
5006.05+963186303+963292462+963399900+963511901+963607199+963665527+963695376
4999.30+963717466+963743116+963773604+963802083+963820339+963833758+963861142
4992.55+963919653+964006735+964107144+964209561+964320011+964450725+964583904
4985.79+964696635+964796314+964891155+964969291+965034557+965112146+965207352
4979.04+965315885+965447055+965607070+965803781+966053160+966368627+966755657
4972.29+967210601+967725425+968294196+968918283+969602524+970342812+971124906
4965.54+971936940+972768326+973608384+974456931+975326654+976210435+977078699
4958.79+977928158+978776614+979624704+980464488+981294231+982105717+982895662
4952.04+983677847+984456016+985219215+985972191+986731922+987496581+988248279
4945.29+988973870+989676368+990368642+991046676+991702711+992344689+992983381
4938.54+993628098+994279387+994924925+995556223+996164884+996742691+997298227
4931.79+997848650+998405281+998966201+999508136+1000013193+1000497985
4926.00+1000987889+1001472773+1001927626+1002359475+1002790321+1003221623
4920.22+1003635216+1004024620+1004406539+1004796217+1005186352+1005559599
4914.43+1005905006+1006218555+1006509559+1006782945+1007040266+1007292018
4908.64+1007529348+1007742307+1007944859+1008149875+1008335449+1008465707
4902.86+1008545669+1008606462+1008672276+1008742653+1008791854+1008807919
4897.07+1008806093+1008804450+1008808375+1008814491+1008830739+1008865974
4891.29+1008920651+1009000065+1009105860+1009236300+1009402157+1009609730
4885.50+1009853267+1010134504+1010453621+1010796381+1011158675+1011553190
4879.71+1011980385+1012417620+1012846001+1013273378+1013710157+1014145110
4873.93+1014559525+1014946829+1015328657+1015722351+1016113855+1016490662
4868.14+1016863179+1017255596+1017676948+1018113636+1018562737+1019030095
4862.36+1019509411+1019992013+1020479087+1020980128+1021491483+1021973811
4856.57+1022404748+1022820623+1023249643+1023691169+1024148760+1024614566
4850.78+1025079185+1025550925+1026038821+1026538218+1027030861+1027509081
4845.00+1027986298+1028471729+1028952962+1029397499+1029788820+1030144633
4839.21+1030483376+1030801034+1031077980+1031307551+1031511472+1031711560
4833.42+1031895673+1032053407+1032204933+1032365678+1032522316+1032661976
4827.64+1032786301+1032898302+1033005192+1033109982+1033210756+1033304684
4821.85+1033381543+1033442245+1033500117+1033559358+1033618599+1033671177
4816.07+1033715631+1033774051+1033859855+1033966927+1034086048+1034202431
4810.28+1034311238+1034414933+1034518263+1034614017+1034680104+1034726657
4804.49+1034781608+1034837564+1034874441+1034890415+1034891693+1034885121
4798.71+1034879279+1034863396+1034823324+1034761983+1034698178+1034652994
4792.92+1034624240+1034584807+1034526022+1034476730+1034460848+1034476457
4787.13+1034509592+1034549938+1034607536+1034707488+1034865678+1035073068
4781.35+1035303735+1035549189+1035822027+1036118964+1036414897+1036687918
4775.56+1036927438+1037144687+1037357097+1037569508+1037766127+1037927694
4769.78+1038065254+1038203545+1038353519+1038505867+1038641419+1038756706
4763.99+1038866882+1038989838+1039109416+1039205443+1039296359+1039391747
4758.20+1039475361+1039536884+1039578690+1039606988+1039621501+1039624513
4752.42+1039619493+1039605801+1039578508+1039530677+1039460938+1039367284
4746.63+1039245333+1039092346+1038914075+1038723572+1038524214+1038304684
4740.84+1038055122+1037779180+1037493015+1037206484+1036920684+1036632054
4735.06+1036324985+1036001303+1035674883+1035350653+1035028432+1034701646
4729.27+1034362538+1034006634+1033640324+1033268994+1032872835+1032438977
4723.49+1031975544+1031482536+1030954842+1030403688+1029834096+1029228630
4717.70+1028574420+1027863616+1027085538+1026244020+1025331486+1024331230
4711.91+1023244897+1022074585+1020808702+1019446610+1018004372+1016493492
4706.13+1014917072+1013274382+1011563870+1009776683+1007895567+1005913495
4700.34+1003812392+1001546346+999084593+996440278+993660959+990810532+987967408
4693.59+985213100+982579465+980027070+977466186+974785633+971909556+968813858
4686.84+965499998+961967064+958184843+954099751+949658938+944824979+939580438
4680.09+933895559+927719315+921039017+913943666+906635540+899450277+892846382
4673.34+887285736+883078237+880278745+878714465+878078876+878046472+878365955
4666.59+878869095+879437044+879959262+880338077+880500009+880380249+879949860
4659.84+879205738+878130724+876703731+874914809+872775551+870295085+867454973
4653.09+864264525+860807081+857209155+853617528+850199973+847093321+844333628
4646.34+841888488+839732708+837870944+836337609+835173595+834385020+833901597
4639.59+833594619+833322146+832939953+832330197+831423231+830177886+828539486
4632.83+826431903+823794526+820606542+816907751+812820195+808583213+804546317
4626.08+801054004+798300061+796246242+794655673+793222016+791718712+790060504
4619.33+788250223+786313882+784285257+782215099+780180266+778276969+776579328
4612.58+775117192+773922143+773033524+772466944+772223133+772291137+772626685
4605.83+773158579+773824564+774582742+775376794+776128218+776805157+777433991
4599.08+778034893+778616351+779172069+779668454+780072646+780343020+780396602
4592.33+780143663+779538471+778585133+777374293+776133786+775218057+774979084
4585.58+775579164+776929847+778774998+780802710+782728736+784373525+785702940
4578.83+786770743+787660183+788492299+789416244+790557163+791992828+793735197
4572.08+795709876+797777569+799792776+801652441+803295313+804678675+805783081
4565.33+806612185+807191088+807570634+807804131+807926812+807959308+807905635
4558.58+807758581+807528828+807224588+806824231+806300279+805654193+804908794
4551.83+804072752+803144335+802142984+801115527+800123852+799219350+798422012
4545.08+797720792+797100265+796541079+796015393+795505224+794992682+794447096
4538.33+793845738+793200474+792540970+791876172+791195673+790490620+789768588
4531.58+789038980+788293399+787511761+786685852+785818136+784899759+783925428
4524.83+782902352+781839113+780735984+779590409+778402663+777172380+775900746
4518.07+774580369+773211978+771808444+770367667+768878420+767326463+765709423
4511.32+764040992+762333538+760579349+758766557+756903880+755007840+753090760
4504.57+751148303+749156556+747102098+744987349+742810848+740563834+738243475
4497.82+735843473+733350776+730766661+728102401+725359595+722529158+719608217
4491.07+716610235+713548402+710413407+707188090+703860173+700429565+696914203
4484.32+693313721+689608951+685787935+681848026+677797804+673636676+669350675
4477.57+664931906+660378042+655684746+650861010+645910212+640810899+635558006
4470.82+630161984+624625163+618946901+613123548+607133198+600953987+594600886
4464.07+588086355+581393644+574508147+567424845+560135431+552626624+544889705
4457.32+536908291+528667137+520173364+511420672+502385284+493063639+483461944
4450.57+473572213+463383856+452898015+442122175+431067609+419752436+408192265
4443.82+396387324+384336473+372048155+359539189+346829062+333921563+320823949
4437.07+307571911+294214466+280802001+267386821+254026844+240790003+227745355
4430.32+214950018+202454606+190304487+178531278+167155780+156195473+145660603
4423.57+135547758+125850219+116567505+107702515+99254131+91214810+83584434
4416.82+76374668+69596210+63249116+57331282+51845675+46785924+42134061+37875042
4409.10+34001380+30496316+27322059+24445263+21860401+19566030+17537764+15745024
4401.39+14168591+12798351+11624351+10627142+9784098+9078377+8499717+8034140
4393.67+7657015+7350687+7108996+6922479+6778852+6667097+6577520+6502404+6431807
4384.99+6360693+6292940+6228551+6166998+6115435+6077473+6049985+6036071+6038656
4376.31+6052309+6076889+6114710+6160100+6205893+6255957+6317360+6374729+6404957
4367.63+6405371+6376561+6311109+6204255+6053321+5859650+5629865+5366281+5071786
4358.95+4754545+4420207+4079774+3746875+3420392+3095268+2780899+2492963+2233502
4350.27+1986758+1743599+1516563+1317575+1143378+987039+843802+713267+599254
4341.60+500112+413853+344257+291499+246392+203808+170336+144329+121056+105692
4331.95+95312+87048+88689+104423+123859+134110+133091+130361+135901+150274
4322.31+169263+183636+194571+215235+250944+294956+336343+371718+414174+473046
4312.66+539675+605818+677358+762777+860451+964349+1071046+1176143+1279811
4303.98+1390233+1508280+1628559+1753885+1890878+2038069+2182261+2313444+2441863
4295.31+2573014+2693991+2802715+2905163+2992152+3049837+3081742+3100908+3104721
4286.63+3079877+3023153+2941307+2839138+2714854+2567845+2405732+2234159+2055563
4277.95+1879364+1708158+1537345+1377910+1246920+1139129+1034373+929295+835305
4269.27+751940+672711+606479+555327+503780+454354+422006+402609+383440+361840
4259.62+345234+347293+368540+394536+417156+439331+466685+504060+553155+613212
4249.98+680954+755817+839630+931437+1029555+1141568+1274985+1417931+1561895
4241.30+1714569+1880277+2052793+2219580+2377892+2540052+2709733+2876172+3027446
4232.62+3156120+3276485+3409997+3549107+3680721+3808511+3935668+4059295+4177567
4223.94+4290810+4400882+4509304+4612593+4704280+4778510+4837745+4887806+4923392
4215.26+4936394+4928917+4918754+4919993+4926403+4930941+4934853+4942470+4956306
4206.58+4970361+4979498+4990635+5013148+5046480+5077533+5095678+5111154+5133028
4197.90+5158807+5189501+5220364+5243186+5259659+5273731+5281789+5278571+5268909
4189.22+5260723+5249987+5228456+5196267+5155972+5106762+5042204+4956628+4848978
4180.55+4720375+4581673+4438664+4285529+4127095+3970320+3815632+3670201+3540517
4171.87+3426650+3330362+3251845+3193765+3159836+3145084+3147107+3170235+3210440
4163.19+3258430+3317668+3394148+3482181+3579187+3687194+3804560+3931462+4073154
4154.51+4233144+4404024+4570845+4721804+4861367+5002712+5141840+5267508+5377077
4145.83+5469256+5550216+5632524+5710851+5770565+5815074+5855603+5894861+5929042
4137.15+5955869+5976869+5989385+5993427+5987923+5968736+5945800+5927887+5907894
4128.47+5875849+5832992+5788102+5742512+5697946+5659524+5622688+5577695+5528937
4119.79+5489276+5460363+5437870+5424482+5421792+5421446+5422606+5431000+5445390
4111.11+5470747+5513705+5575107+5650988+5731349+5811160+5894241+5977698+6054529
4102.43+6129457+6206249+6283894+6353621+6404060+6440885+6473090+6503033+6526977
4093.75+6540220+6541145+6529997+6510551+6478971+6427313+6356565+6277152+6189700
4085.07+6089724+5987561+5888395+5784632+5671110+5553603+5438374+5326442+5211790
4076.39+5086744+4959098+4833418+4709001+4592012+4490040+4406829+4337333+4274734
4067.71+4210764+4148343+4093048+4035328+3969727+3901241+3835902+3782290+3755336
4059.03+3767616+3843069+4002383+4236740+4547327+4946358+5425128+5960069+6535699
4050.36+7139942+7763373+8408054+9059758+9702379+10335727+10952614+11544796
4042.64+12121276+12699515+13284263+13880195+14501324+15156734+15839243+16540686
4034.93+17271660+18040566+18838280+19655931+20496612+21347157+22181418+22991182
4027.21+23778954+24557014+25323479+26052496+26730462+27359566+27943590+28490927
4019.50+29011385+29503773+29981326+30469856+30973697+31500910+32077308+32712535
4011.78+33393142+34113424+34889711+35736389+36649052+37644473+38757605+39983904
4004.07+41303320+42706569+44168326+45655898+47143782+48617351+50069578+51493103
3996.35+52897892+54289371+55642872+56957864+58259768+59569974+60888571+62188821
3988.64+63465001+64721756+65953745+67160843+68337059+69489599+70639133+71782472
3980.92+72902368+73983977+74994057+75899648+76694351+77381878+77957506+78408434
3973.21+78732344+78932254+79011401+78979572+78859920+78688386+78481076+78237978
3965.49+77965756+77697111+77468401+77276779+77122903+77031183+77007552+77045759
3957.78+77157772+77354037+77620600+77944967+78327348+78757104+79215813+79720094
3950.06+80249625+80762059+81293929+81838323+82368533+82899867+83443382+84010767
3942.35+84530605+84947302+85305603+85618188+85871481+86102108+86378626+86729144
3934.63+87115103+87507422+87900654+88240436+88518979+88748858+88918053+89057205
3926.92+89191086+89318981+89419099+89495022+89574414+89649179+89691305+89668205
3919.20+89606699+89503916+89299259+89043838+88810713+88572572+88298137+88016986
3911.49+87762278+87546827+87377415+87264461+87192617+87124579+87059182+86994110
3903.77+86934595+86884373+86838413+86824099+86816198+86757299+86661288+86539577
3896.06+86370724+86149203+85903207+85666225+85347911+84918948+84609078+84426933
3888.34+84327945+84323780+84394951+84528951+84757028+85107449+85522235+86062520
3880.63+86799659+87477054+88114850+88851395+89619638+90396791+91334634+92230184
3872.91+92876059+93484919+94262763+95160134+95754241+96183090+96644229+97199388
3865.20+97788708+98192443+98523781+98915342+99276244+99564075+99849339
3858.45+100162695+100488487+100764486+101023598+101368492+101617129+101721783
3851.69+101801768+101890493+101986258+102049413+102084373+102103588+102126488
3844.94+102164643+102186528+102209074+102288911+102406104+102503626+102647382
3838.19+102855982+103033237+103253578+103557338+103827871+104096762+104443732
3831.44+104725436+104884025+105006330+105103373+105150314+105117658+105071002
3824.69+105078693+105168216+105408536+105931370+106535672+107040341+107620955
3817.94+108341846+109468297+110889620+111870033+112743568+113794735+114950111
3811.19+116127440+117272798+118324992+119470190+120944969+122174077+123077609
3804.44+124025275+125054090+126318056+127828525+128899672+129738486
##END=
