##TITLE=Ρμερό_4_2,1μμ
##JCAMP-DX=4.24
##DATA TYPE=INFRARED SPECTRUM
##DATE=7/4/2017
##SAMPLING PROCEDURE=Instrument type and / or accessory
##ORIGIN=Default
##XUNITS=1/CM
##YUNITS=TRANSMITTANCE
##RESOLUTION=2
##FIRSTX=7998.4873
##LASTX=3799.619
##DELTAX=-0.96437031
##MAXY=0.6897341
##MINY=7.0523172e-005
##XFACTOR=1
##YFACTOR=6.4236494e-010
##NPOINTS=4355
##FIRSTY=0.34209943
##XYDATA=(X++(Y..Y))
7998.49+532562422+533034256+533499688+533921833+534336555+534806905+535389622
7991.74+536051999+536583636+536888820+537179807+537620650+538117305+538526367
7984.99+538890751+539374091+540006125+540618303+541066105+541393605+541692526
7978.24+542015990+542413685+542852301+543299360+543790169+544322224+544818229
7971.48+545220842+545607542+546066154+546545364+547010378+547554681+548107705
7964.73+548423792+548594618+548909267+549336144+549715606+550067324+550486222
7957.98+550952164+551386697+551803275+552307678+552946254+553511017+553863431
7951.23+554203225+554665688+555166379+555566858+555899276+556367631+556858718
7944.48+557076495+557166733+557497295+558081450+558682122+559158550+559461275
7937.73+559670097+559953847+560337439+560749887+561186322+561652542+562080673
7930.98+562443433+562823034+563248334+563667742+564127421+564857488+565746178
7924.23+566139095+565978755+566025938+566566158+567177640+567584568+567964818
7917.48+568461984+568970284+569499276+569985029+570220018+570404298+570805009
7910.73+571226968+571506357+571900480+572558171+573088091+573241519+573353005
7903.98+573690805+574376240+575600967+576836179+577084855+576712259+576944604
7897.23+577810096+578465746+578500171+578228948+578214565+578544710+579035427
7890.48+579664771+580271474+580934732+582251275+583702176+583762442+582685714
7883.73+582069361+582303329+582824017+583281886+583647616+584073101+584583628
7876.98+584948337+585100976+585295926+585675388+586148475+586623371+587126336
7870.23+587797621+588481757+588915825+589714696+591338092+592439920+592005526
7863.48+591356836+591586721+592151855+592673424+593002873+592848564+592627030
7856.72+592758187+593027184+593329352+593808192+594828829+596468463+597723115
7849.97+597914122+597754246+597669204+597383645+597090987+597128474+597451474
7843.22+598219167+599777240+601297176+601319724+600327945+599910950+600666533
7836.47+602376131+603944921+604340343+603850369+603116127+602600867+602619240
7829.72+602962143+603285143+603549731+603846472+604187380+604528938+604863304
7822.97+605212053+605590819+605972462+606311700+606616189+606931672+607316006
7816.22+607779303+608503942+609915454+611592344+612372331+612669721+613967752
7809.47+615503741+615259983+613943488+614104941+616104413+617493052+616560890
7802.72+614799330+614639501+616577360+618657002+618762782+617541396+616596243
7795.97+616070267+615817555+615857872+616030367+616335598+616927130+617841430
7789.22+618673612+619050708+619385909+620200461+621747306+623866430+625011962
7782.47+623973556+622084410+621089615+621023735+621249955+621560011+621978027
7775.72+622631914+624038508+626596990+629013364+629119005+627267625+625863351
7768.97+625990518+626792265+627030641+626678598+626784795+628043019+630252195
7762.22+632409085+633027851+631623390+629666694+628656357+628543618+628794938
7755.47+629221398+629706733+630108094+630577144+631771111+634076185+636323637
7748.72+636630073+635097935+633603006+633317353+634195790+635609019+637252969
7741.96+639268447+640915597+641167381+640064440+638349785+636980353+636412714
7735.21+636502163+637214461+638675708+640879317+642929405+643440768+642445880
7728.46+641309164+640874816+641273625+642606637+643855165+643484332+642139443
7721.71+641434893+641533714+641903990+642325857+642935483+644190877+645896439
7714.96+646695077+646220784+645932302+646968434+649293551+651970478+653546041
7708.21+653347797+652436512+652515755+653309104+652903429+651149245+649746827
7701.46+649621700+650210170+650445484+650047279+649623974+649580873+649838363
7694.71+650256797+650701397+651077890+651554503+652448529+654051372+655982227
7687.96+656673879+655613899+654500751+654791507+656499017+658453347+659461550
7681.21+659577908+659162072+658858326+659872932+661911793+662924403+661936150
7674.46+660222145+659438028+660324770+662216699+663054030+661983380+660561104
7667.71+660092471+660682055+662414758+664566172+665204517+663977841+662738221
7660.96+662473772+662670810+662989263+663536257+664272076+665295729+666718886
7654.21+667557145+667108323+666375287+666203534+666504774+667010337+667557887
7647.46+668191036+669253845+671158904+673276219+674509436+674754261+674181797
7640.71+672957533+671810982+671355989+671388233+671562352+672213316+673921105
7633.96+676335624+677774416+677090419+675297171+673987356+673572681+673665702
7627.20+673941797+674271709+674578471+674861804+675172509+675532485+675916958
7620.45+676300271+676727566+677303092+678273020+680076891+682369346+683477715
7613.70+682612732+681123648+680329093+680258759+680537916+681208597+682505700
7606.95+683950338+685066269+686387683+687772564+687986351+686906886+685573317
7600.20+684743362+684547252+684861483+685594009+686445027+687434765+688709644
7593.45+689251673+688465515+687478468+687103507+687170918+687464318+687832042
7586.70+688150310+688421858+688728481+689083354+689439062+689809291+690193950
7579.95+690548637+690867740+691166568+691477830+691855297+692312702+692839700
7573.20+693434619+694199760+695186621+695888991+695772586+695275050+695138093
7566.45+695439194+695895254+696289794+696595907+697105135+698280080+699920689
7559.70+700756026+700258118+699591519+699471449+699490703+699531902+699772737
7552.95+700116428+700451584+700827845+701260707+701679744+702019585+702305052
7546.20+702657930+703147811+703683948+704297193+705400644+706911951+707719729
7539.45+707310435+706577631+706279082+706365700+706690834+707323148+708403912
7532.70+709514926+709799650+709359132+709016322+709035854+709272606+709627943
7525.95+709985414+710260859+710552960+711099490+712149587+713497028+714312693
7519.20+714214569+713734708+713458428+713666415+714461620+715366131+715601399
7512.44+715296910+715169510+715465184+716076573+716794160+717591824+718654401
7505.69+719651284+719954984+719672625+719466633+719813248+720728801+721597959
7498.94+721713249+721237101+720968476+721164029+721393915+721547435+721993334
7492.19+722914037+724036835+724862660+725103820+724768897+724172307+723819661
7485.44+723979213+724582854+725239524+725499659+725404968+725354769+725653040
7478.69+726323675+726967402+727265998+727639893+728328112+728832839+729114873
7471.94+729550426+729984124+730062716+729799890+729588655+729867348+730616159
7465.19+731249864+731313796+731071847+730983605+731100380+731247869+731420596
7458.44+731747771+732166994+732586959+733115951+733668790+733931013+733961726
7451.69+734126752+734415513+734529922+734504126+734703113+735294646+735970384
7444.94+736276775+736126642+735866692+735877038+736223189+736737706+737175486
7438.19+737290267+737142453+737122967+737354245+737577079+737699190+737880732
7431.44+738205077+738524690+738679649+738828483+739243483+739896860+740464406
7424.69+740659635+740546756+740415877+740477072+740787127+741122886+741156522
7417.94+740947050+740738691+740636391+740674527+740760682+740827352+740949741
7411.19+741087440+741121308+741103864+741179116+741365252+741599406+741860422
7404.44+741999745+741788510+741381304+741128221+741054500+740988295+740817330
7397.68+740588001+740426873+740361410+740297617+740096218+739776001+739491602
7390.93+739263201+739000700+738723074+738441087+738136181+737857395+737607653
7384.18+737385190+737130298+736646819+735891931+735142935+734661404+734428781
7377.43+734155563+733391860+732261036+731347524+730653228+729962597+729334227
7370.68+728818318+728168375+727240991+726346687+725639771+724947006+724192211
7363.93+723509513+722916403+722243541+721498442+720780113+720010286+719256604
7357.18+718679640+718054703+717240152+716576337+716166022+715708663+715109661
7350.43+714561415+713966032+713135428+712281487+711726236+711491757+711301585
7343.68+711063534+711000252+711049291+710745498+710138841+709781834+709658471
7336.93+709558815+709495997+709474052+709488295+709604050+709858200+710144733
7330.18+710439154+710758674+710789805+710566136+710600747+710944021+711175299
7323.43+711085154+710957661+710964017+710982946+710938407+710900596+710909968
7316.68+710815925+710594159+710526747+710596803+710436092+709932199+709315892
7309.93+708887066+708779709+708670357+708090145+707374739+707030768+706885878
7303.18+706583987+706152424+705765817+705309201+704655731+703995488+703498833
7296.43+703230765+702963949+702272204+701342408+700569148+699946485+699398888
7289.68+698892954+698294138+697570752+696929020+696407405+695812161+695107890
7282.92+694427094+693799791+693190351+692585318+691946184+691315216+690734216
7276.17+690122131+689497751+688872211+688122983+687292890+686524269+685888198
7269.42+685329698+684620463+683718086+682840716+682099561+681480145+680874555
7262.67+680093918+679187366+678377036+677688075+677035163+676362301+675672829
7255.92+675045016+674454644+673772131+672998964+672260268+671613665+671042361
7249.17+670535684+670084125+669656227+669277321+669082278+668951816+668379491
7242.42+667506343+666882334+666420058+665909855+665390049+664908704+664438540
7235.67+664001502+663687364+663362184+662724767+661879966+661181262+660708129
7228.92+660367731+660123602+659856044+659423924+658963039+658628162+658432052
7222.17+658335365+658207966+657926164+657561409+657267731+657049119+656773024
7215.42+656433879+656111529+655696203+655172547+654739452+654406895+654046965
7208.67+653677942+653411682+653193767+652807716+652248428+651660005+651099742
7201.92+650630738+650227661+649804171+649406104+649094332+648812948+648455894
7195.17+648005077+647578617+647256406+647023041+646827116+646596998+646358808
7188.42+646220923+646167059+646126139+646180467+646415363+646749080+647036078
7181.67+647161436+647262762+647601768+648149597+648738856+649361797+650040366
7174.92+650731276+651441393+652234510+653150620+654206655+655364249+656426781
7168.16+657356716+658402730+659546220+660643826+661844149+663287720+664838695
7161.41+666155608+667254373+668471399+669846538+671218011+672537708+673885195
7154.66+675268128+676614177+677913507+679207733+680518059+681795212+683016134
7147.91+684255151+685576193+686834788+687883401+688895455+689955249+691014069
7141.16+692130974+693167200+693894947+694569247+695466938+696378083+697071081
7134.41+697646050+698237722+698850688+699437906+699963929+700425788+700851320
7127.66+701225030+701573546+701971335+702366896+702690916+702976104+703238002
7120.91+703476657+703842618+704291208+704378245+704172855+704143441+704274877
7114.16+704363723+704374394+704378755+704432248+704468065+704398612+704276501
7107.41+704148405+703939629+703626094+703284351+702977960+702694117+702361282
7100.66+701962520+701564917+701194873+700812813+700404632+699925793+699325677
7093.91+698712386+698173465+697647906+697119239+696607041+696077446+695547572
7087.16+695056206+694593558+694149839+693728065+693369063+693130873+692959166
7080.41+692774701+692634728+692622155+692730904+692931468+693226446+693596304
7073.66+694063360+694690477+695406022+696151585+696989565+697916810+698906919
7066.91+699986987+701162861+702406795+703722966+705132483+706597210+708060962
7060.16+709527823+711036161+712604302+714213873+715823351+717410235+718976195
7053.40+720528886+722058148+723558413+725063642+726581444+728077116+729491319
7046.65+730807629+732098608+733408980+734719815+735969132+737105013+738180256
7039.90+739260232+740317335+741304196+742247725+743188656+744084120+744899321
7033.15+745685247+746465095+747211493+747935575+748640264+749288026+749878863
7026.40+750463065+751094218+751770699+752367196+752813095+753251757+753775321
7019.65+754313778+754808438+755242043+755614267+755947659+756265046+756582292
7012.90+756915499+757265640+757610538+757926718+758216592+758476495+758676178
7006.15+758853173+759080693+759317631+759484141+759579853+759647590+759730636
6999.40+759841148+759924566+759973002+760054610+760152225+760194861+760209105
6992.65+760273825+760381043+760447573+760465853+760491231+760543564+760634729
6985.90+760725895+760744314+760732947+760780177+760872549+760965570+761077660
6979.15+761232571+761426733+761659635+761921950+762210432+762546794+762932334
6972.40+763312956+763672932+764102918+764628848+765173476+765709798+766282448
6965.65+766937170+767634760+768287998+768915578+769584683+770291274+770989653
6958.90+771668964+772406408+773248843+774071652+774778522+775488500+776292149
6952.15+777123542+777942361+778749629+779538432+780328440+781110376+781873476
6945.39+782639824+783407470+784164910+784914184+785681552+786458478+787211371
6938.64+787937262+788603304+789226478+789888252+790574800+791247431+791930639
6931.89+792604290+793190162+793700967+794252044+794874846+795476585+796021444
6925.14+796542549+797053912+797596266+798191788+798798909+799409463+800053607
6918.39+800682162+801216258+801717228+802288717+802936666+803609296+804250007
6911.64+804858427+805458495+806044832+806645643+807325603+808098446+808898662
6904.89+809635038+810291523+810950606+811690880+812508076+813330561+814129385
6898.14+814941570+815768324+816614563+817494577+818321980+819055666+819796589
6891.39+820585948+821378741+822179977+823001348+823801750+824554364+825294174
6884.64+826068965+826857118+827608341+828334882+829059103+829764395+830458181
6877.89+831154659+831827010+832467257+833100452+833749421+834410267+835050885
6871.14+835666264+836271900+836852019+837391033+837918726+838468503+839006682
6864.39+839476753+839907759+840378944+840890213+841357315+841746102+842109373
6857.64+842486654+842863287+843218206+843548258+843865319+844182659+844489606
6850.89+844762685+845006628+845245376+845486442+845761563+846071758+846336857
6844.14+846526611+846703932+846936926+847204067+847436040+847653909+847891821
6837.39+848137713+848401885+848670139+848922526+849205626+849538091+849887999
6830.63+850257487+850643212+851029494+851437768+851902550+852411592+852908201
6823.88+853380592+853855302+854347271+854882202+855443764+855982220+856516687
6817.13+857066743+857594993+858127604+858714960+859311874+859858775+860377097
6810.38+860916296+861464495+862017984+862602557+863170985+863680955+864182203
6803.63+864736620+865336689+865937222+866521702+867083635+867633412+868180498
6796.88+868722945+869291094+869884946+870461354+871015863+871573156+872148265
6790.13+872742673+873330216+873885375+874428285+874993465+875573677+876136352
6783.38+876692161+877259939+877808324+878327944+878856287+879409126+879969760
6776.63+880514805+881045560+881579563+882116442+882636434+883117454+883560987
6769.88+884017882+884545575+885122447+885652274+886098313+886544073+887044393
6763.13+887534785+887965328+888385014+888845342+889334899+889819631+890295269
6756.38+890788630+891291085+891737866+892113384+892499295+892944499+893410487
6749.63+893864877+894296347+894713621+895147319+895573872+895969711+896396357
6742.88+896885635+897377233+897818911+898215307+898606971+899034451+899484851
6736.13+899931818+900365144+900753560+901110892+901498752+901917510+902337568
6729.38+902757161+903161909+903528612+903883068+904284753+904745174+905203646
6722.63+905608765+905970550+906324913+906685493+907062032+907469470+907879135
6715.87+908234982+908539146+908848042+909201291+909606966+910051613+910499971
6709.12+910938587+911363562+911767103+912159138+912525935+912880947+913282539
6702.37+913741568+914234651+914728476+915175628+915563952+915942440+916360177
6695.62+916811876+917273874+917745616+918206779+918628507+919037058+919452291
6688.87+919868729+920294354+920723134+921158131+921626160+922123047+922609078
6682.12+923072747+923543374+924026622+924516550+925007034+925499096+926012778
6675.37+926532492+927038472+927569691+928130046+928642337+929084107+929546198
6668.62+930100429+930717478+931324692+931876510+932375996+932866016+933386008
6661.87+933950260+934542535+935105674+935619263+936130532+936661752+937219137
6655.12+937801762+938364622+938907162+939469558+940033810+940575051+941099589
6648.37+941629788+942196267+942780098+943328297+943832236+944326897+944849394
6641.62+945389706+945897635+946390996+946895492+947371966+947846027+948366390
6634.87+948908743+949442654+949950304+950418612+950872260+951362930+951865848
6628.12+952312536+952731388+953181323+953672457+954191985+954685439+955110878
6621.37+955544483+956046845+956536216+956963790+957381527+957832298+958306730
6614.62+958775317+959227758+959680570+960170683+960697634+961199718+961662922
6607.87+962133272+962618189+963091229+963536525+963931808+964306492+964740746
6601.11+965234478+965720509+966161908+966565171+966982445+967450938+967923514
6594.36+968366491+968813086+969277033+969742929+970178204+970560125+970943623
6587.61+971393002+971885714+972362373+972798205+973215757+973649826+974090389
6580.86+974511746+974938670+975388977+975837985+976272332+976699905+977126736
6574.11+977537515+977918879+978289480+978687268+979119017+979551323+979980567
6567.36+980429018+980879232+981288526+981669704+982081689+982505644+982898607
6560.61+983300292+983729907+984167131+984607973+985027659+985420158+985818132
6553.86+986233179+986659825+987086841+987480454+987828136+988173405+988557367
6547.11+988993014+989469580+989929351+990326397+990700153+991087919+991471325
6540.36+991853803+992236559+992611057+993008845+993427882+993822515+994197755
6533.61+994579584+994963825+995346766+995748544+996161921+996542172+996875750
6526.86+997215452+997602291+997985511+998329759+998684493+999073837+999488420
6520.11+999915437+1000306637+1000627224+1000936863+1001301803+1001693467
6514.32+1002073069+1002446453+1002803970+1003133094+1003478085+1003866502
6508.54+1004244340+1004597218+1004963922+1005345472+1005736950+1006120263
6502.75+1006474440+1006823699+1007202187+1007597470+1007954431+1008276410
6496.96+1008629659+1009008889+1009380232+1009763360+1010170983+1010584453
6491.18+1010992726+1011385411+1011738474+1012090888+1012511688+1012959490
6485.39+1013371939+1013770840+1014169649+1014563354+1014977380+1015411078
6479.60+1015845518+1016277360+1016682107+1017051873+1017440567+1017871574
6473.82+1018308612+1018731732+1019138056+1019521462+1019886959+1020246333
6468.03+1020624913+1021042187+1021460203+1021838506+1022192033+1022552984
6462.25+1022934719+1023312558+1023677220+1024048841+1024405245+1024724719
6456.46+1025055235+1025438548+1025830026+1026175203+1026495605+1026818512
6450.67+1027149491+1027497730+1027838545+1028155792+1028476565+1028809401
6444.89+1029137040+1029453544+1029762533+1030061593+1030346457+1030631506
6439.10+1030929731+1031226007+1031507345+1031771423+1032043111+1032368801
6433.31+1032722143+1033038462+1033310057+1033577754+1033882938+1034209371
6427.53+1034504349+1034780954+1035089757+1035407468+1035688898+1035951956
6421.74+1036231994+1036542468+1036874468+1037175477+1037423410+1037682663
6415.96+1037988405+1038301661+1038587267+1038837706+1039080350+1039341088
6410.17+1039608878+1039885947+1040172667+1040462633+1040754734+1041027721
6404.38+1041273613+1041518391+1041795089+1042112057+1042436356+1042729478
6398.60+1042979916+1043197786+1043420388+1043698385+1044001991+1044237769
6392.81+1044410265+1044615329+1044899636+1045226904+1045540161+1045807487
6387.02+1046058019+1046332026+1046597496+1046839120+1047090393+1047353173
6381.24+1047608993+1047844492+1048066909+1048294892+1048540506+1048828060
6375.45+1049132131+1049382105+1049594964+1049836959+1050092222+1050309350
6369.67+1050507084+1050743697+1051001837+1051225274+1051451494+1051724109
6363.88+1051995147+1052212924+1052377718+1052521077+1052687077+1052913205
6358.09+1053187491+1053440991+1053632787+1053794148+1053981489+1054206596
6352.31+1054422332+1054615426+1054828378+1055077332+1055321646+1055508803
6346.52+1055655317+1055829854+1056051528+1056293337+1056516031+1056708662
6340.73+1056897117+1057095872+1057306226+1057508970+1057682672+1057845425
6334.95+1058043623+1058285525+1058520282+1058728223+1058925400+1059115897
6329.16+1059303053+1059489931+1059666880+1059824622+1059986632+1060189099
6323.38+1060414391+1060614631+1060789353+1060964818+1061144366+1061334305
6317.59+1061532689+1061714371+1061881763+1062057784+1062243177+1062433581
6311.80+1062616191+1062768458+1062915065+1063102129+1063319720+1063533507
6306.02+1063738942+1063938254+1064131070+1064326113+1064509836+1064657464
6300.23+1064781802+1064919687+1065093482+1065278596+1065451463+1065630732
6294.44+1065802671+1065936937+1066069997+1066232471+1066402369+1066582380
6288.66+1066771856+1066944166+1067106083+1067284610+1067481416+1067655304
6282.87+1067800705+1067961323+1068112662+1068240062+1068381102+1068511007
6277.09+1068626808+1068775643+1068927260+1069041855+1069160718+1069301202
6271.30+1069443448+1069592282+1069729610+1069831586+1069924375+1070039434
6265.51+1070170453+1070285419+1070365496+1070441212+1070551167+1070682557
6259.73+1070791306+1070869992+1070948491+1071030796+1071119595+1071246067
6253.94+1071407057+1071564984+1071683662+1071738593+1071754646+1071801133
6248.16+1071916192+1072057510+1072166538+1072250326+1072350075+1072464020
6242.37+1072550222+1072600328+1072656280+1072738399+1072808733+1072846777
6236.58+1072875634+1072915162+1072968887+1073020757+1073069193+1073129506
6230.80+1073193067+1073247163+1073303672+1073375769+1073447031+1073497880
6225.01+1073536016+1073579070+1073621475+1073639569+1073643745+1073651446
6219.22+1073664251+1073679283+1073690418+1073707677+1073723915+1073718162
6213.44+1073699975+1073682995+1073677334+1073702109+1073741823+1073740524
6207.65+1073686242+1073630661+1073620362+1073641703+1073634837+1073582504
6201.87+1073515974+1073444990+1073375027+1073312579+1073250967+1073192788
6196.08+1073119206+1073002848+1072882779+1072790453+1072707778+1072611463
6190.29+1072487125+1072342838+1072188343+1072040530+1071917120+1071781647
6184.51+1071601729+1071389612+1071153092+1070899499+1070656391+1070430912
6178.72+1070180752+1069877609+1069557393+1069259725+1068966974+1068633582
6172.93+1068264651+1067889690+1067482344+1067018304+1066542202+1066091895
6167.15+1065644094+1065173002+1064674723+1064126431+1063528960+1062934087
6161.36+1062344782+1061699153+1060979479+1060246164+1059563049+1058914637
6155.58+1058241728+1057542746+1056861115+1056197764+1055532185+1054866978
6149.79+1054194627+1053508635+1052851036+1052245400+1051653961+1051061593
6144.00+1050492145+1049952018+1049434253+1048942655+1048494760+1048092519
6138.22+1047686379+1047223917+1046737515+1046301869+1045882554+1045385481
6132.43+1044819373+1044245935+1043690498+1043140256+1042560230+1041954594
6126.64+1041369557+1040816532+1040288560+1039781374+1039271403+1038768114
6120.86+1038321890+1037956671+1037650651+1037373211+1037148289+1036991197
6115.07+1036841713+1036675899+1036542468+1036444296+1036335176+1036226705
6109.29+1036160175+1036109976+1036031198+1035923284+1035786698+1035624873
6103.50+1035462121+1035304750+1035131698+1034904549+1034612727+1034321461
6097.71+1034079837+1033853060+1033609766+1033388835+1033233784+1033150830
6091.93+1033121416+1033113900+1033119838+1033136541+1033176626+1033249465
6086.14+1033296138+1033323418+1033396722+1033466500+1033489975+1033527648
6080.35+1033590281+1033634634+1033678431+1033765189+1033901311+1034064898
6074.57+1034234146+1034404415+1034583962+1034772046+1034953913+1035101170
6068.78+1035191825+1035227642+1035221425+1035185980+1035124275+1035025918
6063.00+1034872630+1034651698+1034393466+1034120479+1033800170+1033419641
6057.21+1033008677+1032571917+1032086536+1031542233+1030955712+1030349612
6051.42+1029731541+1029086284+1028393240+1027662802+1026907033+1026096889
6045.64+1025210286+1024260865+1023259297+1022199271+1021079581+1019917673
6039.85+1018715493+1017454857+1016157661+1014856847+1013534042+1012162429
6034.06+1010728648+1009233068+1007695827+1006116830+1004493572+1002846097
6028.28+1001168743+999431912+997649428+995850984+994013569+992089302+990077907
6021.53+988017983+985925582+983783632+981552790+979215425+976806427+974342684
6014.78+971800719+969163366+966428121+963586724+960631383+957573973+954433794
6008.03+951235623+948015646+944817938+941669223+938571821+935525824+932491611
6001.28+929411375+926247071+922931336+919389936+915603016+911580782+907346339
5994.53+902950163+898437723+893816997+889080378+884248278+879387321+874570624
5987.78+869889214+865499441+861559976+858142079+855251040+852841300+850804851
5981.02+849032296+847437525+845925800+844403683+842779405+840970754+838926326
5974.27+836621902+834052749+831243272+828264269+825199251+822120035+819080812
5967.52+816087890+813132270+810213580+807331264+804489682+801651626+798734791
5960.77+795695382+792506119+789131554+785586722+781908365+778119636+774265350
5954.02+770381743+766475635+762544892+758572532+754561989+750519573+746398055
5947.27+742161477+737784045+733212173+728434866+723457040+718218152+712633669
5940.52+706629965+700134476+693091808+685468001+677256605+668502112+659262702
5933.77+649597157+639603509+629362716+618896770+608218568+597328760+586201365
5927.02+574826222+563228153+551436200+539457276+527307296+515052788+502793269
5920.27+490619117+478613099+466872180+455506270+444625787+434320088+424610700
5913.52+415448538+406799779+398675326+391060009+383911956+377222166+370985606
5906.77+365171122+359760202+354743057+350092314+345782503+341799681+338132389
5900.02+334764158+331677311+328859228+326275136+323874675+321633394+319527910
5893.27+317513244+315534162+313528404+311443125+309245084+306904518+304379580
5886.52+301618794+298584187+295261260+291653284+287766523+283600163+279180628
5879.77+274563498+269805189+264960725+260069287+255175134+250347743+245650188
5873.02+241132621+236854497+232864670+229192484+225857819+222857915+220211353
5866.26+217962626+216117950+214659533+213586516+212901336+212593183+212670778
5859.51+213136418+213933966+214980074+216216863+217626589+219175731+220794581
5852.76+222412897+223978231+225465738+226859480+228130417+229252982+230229104
5846.01+231050545+231684946+232120569+232363491+232414966+232269867+231935315
5839.26+231411727+230685558+229768659+228673907+227387174+225902752+224242101
5832.51+222427558+220474481+218387972+216170886+213836491+211392836+208867805
5825.76+206297748+203705166+201103468+198491076+195885388+193313834+190783224
5819.01+188282806+185802696+183340519+180904995+178517849+176179765+173890906
5812.26+171664854+169506956+167437312+165485209+163665482+161993394+160488988
5805.51+159152427+157997883+157062995+156347322+155830439+155520731+155430192
5798.76+155541632+155852303+156384183+157126695+158055726+159160314+160414884
5792.01+161798037+163320642+164985155+166771966+168665240+170650109+172705696
5785.26+174824738+177034692+179363067+181802767+184331138+186957228+189718420
5778.51+192614145+195618317+198720544+201924237+205238372+208670025+212224809
5771.76+215894722+219670484+223546575+227489520+231473850+235511557+239594104
5765.01+243682961+247760729+251826922+255863075+259842208+263753280+267603901
5758.26+271412394+275184143+278889803+282502024+286050569+289570719+293042272
5751.50+296436507+299743103+302966792+306120216+309186858+312134614+314953533
5744.75+317638834+320179964+322579010+324838153+326947488+328888665+330636701
5738.00+332166079+333447500+334469784+335243183+335772384+336056877+336100975
5731.25+335906674+335469798+334809184+333964824+332976084+331868225+330669711
5724.50+329423990+328153147+326867179+325575968+324299975+323061098+321856367
5717.75+320686826+319562567+318486558+317439198+316403970+315379923+314353023
5711.00+313303900+312214947+311097345+309968818+308826905+307676178+306534427
5704.25+305422045+304350931+303348156+302444179+301662243+301011116+300479410
5697.50+300066776+299771427+299594524+299537459+299594547+299751245+299994469
5690.75+300326539+300727877+301176537+301673215+302223502+302826309+303488964
5684.00+304219588+305012194+305887801+306868121+307961876+309171223+310488786
5677.25+311908881+313416894+315016421+316704120+318466887+320318475+322278094
5670.50+324340222+326492518+328752821+331134655+333645745+336285486+339034673
5663.75+341882542+344809931+347790651+350808903+353861025+356938570+360017368
5657.00+363070417+366109037+369182964+372306394+375478932+378724473+382063522
5650.25+385503526+389068934+392789742+396649038+400642136+404792884+409095295
5643.50+413527009+418072343+422714967+427437853+432232606+437094676+442030143
5636.74+447031398+452082063+457195733+462380432+467633703+472958885+478353567
5629.99+483803969+489295476+494819460+500362976+505911271+511452328+516975152
5623.24+522462948+527894838+533257507+538543718+543761080+548919241+554000202
5616.49+558982018+563864641+568652249+573339736+577919959+582388371+586726970
5609.74+590913720+594953909+598863450+602628194+606216637+609634534+612911670
5602.99+616034960+618966687+621703835+624260089+626641807+628856458+630898056
5596.24+632763308+634465390+636011447+637404215+638661419+639814837+640892307
5589.49+641908676+642874335+643796244+644674495+645514935+646327213+647105020
5582.74+647854666+648592388+649317583+650036747+650757674+651470436+652177073
5575.99+652893129+653598699+654276433+654926933+655524868+656070980+656590368
5569.24+657091756+657572869+658039274+658516258+659014862+659532580+660066537
5562.49+660609494+661158529+661727049+662323314+662931316+663551242+664196407
5555.74+664869501+665566395+666276188+666989321+667698603+668418648+669158087
5548.99+669896041+670615947+671302774+671941026+672526944+673047122+673477989
5542.24+673817459+674070264+674234176+674316666+674340698+674308176+674179755
5535.49+673970979+673724391+673413872+673024203+672595377+672141915+671629300
5528.73+671052846+670435101+669789890+669155071+668551151+667959805+667361870
5521.98+666753960+666169062+665649627+665196444+664799213+664444247+664093874
5515.23+663775792+663533426+663346038+663191498+663064237+662973489+662916284
5508.48+662818020+662630447+662440182+662309117+662205100+662104470+662018918
5501.73+661990014+662035110+662119687+662211039+662344423+662566839+662866549
5494.98+663264244+663699473+663980810+664190236+664534902+664977832+665396544
5488.23+665762042+666106986+666480464+666892680+667333708+667815424+668346272
5481.48+668937387+669585567+670278240+671022040+671898621+672951038+673871231
5474.73+674499971+675177380+676003113+676871622+677769127+678669648+679562838
5467.98+680428517+681224882+682060960+682991777+683866595+684695251+685647363
5461.23+686583097+687330145+688115514+689078807+690090629+691011378+691894547
5454.48+692869439+693951688+695100281+696338741+697705668+699059140+700298017
5447.73+701679558+703362618+705012970+706451809+708053029+709997848+712067701
5440.98+713946871+715688203+717592427+719649892+721778156+724110463+726405330
5434.23+728316235+730156387+732193671+734369350+736638468+738854649+740807077
5427.48+742623708+744539715+746595464+748724470+750864982+752987353+755121602
5420.73+757283409+759482146+761700879+763927082+766163353+768483598+771038646
5413.97+773409415+775387313+777561600+779912837+782043281+784053470+786100775
5407.22+788211177+790380221+792606610+794842834+797012249+799170159+801379196
5400.47+803621451+805893956+808247373+810690332+812985013+815162038+817583284
5393.72+819882976+821738299+823631481+825667187+827679418+829657966+831672052
5386.97+833766865+835625808+837123985+838603048+840130732+841606454+843070764
5380.22+844524495+846018589+847674787+849199409+850357885+851509958+852705456
5373.47+853799165+854919504+856069721+857159346+858208516+859222147+860189569
5366.72+861127484+862079503+863003407+863813737+864582311+865377795+866171051
5359.97+866963101+867769348+868567615+869375439+870254062+871160614+871888825
5353.22+872319090+872656379+873149648+873827103+874479783+874939647+875423822
5346.47+876208171+877064988+877482819+877691873+878059505+878572908+879310027
5339.72+880219920+880758470+880907489+881124802+881405675+881735820+882220181
5332.97+882683664+882916287+883081452+883412524+883928990+884348398+884380503
5326.22+884344130+884524698+884761032+884951993+885152696+885357297+885545659
5319.47+885751466+885996894+886235177+886420199+886577756+886751921+886945109
5312.72+887155462+887365445+887566334+887853981+888222911+888393551+888306329
5305.97+888275801+888374993+888466947+888520951+888602049+888724345+888760440
5299.21+888680548+888615503+888597688+888592213+888597131+888606874+888633690
5292.46+888772503+888977103+888957154+888777142+888766843+888943421+889214644
5285.71+889476960+889586822+889641104+889807754+890076379+890321714+890447444
5278.96+890537078+890663643+890796146+890915102+891010304+891084907+891147540
5272.21+891222142+891354924+891496335+891487984+891411804+891465343+891635705
5265.46+891876586+892031730+892035627+892110693+892232712+892347399+892582064
5258.71+892927611+893337184+893886033+894493618+894842042+895022239+895369642
5251.96+895862075+896399326+897044769+897711739+898105444+898373698+898877173
5245.21+899495151+899873175+900104220+900464985+900931809+901395663+901809318
5238.46+902131854+902402799+902693322+903001847+903257760+903455587+903671879
5231.71+903841962+903884088+903927328+904074678+904321962+904603670+904690150
5224.96+904573792+904547904+904641343+904737936+904857727+905034955+905209770
5218.21+905337727+905460673+905617487+905823294+906073268+906357482+906688647
5211.46+907098127+907620810+908143771+908577283+909078531+909542942+909787998
5204.71+910069800+910494589+910930700+911343798+911758288+912195604+912676532
5197.96+913127303+913442230+913702875+914022720+914371887+914707135+915039042
5191.21+915401199+915770779+916077727+916337908+916646804+917016569+917297072
5184.45+917434307+917572656+917751833+917895099+917978795+918033263+918062955
5177.70+918068708+918057202+918025561+917987981+917949845+917920524+917904842
5170.95+917861324+917795444+917763431+917773916+917814651+917904471+918052006
5164.20+918200191+918330931+918538594+918868460+919272558+919719988+920220772
5157.45+920777601+921380083+922010494+922657700+923326433+924002867+924662878
5150.70+925289856+925876563+926438589+926965540+927436446+927858730+928247425
5143.95+928638996+929031310+929363496+929640194+929921438+930208436+930485319
5137.20+930758677+931011064+931240903+931472227+931695014+931894883+932076750
5130.45+932241358+932395481+932536985+932644528+932723492+932811642+932921319
5123.70+933030532+933117939+933183356+933241257+933306766+933401225+933518697
5116.95+933617610+933698801+933793725+933893288+933978747+934042029+934083135
5110.20+934111714+934136117+934156624+934159686+934152912+934158387+934173883
5103.45+934196430+934235773+934305180+934410867+934552556+934730341+934932714
5096.70+935151604+935397311+935671596+935943933+936199382+936469492+936765676
5089.95+937064272+937336980+937574521+937797957+938021023+938235552+938432544
5083.20+938610143+938764266+938898903+939041242+939193231+939336684+939474012
5076.45+939605587+939740689+939909473+940124466+940374162+940652623+940965509
5069.69+941309015+941673028+942054763+942439561+942811832+943185031+943571498
5062.94+943955554+944314834+944648226+944972618+945294597+945601916+945889006
5056.19+946149466+946362046+946524428+946658879+946770505+946839262+946858655
5049.44+946860975+946872295+946888162+946905699+946931402+946981972+947075875
5042.69+947205966+947351645+947494541+947642076+947813736+948003954+948194451
5035.94+948376040+948554381+948735320+948922569+949118447+949321749+949534979
5029.19+949759251+949990296+950226445+950462409+950691135+950920417+951156195
5022.44+951392437+951627287+951862508+952105894+952372942+952659383+952939700
5015.69+953183829+953384532+953564915+953739080+953898214+954032202+954152364
5008.94+954281341+954426650+954586618+954756516+954924372+955089722+955262404
5002.19+955431466+955575475+955692297+955790097+955877597+955968995+956064011
4995.44+956143810+956205979+956277983+956383299+956521834+956679669+956834441
4988.69+956979749+957137584+957309337+957463275+957578705+957663514+957727353
4981.94+957779408+957844825+957929634+958019826+958127368+958280656+958487298
4975.19+958742469+959051551+959427626+959880902+960409616+961000406+961646777
4968.44+962348821+963092435+963856927+964637100+965436017+966252749+967089987
4961.69+967951258+968818932+969673429+970522081+971370362+972210569+973036859
4954.93+973851457+974661601+975469054+976273352+977067166+977843998+978611181
4948.18+979369270+980108430+980833858+981549357+982244535+982912433+983558340
4941.43+984193947+984817770+985415333+986000927+986600996+987210901+987809578
4934.68+988378469+988913586+989430330+989944383+990454725+990951983+991424559
4927.93+991863453+992276830+992687608+993103676+993502949+993870302+994225314
4921.18+994588492+994948607+995294526+995638775+995984415+996320498+996643127
4914.43+996954064+997241989+997503563+997747970+997984026+998206442+998394805
4907.68+998549856+998698968+998855968+998993575+999075972+999102324+999093416
4900.93+999072909+999053609+999019184+998954046+998875918+998804841+998737012
4894.18+998667977+998611004+998574909+998554217+998546886+998576301+998668719
4887.43+998820522+999014545+999254684+999552631+999894467+1000256252+1000642627
4880.68+1001073263+1001541571+1002019715+1002492848+1002965702+1003440970
4874.89+1003907793+1004357265+1004780755+1005179935+1005570300+1005959645
4869.11+1006347597+1006742694+1007148833+1007559333+1007979391+1008421625
4863.32+1008888356+1009370582+1009846313+1010303023+1010754443+1011204935
4857.53+1011635200+1012032338+1012412404+1012793397+1013187473+1013600943
4851.75+1014018495+1014434470+1014867332+1015318289+1015771379+1016222800
4845.96+1016680251+1017147353+1017623826+1018089443+1018504398+1018859967
4840.17+1019186307+1019502255+1019797046+1020046279+1020241972+1020406858
4834.39+1020562837+1020710280+1020843989+1020967213+1021088396+1021208466
4828.60+1021323896+1021435150+1021538982+1021628709+1021709343+1021795359
4822.82+1021886292+1021966648+1022036704+1022107502+1022178857+1022251511
4817.03+1022319897+1022376127+1022446090+1022551963+1022683910+1022827640
4811.24+1022968124+1023102668+1023237398+1023376211+1023507601+1023606329
4805.46+1023678705+1023752751+1023830508+1023897780+1023946866+1023972290
4799.67+1023970063+1023951134+1023932484+1023919029+1023896296+1023860943
4793.88+1023828745+1023805640+1023778082+1023738368+1023706727+1023705242
4788.10+1023732244+1023778360+1023848509+1023961341+1024126599+1024345582
4782.31+1024621074+1024940176+1025280806+1025631735+1025995284+1026380175
4776.53+1026766550+1027108200+1027404477+1027694258+1027985616+1028250066
4770.74+1028472575+1028677083+1028882240+1029080531+1029266481+1029440740
4764.95+1029605348+1029762812+1029913038+1030048788+1030168951+1030276494
4759.17+1030365942+1030440916+1030507910+1030563862+1030600978+1030608123
4753.38+1030589472+1030559408+1030521457+1030472929+1030405378+1030310269
4747.60+1030188715+1030041736+1029866828+1029667238+1029451596+1029226860
4741.81+1028988855+1028716055+1028393890+1028051497+1027725342+1027415797
4736.02+1027104303+1026773323+1026424992+1026077867+1025746702+1025427413
4730.24+1025100331+1024759886+1024410906+1024055801+1023696799+1023322486
4724.45+1022918017+1022487753+1022038745+1021567468+1021079488+1020570353
4718.66+1020017236+1019419394+1018774229+1018057153+1017256659+1016368850
4712.88+1015394562+1014337783+1013190535+1011941498+1010592989+1009164126
4707.09+1007671423+1006106994+1004453766+1002722873+1000931945+999067342
4701.31+997104661+995002703+992703382+990178212+987445565+984553598+981584060
4694.55+978655070+975878998+973284514+970804810+968327891+965730437+962914929
4687.80+959846106+956532876+952976537+949145913+944990897+940454425+935484904
4681.05+930036219+924061974+917530344+910427781+902823227+894958400+887273583
4674.30+880348248+874747481+870828800+868614845+867847384+868143382+869117763
4667.55+870452631+871918889+873379116+874727531+875851210+876656993+877082804
4660.80+877112868+876743287+875947526+874706189+873016031+870884288+868315042
4654.05+865306347+861881120+858111551+854139145+850173327+846437255+843084682
4647.30+840153837+837612614+835435125+833631671+832244841+831320752+830863949
4640.55+830785542+830918046+831071612+831073468+830790646+830127387+829025328
4633.80+827429629+825253718+822418074+818889387+814720175+810080613+805276443
4627.05+800745816+796926141+794052918+792042172+790560511+789225086+787778964
4620.30+786136870+784302146+782305040+780206422+778080014+776009234+774108954
4613.55+772476881+771148509+770149260+769513560+769252404+769359854+769811553
4606.80+770547141+771492108+772571758+773705459+774816612+775841517+776749971
4600.05+777556033+778282945+778933538+779492501+779930003+780195102+780220897
4593.30+779924714+779209029+778007639+776328522+774308173+772273162+770708130
4586.55+770054893+770489101+771874864+773868676+776065464+778129286+779866813
4579.79+781229240+782272285+783119359+783930988+784867790+786058741+787587632
4573.04+789456688+791548532+793699854+795789935+797716057+799387750+800765023
4566.29+801838689+802608655+803104800+803392169+803541096+803594357+803563365
4559.54+803439770+803216054+802903911+802512897+802021298+801398682+800638458
4552.79+799766238+798805126+797758740+796646102+795522330+794464438+793536730
4546.04+792759805+792116496+791583328+791137197+790744605+790375210+790008136
4539.29+789613688+789168577+788692382+788211362+787721341+787218609+786704927
4532.54+786176584+785634508+785077308+784485869+783848591+783171878+782453595
4525.79+781683444+780857247+779976954+779041266+778061178+777044578+775970170
4519.04+774832293+773647605+772418331+771139926+769811274+768425047+766971084
4512.29+765451519+763878368+762267823+760620486+758917940+757154107+755336502
4505.54+753493380+751645201+749760974+747800891+745761056+743655062+741489729
4498.79+739249654+736910062+734472114+731953764+729362667+726696596+723941958
4492.04+721088870+718152411+715148911+712063896+708877323+705593275+702220103
4485.29+698750708+695172981+691494346+687715499+683818206+679798384+675655570
4478.54+671379001+666964546+662416150+657725646+652891041+647926485+642831141
4471.79+637589887+632189962+626631415+620923290+615068698+609045739+602829732
4465.03+596438632+589884732+583140986+576190968+569042103+561691143+554119483
4458.28+546311906+538255886+529939127+521354022+512494445+503351629+493907712
4451.53+484150862+474090730+463741513+453103582+442176008+430970624+419506867
4444.78+407803389+395861581+383679889+371279679+358687023+345907954+332936254
4438.03+319783521+306487406+293093491+279651674+266219506+252853613+239612963
4431.28+226563993+213763071+201258403+189101127+177330237+165960685+154993433
4424.53+144433259+134294221+124587420+115307902+106447049+98005280+89986567
4417.78+82390950+75217896+68480001+62188139+56329974+50891061+45875249+41282717
4410.07+37087196+33256537+29771435+26616112+23769967+21210166+18918764+16878367
4402.35+15071924+13493807+12137553+10977689+9989240+9157778+8463027+7883576
4394.64+7407287+7029210+6738002+6511620+6331710+6183279+6062912+5977426+5915827
4385.96+5859634+5806554+5757051+5706615+5657980+5619190+5595266+5585628+5587848
4377.28+5602535+5626785+5659498+5710356+5783071+5868779+5959118+6043392+6109449
4368.60+6156107+6186206+6193124+6167147+6102108+5987732+5814382+5588466+5332437
4359.92+5063710+4778621+4469689+4138517+3799827+3476722+3170383+2870505+2584018
4351.24+2314056+2056516+1820019+1612232+1424459+1245058+1076851+926656+789828
4342.56+666794+566617+483515+404036+331942+277101+236126+204863+179352+153223
4332.92+129357+116940+113988+111621+109787+110362+114517+126160+140100+152248
4323.27+164889+177036+188880+203561+222683+243923+263955+284100+312603+356054
4313.63+407470+462349+524845+593521+668506+755543+851994+950016+1048428+1149621
4303.98+1251647+1354973+1473745+1615136+1761000+1900256+2041809+2178998+2304496
4295.31+2429414+2549958+2656424+2756383+2852486+2934511+2993815+3028057+3035620
4286.63+3013016+2960407+2884165+2784174+2653335+2497691+2333017+2165580+1995640
4277.95+1827663+1663482+1502551+1351224+1214816+1094036+988075+891206+802579
4269.27+725833+656038+590994+537225+496413+461780+429429+402085+382285+374724
4259.62+381712+391315+393524+395829+406164+427330+464987+514776+563465+612153
4249.98+669013+730815+797422+880599+979731+1086551+1206281+1341129+1484947
4241.30+1634388+1789751+1953570+2123826+2289558+2445454+2600504+2756754+2906605
4232.62+3052356+3199796+3347548+3495793+3644761+3786548+3918822+4049059+4183586
4223.94+4322510+4459097+4584777+4694970+4790563+4867163+4917905+4951488+4981807
4215.26+5008622+5022392+5020863+5015341+5016355+5014295+5003864+5005540+5026273
4206.58+5052739+5080484+5108686+5134724+5160589+5188411+5219312+5252366+5283890
4197.90+5318443+5357139+5390605+5414186+5426327+5432645+5440642+5445484+5442092
4189.22+5430578+5410560+5381998+5345668+5299485+5235205+5144526+5030631+4905455
4180.55+4772608+4622769+4454536+4281207+4106552+3927486+3754460+3596201+3446802
4171.87+3309098+3199174+3116433+3049792+3002656+2983276+2986036+2997377+3020235
4163.19+3070156+3142494+3221622+3311571+3419477+3541670+3676447+3821401+3976083
4154.51+4141782+4312361+4479357+4641618+4799917+4949545+5089783+5222511+5344781
4145.83+5456102+5559990+5660114+5750686+5823323+5881916+5930420+5969089+6003154
4137.15+6035292+6057282+6060019+6051702+6045543+6038245+6022683+5999454+5966554
4128.47+5919269+5859882+5792542+5723311+5658553+5594785+5532587+5475872+5419865
4119.79+5362641+5309968+5267680+5238167+5218494+5204389+5203004+5218293+5242739
4111.11+5271558+5303480+5353945+5437767+5537436+5630500+5722402+5822243+5919084
4102.43+6007693+6093680+6179711+6260324+6322346+6361080+6387247+6416342+6445450
4093.75+6456310+6444972+6429374+6412746+6373466+6308276+6229247+6142764+6047472
4085.07+5938251+5817611+5694138+5583482+5492900+5411569+5322614+5223029+5124416
4076.39+5030380+4936549+4838077+4739095+4642320+4543652+4446153+4358018+4287237
4067.71+4224098+4153227+4064789+3956241+3838144+3714225+3587011+3470828+3390879
4059.03+3369480+3418315+3549408+3775868+4100218+4507460+4985552+5524606+6112678
4050.36+6734368+7365406+7995514+8619198+9229615+9830930+10418611+10979410
4042.64+11526111+12086395+12662726+13250058+13854371+14491167+15172064+15889616
4034.93+16642133+17437868+18275003+19134598+19992342+20838107+21674537+22501776
4027.21+23325016+24149592+24942070+25673404+26361825+27015750+27618257+28169566
4019.50+28689517+29185853+29661830+30137646+30641628+31194473+31803812+32469915
4011.78+33186618+33950817+34779919+35692731+36682954+37766330+38992278+40371682
4004.07+41877320+43480785+45142413+46824502+48516244+50207934+51874176+53498721
3996.35+55092181+56660571+58177509+59641598+61082547+62518289+63935902+65295568
3988.64+66595211+67858457+69081914+70247192+71344740+72393654+73423877+74447617
3980.92+75462025+76443696+77343869+78133379+78812284+79371891+79797586+80081596
3973.21+80227392+80250659+80166325+79968219+79655914+79276388+78869083+78442727
3965.49+78007046+77582680+77190842+76840481+76553756+76345438+76206515+76144920
3957.78+76186252+76341831+76600910+76946800+77360542+77813250+78289132+78826208
3950.06+79417416+80008670+80632203+81283886+81922723+82553633+83203228+83895547
3942.35+84523627+85023942+85465770+85850933+86156796+86435970+86765285+87176551
3934.63+87634565+88097920+88551858+88939764+89254117+89516792+89709347+89843950
3926.92+89945264+90038483+90129828+90206078+90263033+90296524+90294692+90226828
3919.20+90119262+89954363+89654619+89295019+88959586+88618898+88254259+87892467
3911.49+87553403+87260160+87035070+86873402+86745660+86626988+86512747+86382964
3903.77+86267261+86162943+86035265+85940312+85855711+85704685+85512054+85292555
3896.06+85016205+84661825+84267940+83888287+83415554+82845415+82456645+82219818
3888.34+82067417+82028805+82100821+82250769+82493946+82883929+83358424+83985048
3880.63+84856892+85641339+86349983+87165683+88019966+88882460+89909459+90872561
3872.91+91560304+92204135+93010190+93935190+94548673+94981356+95439642+95979131
3865.20+96531710+96907025+97218919+97573601+97890546+98150936+98426869+98744603
3857.48+99068403+99329222+99580740+99942189+100212693+100330652+100419254
3850.73+100489820+100538918+100555411+100564968+100577089+100599265+100620874
3843.98+100593083+100558044+100589708+100658384+100718500+100838152+101027697
3837.23+101199995+101431261+101775185+102099357+102405167+102789756+103110088
3830.48+103278675+103392284+103462154+103437031+103309748+103193888+103154198
3823.73+103206369+103401331+103834309+104326963+104748018+105265713+105939538
3816.98+106988441+108279744+109180938+110016599+111028397+112138680+113289791
3810.23+114442687+115517350+116686937+118193744+119446842+120370548+121366086
3803.48+122474130+123840604+125471737+126633217+127548375
##END=
