##TITLE=Ρμερό_2_2,1μμ
##JCAMP-DX=4.24
##DATA TYPE=INFRARED SPECTRUM
##DATE=7/4/2017
##SAMPLING PROCEDURE=Instrument type and / or accessory
##ORIGIN=Default
##XUNITS=1/CM
##YUNITS=TRANSMITTANCE
##RESOLUTION=2
##FIRSTX=7998.4873
##LASTX=3799.619
##DELTAX=-0.96437031
##MAXY=0.66871339
##MINY=5.9379388e-005
##XFACTOR=1
##YFACTOR=6.2278788e-010
##NPOINTS=4355
##FIRSTY=0.23375784
##XYDATA=(X++(Y..Y))
7998.49+375341022+375820702+376278058+376660093+376962117+377317331+377875944
7991.74+378570364+379106893+379381665+379604445+379895607+380253812+380709541
7984.99+381178285+381626142+382185856+382746742+383108248+383385270+383695477
7978.24+384043537+384479191+384927144+385246013+385488557+385830467+386344361
7971.48+386916540+387359229+387645510+387945789+388376945+388877440+389328360
7964.73+389695250+390038667+390400245+390790368+391219299+391670721+392131091
7957.98+392558635+392915475+393270497+393744171+394359275+394942197+395334784
7951.23+395624080+395947758+396325534+396731448+397208376+397789671+398293564
7944.48+398529719+398634469+398866748+399265077+399814000+400443914+400857509
7937.73+401016476+401245765+401647228+402080825+402443264+402779671+403192691
7930.98+403644424+404094291+404537172+404914445+405340242+406027987+406830531
7924.23+407254605+407173972+407126598+407507413+408082798+408547356+408939560
7917.48+409343631+409732821+410164790+410602598+410933837+411264550+411643020
7910.73+411955836+412259990+412748139+413385160+413904796+414220435+414493054
7903.98+414895642+415557929+416502692+417308156+417434344+417295762+417694713
7897.23+418523337+419205100+419434173+419291188+419212086+419478676+419951225
7890.48+420465550+420940971+421515064+422617312+423814405+423976866+423355446
7883.73+423102016+423392532+423762245+424053287+424410080+424918376+425425235
7876.98+425745468+425942623+426211701+426606728+427068702+427510529+427937570
7870.23+428500897+429103367+429570031+430329411+431591776+432395707+432139885
7863.48+431778690+432051835+432536587+432981094+433385979+433516140+433551168
7856.72+433790912+434077648+434313468+434701556+435559179+436840685+437810811
7849.97+438083765+438131474+438118458+437885031+437760565+438000070+438415339
7843.22+439072314+440272948+441479946+441684805+441177993+441024768+441704664
7836.47+443105803+444337158+444627961+444316486+443890976+443605580+443669081
7829.72+443969934+444317299+444688735+445060936+445390261+445714561+446065468
7822.97+446409771+446790873+447266820+447759994+448170190+448470660+448748974
7816.22+449151609+449825333+450960217+452243684+452897645+453227113+454305387
7809.47+455590482+455614217+454821770+454979733+456434227+457533604+456966976
7802.72+455758972+455725379+457246581+458919908+459176209+458437453+457891689
7795.97+457630076+457546476+457722767+458032759+458396730+458905935+459615692
7789.22+460235916+460514708+460831064+461601021+462906022+464538100+465433718
7782.47+464819524+463662149+463096621+463125094+463419390+463823414+464260408
7775.72+464810719+465877699+467812016+469712262+469954782+468765058+467900066
7768.97+468136700+468873781+469202818+469028346+469175590+470236828+471966430
7762.22+473584151+474108095+473211950+471944848+471435835+471616289+471959396
7755.47+472234551+472452426+472758638+473323543+474411148+476212195+477990942
7748.72+478382572+477351242+476306466+476202529+476943821+478064397+479422132
7741.96+481043634+482354474+482713420+482108174+480942999+479983640+479701403
7735.21+479942008+480591805+481781768+483540321+485137514+485546466+484895568
7728.46+484170594+483896539+484218208+485302559+486411746+486364993+485552735
7721.71+485138088+485298396+485670740+486082229+486649384+487724164+489125255
7714.96+489820177+489552200+489442999+490344169+492150814+494172081+495455979
7708.21+495500674+494998121+495195802+495891921+495665719+494433406+493522858
7701.46+493618085+494164041+494378375+494225198+494144039+494325115+494710619
7694.71+495157950+495508904+495813202+496306137+497135670+498438423+499950867
7687.96+500530033+499824009+499105016+499409984+500742740+502277819+503136543
7681.21+503377292+503291061+503304268+504262143+505961071+506876118+506263838
7674.46+505104884+504619749+505290267+506721553+507532088+506976227+506070607
7667.71+505832873+506351122+507678471+509360555+510000877+509247047+508335446
7660.96+508072876+508318267+508799669+509394674+510038633+510874483+512033293
7654.21+512786501+512578914+512153883+512145222+512483304+513004424+513590337
7647.46+514225108+515141782+516674612+518390241+519456264+519802050+519548333
7640.71+518743827+517949992+517703453+517840648+518078909+518706980+520139702
7633.96+522033344+523163969+522750231+521546439+520743560+520627564+520852713
7627.20+521159738+521471118+521762065+522070382+522427701+522810622+523199428
7620.45+523603643+524059587+524638035+525526715+527045429+528915432+529856319
7613.70+529254184+528188974+527725086+527840747+528206249+528848102+529939823
7606.95+531134236+532076367+533193258+534406812+534752982+534090264+533179189
7600.20+532630697+532606866+532970119+533598143+534334841+535209835+536275380
7593.45+536801094+536361707+535776799+535667885+535878726+536214846+536620305
7586.70+537028779+537370354+537672690+538025941+538445230+538887058+539343768
7579.95+539793347+540173205+540504205+540857313+541275836+541774178+542282856
7573.20+542761435+543354526+544160277+544838498+544970716+544801939+544863813
7566.45+545210700+545610177+545956777+546308832+546849476+547854343+549164370
7559.70+549860488+549599737+549230407+549261655+549469194+549732960+550038071
7552.95+550316289+550599531+550982835+551468687+551982916+552442162+552818288
7546.20+553223747+553742618+554278142+554861040+555807144+557011941+557662073
7539.45+557438934+557011989+556917335+557130186+557526744+558123951+559055890
7532.70+560008214+560275378+559994289+559953183+560274325+560619011+560968625
7525.95+561402366+561789545+562106907+562606254+563528431+564665516+565394414
7519.20+565448153+565203624+565124905+565433318+566146425+566913271+567204265
7512.44+567100472+567096979+567401659+568005039+568728578+569466185+570395540
7505.69+571335422+571769833+571739302+571735761+572114136+572937113+573734968
7498.94+573921595+573678645+573623470+573871445+574138704+574414338+574878321
7492.19+575584920+576470011+577256811+577624227+577526942+577234081+577085641
7485.44+577243125+577756732+578428590+578834001+578907360+579012972+579438577
7478.69+580106893+580671129+581002703+581433381+582068248+582552234+582901657
7471.94+583404928+583895183+584042140+583918583+583905328+584276141+584990971
7465.19+585645218+585853188+585783370+585818638+586034647+586307888+586548732
7458.44+586817045+587211545+587721420+588318004+588889945+589212522+589330241
7451.69+589532181+589843513+590071772+590250551+590610550+591199478+591771370
7444.94+592038678+592004128+591978718+592186974+592567933+593020719+593461733
7438.19+593725403+593800006+593893176+594105596+594380033+594677010+595019686
7431.44+595446152+595848597+596094275+596319615+596734501+597331851+597880535
7424.69+598141525+598185311+598252927+598434243+598741507+599086624+599255450
7417.94+599241476+599225781+599282965+599421500+599618032+599809971+600005642
7411.19+600215478+600396028+600554996+600737795+600949784+601212354+601547708
7404.44+601813293+601820471+601679974+601654564+601755103+601795300+601719549
7397.68+601678443+601726009+601770512+601783959+601742422+601638390+601542684
7390.93+601456404+601333566+601201491+601058075+600900591+600798903+600791342
7384.18+600867907+600871400+600568443+600017366+599531945+599269136+599115575
7377.43+598895068+598434817+597762242+597132399+596593191+596087623+595683312
7370.68+595427155+595148267+594637005+594012857+593473792+592996122+592496201
7363.93+592022743+591623361+591211441+590794832+590442203+590009037+589468249
7357.18+589059153+588748347+588318435+587918718+587696058+587505076+587267294
7350.43+587061478+586841402+586517054+586165333+585972964+586027086+586135282
7343.68+586144278+586252474+586521360+586616971+586428621+586319899+586370336
7336.93+586421012+586503607+586686166+586892987+587072245+587296389+587590781
7330.18+587913981+588268333+588466253+588428114+588493242+588793329+589064082
7323.43+589105714+589073030+589106097+589163568+589196061+589211804+589243435
7316.68+589262337+589247072+589315311+589468584+589441738+589080208+588588949
7309.93+588256226+588164779+588110274+587810044+587422386+587228198+587168238
7303.18+587058750+586875473+586709854+586472072+586010241+585507018+585179799
7296.43+585072225+585015184+584629154+583960550+583402296+583004206+582614156
7289.68+582235303+581907270+581553923+581168323+580778846+580314289+579770151
7282.92+579281045+578929899+578652877+578337382+577934794+577490813+577041233
7276.17+576567583+576128675+575722211+575226261+574697724+574245895+573834311
7269.42+573414161+572948167+572440781+571932725+571422084+570927188+570459185
7262.67+569956966+569427424+568959230+568534725+568063181+567498993+566871064
7255.92+566327405+565971953+565655357+565189459+564641063+564149755+563725011
7249.17+563349077+563061672+562838963+562573905+562361390+562352824+562190889
7242.42+561642397+561155013+560906177+560724527+560524357+560326293+560150816
7235.67+559986967+559852931+559705878+559368610+558872708+558478638+558242961
7228.92+558060211+557949861+557868942+557626135+557279966+556973467+556703193
7222.17+556504698+556417749+556333288+556131588+555843990+555540650+555216924
7215.42+554881426+554572725+554230002+553807746+553384150+552991803+552567203
7208.67+552112790+551758581+551492326+551099500+550590487+550105113+549587199
7201.92+549073209+548667176+548305119+547940240+547591199+547259960+546960783
7195.17+546638588+546264185+545942565+545731150+545567349+545406754+545278842
7188.42+545204144+545172274+545170359+545231611+545422162+545743831+546126943
7181.67+546444974+546685245+547030983+547569235+548223865+548935823+549699654
7174.92+550492963+551291918+552146670+553108804+554161141+555327560+556527237
7168.16+557634844+558830310+560144452+561377291+562590893+563968344+565537016
7161.41+567015054+568234877+569444316+570803009+572221566+573550590+574819079
7154.66+576127239+577465259+578797489+580074927+581271255+582420351+583533031
7147.91+584609390+585770928+586977974+587954273+588790602+589705122+590634285
7141.16+591546939+592435284+593163464+593830297+594607623+595351451+595937651
7134.41+596482267+597065740+597641748+598149278+598595651+599014701+599454471
7127.66+599910510+600310084+600628642+600900399+601170147+601469325+601793817
7120.91+602067536+602307137+602589805+602739489+602691923+602674696+602735852
7114.16+602800885+602841512+602830889+602786242+602741451+602679816+602615167
7107.41+602554681+602421075+602176880+601888470+601622072+601373619+601077791
7100.66+600717696+600364493+600040527+599735751+599451599+599127108+598714135
7093.91+598238380+597741426+597283472+596895957+596541031+596181702+595820842
7087.16+595473237+595153866+594872729+594640163+594477510+594394677+594351035
7080.41+594323519+594379746+594547950+594792958+595122474+595561096+596090303
7073.66+596685882+597354390+598074531+598857790+599764989+600749040+601750605
7066.91+602821318+603989029+605215982+606464661+607743295+609074664+610447425
7060.16+611846649+613251807+614640456+616016472+617377605+618742327+620124229
7053.40+621481342+622780123+624050383+625356772+626705320+628038124+629283309
7046.65+630421399+631508621+632586704+633683114+634791678+635844207+636824382
7039.90+637777280+638711707+639598377+640422838+641209639+642012470+642847315
7033.15+643656702+644401392+645113733+645828993+646535209+647210176+647857246
7026.40+648497233+649148083+649784290+650344554+650853184+651404212+651987685
7019.65+652523113+652985948+653411458+653840174+654276450+654711435+655141299
7012.90+655552405+655932598+656293458+656669727+657075329+657467198+657795279
7006.15+658043541+658222177+658399329+658652854+658933321+659145837+659308537
6999.40+659504352+659745484+659968623+660159030+660336469+660492231+660672494
6992.65+660913530+661152365+661357511+661562801+661784647+662007882+662219153
6985.90+662428654+662643419+662881536+663179756+663497357+663763995+664032929
6979.15+664353018+664681673+665036791+665474168+665966385+666452429+666937851
6972.40+667455860+667981048+668528918+669151056+669809706+670477352+671179644
6965.65+671905623+672628348+673323127+673994841+674703785+675467951+676255947
6958.90+677035043+677788299+678580602+679430186+680214881+680903439+681595921
6952.15+682348602+683153778+683976421+684800977+685643192+686471481+687244404
6945.39+687988615+688757040+689540826+690274605+690949620+691602480+692285104
6938.64+693025392+693763191+694458065+695131454+695805130+696484404+697158128
6931.89+697828262+698457387+699013870+699560305+700143730+700755771+701400400
6925.14+702070151+702715929+703312178+703873639+704428878+705016705+705657219
6918.39+706333814+706987104+707581966+708164146+708774321+709442207+710172062
6911.64+710896318+711590714+712267070+712919020+713591500+714303458+715009674
6904.89+715728523+716510108+717328587+718128355+718906782+719697458+720527422
6898.14+721384136+722219938+723016883+723815647+724657048+725513809+726317119
6891.39+727079658+727883877+728743941+729604387+730426168+731211868+731988332
6884.64+732779487+733591123+734400989+735188411+735942050+736625918+737268537
6877.89+737961402+738704369+739434177+740134698+740829573+741532534+742197166
6871.14+742792123+743395551+744047071+744640592+745133240+745631486+746187443
6864.39+746746272+747272034+747776405+748273168+748758781+749217788+749655644
6857.64+750096897+750540543+750955047+751317582+751644275+751981447+752354654
6850.89+752723362+753040245+753300996+753512938+753714495+753926580+754140004
6844.14+754391233+754688018+754981692+755236701+755455677+755704322+756010773
6837.39+756322249+756627934+756937639+757221552+757522404+757926045+758390220
6830.63+758820611+759222529+759646028+760112548+760638071+761215227+761792766
6823.88+762349489+762913772+763508825+764136371+764781239+765446540+766154383
6817.13+766857441+767484125+768071282+768689975+769348194+770040293+770746988
6810.38+771418558+772054334+772703030+773365413+774039711+774744108+775424866
6803.63+776066528+776732691+777413975+778081191+778754149+779419115+780061782
6796.88+780740578+781496896+782281496+783035708+783706896+784264288+784818379
6790.13+785486839+786206214+786882426+787533372+788193840+788834449+789456970
6783.38+790117008+790789822+791424976+792041276+792671214+793318619+793963487
6776.63+794605197+795245471+795860048+796460413+797062357+797648222+798223991
6769.88+798801386+799370455+799953641+800574152+801213469+801857906+802460233
6763.13+802980827+803485198+804029862+804605439+805210206+805822056+806389019
6756.38+806919614+807456526+807990567+808523554+809082383+809644656+810198221
6749.63+810760495+811308795+811839103+812383097+812915511+813425337+813964929
6742.88+814516196+815039422+815561403+816091520+816617712+817143714+817676510
6736.13+818227969+818798760+819361130+819896319+820409687+820891759+821352488
6729.38+821847481+822378171+822894889+823398016+823917701+824426762+824889406
6722.63+825344297+825840342+826364333+826885549+827389059+827872280+828348418
6715.87+828820632+829295622+829792241+830286851+830759065+831228887+831701675
6709.12+832160108+832615382+833124826+833692364+834260380+834806479+835308554
6702.37+835782108+836283800+836802623+837327763+837870512+838414793+838959075
6695.62+839494168+840001602+840488363+840982399+841514908+842083594+842652759
6688.87+843197614+843729836+844279668+844854671+845434363+845992426+846535558
6682.12+847098023+847671207+848221997+848759100+849316971+849895802+850473006
6675.37+851055474+851654020+852236392+852781247+853321700+853887323+854494196
6668.62+855155143+855800873+856364104+856906566+857490948+858093131+858718475
6661.87+859390428+860042570+860614606+861165874+861760496+862362775+862913468
6655.12+863446169+864028732+864626513+865189457+865766565+866379085+866979450
6648.37+867559429+868124382+868670865+869225865+869817329+870439323+871057681
6641.62+871646370+872213716+872767950+873316538+873884459+874465108+875032071
6634.87+875587933+876138817+876715926+877321076+877882488+878411361+878960140
6628.12+879496669+880015205+880571066+881162147+881740978+882291097+882812122
6621.37+883290461+883731284+884192683+884725097+885313977+885897210+886418043
6614.62+886918874+887466983+888030979+888557746+889055897+889577208+890142832
6607.87+890706541+891233404+891725429+892187690+892640572+893098717+893554757
6601.11+894040370+894577760+895109408+895603061+896090875+896583379+897087176
6594.36+897624662+898164158+898668721+899167063+899672487+900167384+900656347
6587.61+901137557+901591492+902034611+902507304+903004880+903516047+904034679
6580.86+904536753+905032894+905531906+906001441+906435564+906876195+907349175
6574.11+907839382+908331790+908816351+909268754+909694168+910150399+910656397
6567.36+911155027+911638726+912121659+912564491+912988470+913456664+913952327
6560.61+914437748+914922787+915422182+915928085+916389389+916779583+917177433
6553.86+917632708+918110664+918602594+919095002+919585688+920091495+920570887
6547.11+920994004+921390515+921807602+922276180+922788208+923322057+923827290
6540.36+924258063+924652085+925081328+925552106+926022215+926479595+926937549
6533.61+927392727+927836038+928280115+928746970+929208465+929642588+930065514
6526.86+930491981+930959409+931474117+931960783+932361696+932730548+933146870
6520.11+933616117+934092830+934524082+934921549+935346485+935801855+936261436
6513.36+936723218+937188063+937644390+938076599+938508042+938966475+939437924
6506.61+939905066+940358617+940796186+941224662+941650076+942119228+942655182
6499.86+943174676+943631481+944070294+944514945+944961127+945412956+945867656
6493.11+946326471+946811989+947342967+947898254+948428753+948923171+949404286
6486.35+949913060+950486436+951071679+951605719+952137559+952695526+953219804
6479.60+953697378+954183374+954696359+955223604+955774968+956346716+956908416
6472.85+957433651+957944435+958482974+959017780+959519376+960016474+960521802
6466.10+961024738+961513893+961974909+962421666+962898282+963408109+963902527
6459.35+964357993+964781493+965189010+965609447+966063668+966546697+967021687
6452.60+967457437+967878066+968329033+968787945+969216613+969657052+970119983
6445.85+970523193+970850795+971206631+971642860+972079758+972476173+972886083
6439.10+973318675+973730403+974106911+974460928+974827483+975226769+975627491
6432.35+976018546+976433432+976859229+977236790+977580566+977978321+978440486
6425.60+978878342+979253989+979619778+980023562+980442277+980837926+981204672
6418.85+981557828+981937111+982347500+982739225+983110565+983506310+983930097
6412.10+984330914+984693832+985058090+985436321+985821634+986199003+986553882
6405.35+986912875+987300964+987695848+988060584+988410581+988789961+989190587
6398.60+989578005+989937860+990270822+990588758+990916265+991279470+991666505
6391.85+992040621+992385259+992708554+993046684+993445587+993885932+994281389
6385.10+994619424+994972484+995360477+995737750+996065640+996361372+996680839
6378.35+997053997+997468022+997866351+998212329+998554670+998932709+999319267
6371.59+999684864+1000036393+1000392994+1000729019+1001026282+1001332925
6365.81+1001659570+1001978463+1002312860+1002668313+1003009123+1003336438
6360.02+1003671601+1004009061+1004345564+1004699772+1005047760+1005360145
6354.24+1005661523+1005954767+1006244565+1006556280+1006877470+1007194066
6348.45+1007505494+1007817975+1008145577+1008479209+1008806811+1009143027
6342.66+1009467279+1009742052+1009999597+1010282696+1010579289+1010878371
6336.88+1011201858+1011554535+1011897738+1012183803+1012426801+1012695449
6331.09+1013006685+1013321846+1013619109+1013901059+1014180904+1014465056
6325.30+1014761266+1015078150+1015390247+1015654875+1015897682+1016188437
6319.52+1016516805+1016811771+1017071613+1017354138+1017666619+1017982449
6313.73+1018295217+1018590470+1018865339+1019144131+1019441873+1019740859
6307.95+1020011707+1020268678+1020544216+1020823678+1021089167+1021354369
6302.16+1021620911+1021884773+1022160885+1022453937+1022745554+1023023868
6296.37+1023300746+1023584227+1023864455+1024142960+1024417254+1024683508
6290.59+1024946126+1025199173+1025450115+1025719910+1025993056+1026248974
6284.80+1026506232+1026765692+1027008594+1027253985+1027531820+1027828509
6279.02+1028086820+1028305700+1028553387+1028822035+1029063980+1029294727
6273.23+1029534663+1029765410+1029974528+1030196854+1030472105+1030763052
6267.44+1030997532+1031183393+1031382079+1031599045+1031788735+1031963494
6261.66+1032192040+1032461358+1032706940+1032930414+1033152643+1033373246
6255.87+1033604855+1033832253+1034020315+1034190768+1034381128+1034594265
6250.08+1034810370+1035007238+1035179030+1035333787+1035517351+1035752884
6244.30+1035972721+1036141930+1036310660+1036489918+1036652522+1036821157
6238.51+1037009028+1037191827+1037385632+1037599439+1037798221+1037961974
6232.73+1038100365+1038254835+1038452947+1038653451+1038809261+1038925544
6226.94+1039031586+1039158301+1039326170+1039519018+1039686887+1039811305
6221.15+1039914954+1040015063+1040132207+1040268493+1040393964+1040498188
6215.37+1040598201+1040713814+1040858330+1041020265+1041157221+1041257138
6209.58+1041360883+1041479846+1041577466+1041647428+1041712795+1041763806
6203.79+1041791178+1041830131+1041897604+1041963832+1042013217+1042058198
6198.01+1042107296+1042153618+1042178693+1042185392+1042193718+1042193623
6192.22+1042182999+1042180128+1042175439+1042145961+1042092844+1042038100
6186.44+1041987854+1041922966+1041837691+1041762562+1041699013+1041591344
6180.65+1041431993+1041275322+1041141046+1040999688+1040818134+1040604517
6174.86+1040396548+1040208294+1040023581+1039808529+1039544093+1039263961
6169.08+1039000003+1038721786+1038407869+1038077874+1037746635+1037404964
6163.29+1037034486+1036649364+1036267401+1035865435+1035426909+1034954025
6157.50+1034456736+1033963753+1033489816+1033016836+1032548163+1032100258
6151.72+1031645750+1031161381+1030671652+1030195514+1029734689+1029272141
6145.93+1028779637+1028267896+1027767831+1027290353+1026845702+1026426126
6140.15+1026010187+1025599608+1025202331+1024804959+1024368444+1023902929
6134.36+1023468231+1023060044+1022627165+1022155143+1021670965+1021196837
6128.57+1020726441+1020268678+1019847284+1019455750+1019049860+1018602434
6122.79+1018154625+1017745385+1017377969+1017061469+1016800382+1016585043
6117.00+1016391525+1016206812+1016061913+1015945343+1015792500+1015606735
6111.21+1015435038+1015292053+1015183331+1015097195+1014990196+1014826921
6105.43+1014622110+1014442756+1014314414+1014184158+1014026530+1013861246
6099.64+1013671652+1013435545+1013186900+1012971944+1012798811+1012653242
6093.86+1012517148+1012391007+1012291760+1012215865+1012164279+1012152795
6088.07+1012150306+1012104846+1012035842+1011991913+1011960425+1011916975
6082.28+1011872088+1011842707+1011834667+1011838208+1011839931+1011851320
6076.50+1011895728+1011970474+1012034980+1012066085+1012108770+1012193278
6070.71+1012277404+1012332244+1012349949+1012315591+1012232709+1012115852
6064.92+1011991243+1011871323+1011723170+1011510128+1011255071+1010998387
6059.14+1010712512+1010362515+1009974618+1009555903+1009067228+1008533666
6053.35+1008021542+1007500996+1006913073+1006281221+1005629653+1004929658
6047.57+1004171474+1003383908+1002556624+1001668183+1000742992+999779901
6041.78+998769626+997729300+996644662+995491020+994283208+993043239+991765753
6035.03+990453525+989114787+987714223+986228959+984693354+983141478+981575342
6028.28+979973125+978306593+976579288+974818486+973026292+971182800+969293082
6021.53+967377044+965410474+963368104+961274436+959144590+956978855+954779145
6014.78+952521340+950200274+947838820+945428173+942942014+940384266+937771009
6008.03+935111239+932407731+929683838+926985785+924315583+921632939+918910194
6001.28+916123804+913262668+910330422+907299121+904156513+900926046+897583891
5994.53+894093774+890471487+886743157+882940847+879097382+875213626+871289864
5987.78+867365337+863523787+859839003+856337784+853030562+849909488+846937428
5981.02+844076196+841297368+838579504+835887863+833143297+830272304+827279476
5974.27+824193909+821014263+817741877+814384792+810956979+807496053+804031585
5967.52+800560609+797086666+793634210+790216494+786820648+783397286+779898795
5960.77+776328045+772716908+769052175+765281782+761397356+757442346+753449341
5954.02+749415517+745327189+741167607+736921411+732592334+728194204+723736785
5947.27+719203279+714532914+709671997+704621726+699383918+693914933+688179884
5940.52+682161066+675814455+669088273+661959072+654428432+646500850+638178959
5933.77+629457638+620344927+610886573+601134449+591109179+580806314+570225231
5927.02+559387081+548332204+537088643+525688602+514203431+502694093+491209687
5920.27+479845584+468704668+457853885+447364249+437326346+427796834+418787677
5913.52+410317920+402425367+395140739+388474302+382419834+376973602+372130846
5906.77+367860245+364110286+360834239+357991646+355533266+353385571+351476903
5900.02+349765797+348213012+346752296+345322063+343892883+342428148+340863424
5893.27+339136525+337202615+335023911+332565268+329807757+326747194+323373527
5886.52+319660367+315595965+311210636+306555799+301672990+296588073+291331459
5879.77+285949303+280509077+275087298+269740625+264515355+259468720+254675468
5873.02+250199051+246084092+242363204+239048133+236152208+233693110+231697373
5866.26+230166672+229052293+228322630+227969426+227969833+228284108+228870452
5859.51+229693429+230724663+231924364+233226040+234571932+235923662+237249958
5852.76+238495861+239603062+240570914+241400352+242062280+242549616+242871715
5846.01+243013264+242959932+242727222+242315758+241705726+240906484+239941742
5839.26+238807983+237501857+236034753+234406958+232622134+230696597+228650208
5832.51+226481506+224171350+221723163+219176015+216558594+213868988+211123441
5825.76+208344947+205550159+202767933+200023929+197313207+194602856+191904062
5819.01+189261052+186683398+184149098+181643379+179179507+176780357+174480729
5812.26+172293879+170202902+168217908+166374476+164707346+163226999+161932286
5805.51+160835098+159944229+159248601+158730627+158377459+158178486+158134760
5798.76+158242310+158487414+158868516+159382362+160002275+160713910+161549545
5792.01+162529540+163638918+164867116+166201547+167626995+169157025+170821702
5785.26+172619136+174533882+176570437+178744367+181074765+183557323+186170855
5778.51+188922061+191833036+194898433+198096682+201416657+204851600+208385000
5771.76+212002310+215722768+219561184+223479036+227450746+231492394+235592614
5765.01+239721139+243878017+248067699+252266328+256457350+260653587+264856212
5758.26+269039984+273197077+277343715+281482169+285598492+289671555+293696981
5751.50+297691350+301631716+305473769+309206429+312827951+316327663+319697692
5744.75+322932393+326022435+328962600+331729777+334295611+336668861+338864217
5738.00+340861868+342611880+344086353+345280670+346179925+346783544+347109113
5731.25+347173667+346981058+346536814+345872948+345043295+344098077+343069499
5724.50+341987445+340897112+339835563+338798802+337794462+336848717+335959463
5717.75+335117345+334305397+333512256+332734189+331957055+331174585+330380296
5711.00+329548178+328653661+327704901+326703217+325633820+324501137+323335460
5704.25+322169974+321000588+319825364+318660931+317525545+316419469+315326791
5697.50+314263472+313265759+312351143+311496008+310680089+309905419+309167262
5690.75+308470497+307816895+307205811+306640355+306135338+305683294+305264101
5684.00+304907475+304645217+304491201+304447870+304510773+304702353+305063213
5677.25+305604049+306299067+307141808+308129591+309262776+310555623+312023469
5670.50+313673419+315499302+317505136+319690754+322058429+324601389+327312410
5663.75+330218217+333310388+336531954+339856977+343290747+346798594+350351303
5657.00+353959019+357614110+361302865+365020667+368774095+372576215+376448462
5650.25+380399979+384406526+388457912+392572608+396777626+401084500+405490549
5643.50+409981226+414540812+419167344+423854075+428608806+433437804+438326332
5636.74+443257114+448218379+453215485+458262646+463376035+468561348+473813416
5629.99+479125587+484481065+489858747+495253034+500670817+506098075+511509685
5623.24+516898564+522260742+527574397+532817277+537994789+543118850+548181276
5616.49+553174075+558087535+562893420+567579673+572163568+576640416+580987247
5609.74+585202481+589286072+593224381+597007359+600631609+604110480+607458665
5602.99+610657500+613683155+616544818+619252297+621787793+624147142+626352069
5596.24+628421427+630352060+632136023+633783605+635312033+636740830+638087560
5589.49+639358777+640546012+641651275+642698204+643700057+644665541+645599441
5582.74+646494151+647336126+648121491+648868094+649590628+650302156+651021196
5575.99+651743634+652427981+653048157+653623926+654177394+654724738+655265286
5569.24+655781813+656273886+656764045+657271814+657787766+658301038+658825173
5562.49+659382518+659975418+660591670+661220842+661864466+662549675+663284028
5555.74+664039102+664789056+665547384+666346674+667162856+667968989+668772825
5548.99+669562210+670328673+671090398+671849252+672580830+673263885+673887554
5542.24+674457054+674980328+675452829+675857953+676193930+676478895+676693468
5535.49+676833678+676943979+677025903+677055046+677033273+676966518+676847459
5528.73+676674470+676451092+676198476+675949353+675692669+675405263+675093979
5521.98+674772789+674450833+674141941+673844630+673551865+673261971+672956333
5515.23+672666057+672433347+672228153+672022959+671818770+671618887+671452167
5508.48+671316025+671139017+670940283+670797298+670701544+670623591+670561382
5501.73+670542337+670592247+670674220+670740353+670828307+670987083+671192421
5494.98+671477577+671847338+672109190+672241408+672456556+672802246+673172964
5488.23+673507122+673824197+674180990+674581759+675004493+675459481+675953516
5481.48+676498706+677094333+677736618+678397277+679106221+680015956+680953398
5474.73+681605061+682236578+683051181+683915169+684784803+685698558+686659208
5467.98+687625889+688528828+689459475+690522053+691565729+692516522+693631499
5461.23+694885202+695927394+696883690+698016612+699277254+700507413+701690007
5454.48+702923228+704232824+705564671+706934226+708459639+710033958+711405188
5447.73+712807714+714589476+716443783+717964411+719491020+721349538+723423347
5440.98+725341347+727029699+728807729+730718694+732686556+734931919+737260833
5434.23+739183139+740955331+742889409+744961017+747220592+749570178+751650783
5427.48+753499682+755422563+757505943+759672061+761840475+763971852+766110358
5420.73+768285520+770494180+772706619+774917815+777102882+779341306+781950400
5413.97+784493600+786499984+788656532+791097374+793327137+795399271+797507726
5407.22+799686860+801921072+804205579+806519371+808777846+811012680+813289626
5400.47+815598346+817906683+820257992+822740515+825096131+827281294+829800089
5393.72+832325392+834318761+836298347+838486286+840680063+842800146+844919464
5386.97+847231916+849446174+851239612+852967013+854781602+856544223+858277748
5380.22+859969355+861630814+863501487+865370054+866792631+868145055+869615772
5373.47+870956328+872261473+873619735+874952444+876252899+877513445+878712069
5366.72+879845709+880988919+882170316+883273426+884272215+885248131+886214476
5359.97+887160340+888093763+889000770+889880501+890779661+891730693+892641624
5353.22+893338748+893835463+894347300+895021646+895734465+896243143+896628839
5346.47+897256576+898146452+898702026+898885878+899138542+899504618+900034256
5339.72+900823258+901411564+901579624+901756872+901993553+902219611+902577839
5332.97+903020098+903312671+903482454+903744689+904219679+904753719+904969728
5326.22+904994133+905184014+905484244+905768300+906073220+906404555+906724501
5319.47+907040235+907390903+907767794+908130424+908473531+908823050+909183192
5312.72+909543813+909902616+910249933+910640893+911143733+911568573+911719789
5305.97+911833201+912076581+912341305+912553198+912747290+912973157+913157583
5299.21+913242570+913312627+913414267+913543470+913683871+913814510+913929836
5292.46+914120100+914459857+914698739+914697495+914749559+914980115+915316905
5285.71+915688628+915945982+916116818+916369386+916713833+917052920+917284816
5278.96+917469529+917708315+917973134+918225320+918454728+918678202+918902059
5272.21+919113091+919352930+919671058+919942289+920092165+920271614+920534232
5265.46+920909974+921282654+921451097+921643275+921934604+922170807+922443474
5258.71+922818164+923219173+923703733+924323239+924786744+925001413+925279631
5251.96+925691837+926125386+926652727+927317024+927803977+928050995+928429512
5245.21+928998390+929410214+929600286+929851993+930220271+930601947+930973765
5238.46+931308737+931596334+931873021+932172485+932453000+932668052+932906073
5231.71+933164097+933294066+933350533+933475046+933705507+934062969+934363295
5224.96+934412680+934441009+934595000+934765261+934937054+935169141+935422284
5218.21+935634082+935829992+936050595+936303068+936594972+936918937+937242041
5211.46+937568208+938003001+938511679+938920728+939382893+939912243+940209124
5204.71+940450304+940842507+941278258+941701279+942129660+942565889+943040208
5197.96+943549078+943980330+944318747+944686355+945101337+945519190+945924888
5191.21+946328768+946751120+947158445+947510452+947847242+948244327+948643326
5184.45+948917333+949143870+949431754+949743564+950016997+950245161+950440114
5177.70+950616979+950797002+950978940+951161643+951340326+951500347+951676638
5170.95+951875611+952052667+952220823+952410226+952616951+952843009+953110699
5164.20+953398583+953659765+953945640+954307313+954703920+955110001+955541540
5157.45+955998633+956483576+957002399+957531941+958056603+958570736+959066781
5150.70+959561487+960048344+960503044+960934392+961361720+961783497+962180390
5143.95+962552496+962930822+963305704+963641058+963953443+964272336+964600417
5137.20+964930316+965251219+965563221+965859718+966120709+966356338+966603260
5130.45+966862145+967104856+967324119+967518306+967682538+967825045+967958268
5123.70+968088428+968208635+968320133+968441297+968557676+968642471+968715782
5116.95+968799142+968888627+968982228+969072766+969163591+969266954+969367733
5110.20+969447456+969515599+969588048+969660593+969734287+969817743+969907898
5103.45+970000446+970093377+970204013+970356664+970546450+970759875+970985167
5096.70+971209981+971439676+971692053+971968452+972247723+972516753+972788080
5089.95+973068690+973346142+973619384+973885830+974130072+974361298+974594917
5083.20+974827291+975061867+975306205+975550351+975784257+976012995+976238000
5076.45+976455445+976672793+976908135+977164149+977433657+977723360+978037372
5069.69+978364974+978693246+979011278+979326821+979652031+979979442+980303407
5062.94+980625267+980943011+981253769+981551703+981830112+982089380+982330177
5056.19+982539965+982714724+982870342+983013327+983127888+983203878+983257857
5049.44+983307528+983355860+983393664+983422471+983466975+983547846+983654080
5042.69+983763377+983877554+984009437+984147158+984276457+984407384+984549890
5035.94+984698043+984849929+984995498+985122309+985244334+985383586+985534707
5029.19+985677309+985806895+985940692+986091429+986253938+986419702+986586517
5022.44+986736680+986860524+986987143+987141422+987308620+987456869+987575545
5015.69+987680630+987784950+987876254+987938271+987969759+987978468+987967079
5008.94+987941238+987923628+987918939+987917599+987924968+987928796+987913005
5002.19+987885059+987846681+987798636+987757865+987730780+987707620+987679290
4995.44+987646846+987621484+987613253+987616986+987625695+987648760+987697188
4988.69+987770977+987861706+987959518+988051779+988129684+988211608+988317555
4981.94+988435561+988546197+988652335+988774552+988937252+989145700+989385923
4975.19+989664428+990006865+990419932+990893582+991424656+992017747+992670846
4968.44+993382708+994153813+994984256+995864561+996770516+997693410+998632766
4961.69+999574515+1000517508+1001468253+1002412969+1003332322+1004229855
4955.90+1005116668+1005985010+1006826650+1007651638+1008470500+1009288883
4950.11+1010108224+1010922109+1011728816+1012529303+1013325195+1014115154
4944.33+1014892862+1015668752+1016448375+1017218235+1017966945+1018698044
4938.54+1019426464+1020160435+1020896798+1021631247+1022360911+1023081291
4932.75+1023784349+1024466830+1025133327+1025791882+1026444598+1027084872
4926.97+1027715097+1028343217+1028961000+1029549019+1030111101+1030670217
4921.18+1031233926+1031779930+1032302868+1032820639+1033320321+1033792056
4915.40+1034249915+1034689206+1035098637+1035485481+1035852802+1036194664
4909.61+1036515375+1036826038+1037132585+1037428795+1037704716+1037960634
4903.82+1038209758+1038450937+1038670487+1038874915+1039071687+1039247691
4898.04+1039409147+1039579217+1039765557+1039952471+1040125412+1040287826
4892.25+1040455216+1040639546+1040847037+1041075583+1041314753+1041564929
4886.46+1041838936+1042140602+1042462461+1042807291+1043176525+1043558871
4880.68+1043952319+1044359262+1044773383+1045194873+1045626795+1046049624
4874.89+1046449963+1046844847+1047249684+1047666102+1048091133+1048518078
4869.11+1048935740+1049347659+1049784941+1050261270+1050752243+1051248480
4863.32+1051761847+1052286987+1052819975+1053372582+1053952849+1054557903
4857.53+1055157885+1055721308+1056260899+1056805084+1057364487+1057933077
4851.75+1058496882+1059064133+1059655023+1060255005+1060838430+1061413145
4845.96+1061997527+1062579899+1063130401+1063641568+1064127372+1064592121
4840.17+1065031413+1065446778+1065837163+1066202856+1066538211+1066837005
4834.39+1067104121+1067355446+1067609641+1067857042+1068084727+1068299587
4828.60+1068504016+1068693418+1068865498+1069018723+1069158741+1069293879
4822.82+1069419254+1069533048+1069647130+1069753460+1069836054+1069903240
4817.03+1069971478+1070051010+1070146142+1070247686+1070343584+1070432304
4811.24+1070519013+1070607159+1070689083+1070757609+1070825560+1070894373
4805.46+1070943566+1070968162+1070978977+1070977350+1070960410+1070935527
4799.67+1070910930+1070878677+1070838863+1070806419+1070766222+1070696740
4793.88+1070615772+1070543323+1070477573+1070422063+1070378995+1070338320
4788.10+1070303004+1070285873+1070294104+1070336502+1070412684+1070510400
4782.31+1070621802+1070757322+1070919065+1071088752+1071250687+1071400946
4776.53+1071544122+1071675718+1071787886+1071897661+1072010307+1072110703
4770.74+1072195498+1072269096+1072345279+1072442995+1072544060+1072623018
4764.95+1072705229+1072814622+1072928225+1073021443+1073096668+1073174477
4759.17+1073265206+1073350863+1073416613+1073474420+1073533375+1073590320
4753.38+1073642959+1073693683+1073732827+1073741823+1073723160+1073694448
4747.60+1073653199+1073581515+1073488010+1073391347+1073277361+1073130548
4741.81+1072961913+1072778827+1072580237+1072368439+1072153770+1071940154
4736.02+1071713331+1071463346+1071197953+1070927870+1070660563+1070388949
4730.24+1070095418+1069777578+1069450454+1069112133+1068740697+1068330213
4724.45+1067896473+1067443208+1066954245+1066424129+1065860420+1065261203
4718.66+1064617771+1063923901+1063180838+1062391167+1061548187+1060645390
4712.88+1059675312+1058618525+1057473305+1056256114+1054969536+1053608594
4707.09+1052168216+1050644286+1049039103+1047359555+1045613109+1043790097
4701.31+1041870710+1039847864+1037716775+1035465000+1033094550+1030619492
4695.52+1028058395+1025439491+1022784124+1020114974+1017453577+1014762128
4689.73+1011947792+1008954390+1005774552+1002392679+998782738+994935541
4683.95+990847069+986489854+981830686+976853487+971541220+965887665+959927276
4677.20+953732789+947419914+941182839+935282649+929963300+925400221+921663565
4670.45+918688155+916322586+914418799+912870751+911592404+910504512+909530893
4663.69+908594504+907634666+906611185+905482522+904208385+902764084+901133442
4656.94+899307655+897287872+895075528+892671772+890103114+887417120+884659634
4650.19+881900138+879226777+876699177+874338776+872149210+870114018+868211188
4643.44+866450003+864851710+863427506+862162749+860990540+859823690+858594249
4636.69+857256946+855774171+854117305+852254289+850133057+847732747+845073933
4629.94+842177003+839079473+835889969+832785261+829941543+827449833+825279121
4623.19+823310541+821401011+819439035+817372643+815198198+812940107+810624592
4616.44+808286681+805980545+803767149+801699321+799807784+798104071+796605839
4609.69+795344336+794330042+793547979+792986853+792635994+792469131+792440802
4602.94+792499852+792625802+792825828+793105003+793475529+793956740+794546912
4596.19+795241882+796040885+796914826+797805707+798650075+799395291+800000010
4589.44+800455093+800839066+801327598+802087218+803166784+804506766+806000835
4582.69+807520554+808932698+810141180+811118436+811905906+812585707+813253258
4575.94+814022927+815008509+816277764+817846580+819669591+821637023+823616896
4569.19+825496470+827200518+828689993+829943744+830952966+831729143+832302902
4562.44+832718458+833019262+833227806+833346482+833375289+833327436+833206846
4555.69+832993422+832674433+832253517+831735364+831134712+830462759+829721132
4548.93+828936150+828147818+827371928+826610585+825865800+825135658+824411066
4542.18+823670205+822899291+822104643+821280422+820411984+819513398+818594428
4535.43+817640811+816656569+815651367+814624153+813571289+812483876+811356170
4528.68+810189416+808980168+807726035+806432661+805096890+803716999+802302796
4521.93+800860217+799391080+797885861+796329822+794734544+793129120+791511208
4515.18+789851567+788130578+786349774+784525088+782658339+780736846+778755680
4508.43+776720919+774648593+772549470+770426324+768270112+766060974+763792546
4501.68+761472198+759095957+756647028+754112632+751496169+748808740+746044506
4494.93+743187629+740233945+737192594+734080038+730895176+727627576+724286282
4488.18+720872491+717361366+713745539+710041758+706245573+702342531+698334835
4481.43+694233873+690038354+685735117+681317990+676775393+672096701+667291006
4474.68+662365488+657309379+652108227+646762846+641284241+635671457+629908941
4467.93+623985159+617898629+611650452+605238904+598651352+591873584+584896030
4461.18+577717732+570348596+562782353+554992493+546956476+538674542+530155592
4454.43+521386801+512338309+502995759+493371211+483475767+473305072+462847163
4447.68+452091464+441037544+429699234+418091415+406210881+394045693+381597694
4440.93+368896528+355973969+342826238+329448141+315881193+302190760+288424791
4434.17+274633723+260895436+247286688+233868946+220701619+207848112+195372454
4427.42+183314385+171682795+160480052+149710284+139370177+129454814+119962903
4420.67+110889551+102229638+93984707+86159256+78754571+71774103+65227945
4413.92+59120509+53452454+48231111+43450283+39079744+35099393+31503006+28265272
4406.21+25351387+22743522+20429174+18386337+16593635+15033472+13683346+12523066
4398.49+11543110+10729420+10059574+9510365+9056730+8684365+8390425+8165338
4390.78+7987192+7833954+7703498+7599821+7514511+7434343+7343913+7239046+7137491
4382.10+7051483+6972855+6898677+6834560+6778592+6734629+6711916+6708756+6722023
4373.42+6749075+6780243+6808859+6832528+6842769+6830232+6791562+6720731+6611862
4364.74+6465289+6275266+6037438+5766150+5475268+5159815+4814206+4451149+4087642
4356.06+3729796+3378776+3036789+2709829+2404011+2116660+1849288+1609318+1389657
4347.38+1184493+1001859+844529+710106+598398+506996+430545+361921+296227+238682
4337.74+197262+171908+157792+144815+125670+106624+96188+95344+101026+110538
4328.09+120636+126869+129263+134689+146154+165655+192217+219505+252346+296976
4318.45+344970+395393+455968+519827+577537+638365+717161+810264+902113+988015
4308.81+1077756+1181308+1297840+1415195+1525452+1634433+1744810+1855568+1974875
4300.13+2105852+2243273+2384859+2525852+2662139+2791674+2910239+3020128+3117543
4291.45+3185509+3228132+3266907+3287384+3257333+3189528+3113289+3025512+2914769
4282.77+2781863+2630408+2465403+2292508+2115380+1936224+1756608+1583252+1425402
4274.09+1285551+1159995+1044640+938619+843803+763162+695301+634568+573315
4265.41+508910+455132+420356+394895+374405+361643+353977+350703+357223+378572
4255.77+410056+440805+475201+522146+578712+644564+718463+803840+912024+1033454
4246.12+1155774+1288934+1436623+1592987+1759086+1931872+2105397+2277588+2445082
4237.44+2610084+2778328+2941570+3086677+3216259+3341182+3467011+3591521+3709938
4228.76+3819941+3921654+4020453+4119752+4217761+4313715+4404094+4482362+4547530
4220.08+4607687+4666870+4721794+4769782+4804849+4822070+4825150+4824235+4823445
4211.41+4819179+4812943+4808507+4805978+4807807+4816593+4830763+4849341+4868319
4202.73+4885436+4907403+4932754+4949835+4959236+4972486+4987172+4995823+5004933
4194.05+5018098+5027920+5027670+5022217+5019035+5015185+5011173+5008243+4996284
4185.37+4969386+4930446+4874316+4793892+4698133+4600291+4499075+4385206+4255433
4176.69+4119202+3992059+3876850+3765032+3656565+3563300+3491988+3435894+3394920
4168.01+3377319+3378885+3389939+3412023+3453663+3514255+3586203+3665306+3751544
4159.33+3851478+3968789+4096490+4224496+4347274+4470423+4604586+4751676+4902034
4150.65+5041301+5162663+5272351+5381623+5488859+5580295+5653236+5715139+5770581
4141.97+5822407+5867270+5900303+5922360+5931588+5931381+5934796+5937716+5926859
4133.29+5913177+5910614+5910425+5903537+5892306+5879115+5866250+5854283+5838122
4124.61+5818605+5802623+5787300+5768025+5751767+5743207+5744425+5761630+5785579
4115.93+5795730+5796897+5808969+5828568+5853162+5894218+5946603+5998200+6045841
4107.25+6094731+6147671+6205994+6276713+6349538+6406405+6451378+6498425+6544740
4098.57+6582813+6612646+6632545+6648567+6666887+6683245+6690354+6685026+6666875
4089.89+6635471+6598138+6556973+6503522+6431616+6342542+6236837+6114677+5987223
4081.22+5855760+5712877+5561773+5410018+5254346+5088590+4919543+4750720+4587982
4072.54+4439914+4314155+4218424+4147863+4095862+4057700+4039093+4047027+4072243
4063.86+4103482+4137884+4181025+4238245+4318970+4427255+4572402+4782703+5071284
4055.18+5431506+5855591+6345398+6892224+7481704+8115763+8784200+9463619
4047.46+10141551+10821153+11504263+12180399+12834189+13464199+14086615+14710751
4039.75+15344755+15993318+16646755+17306509+17994613+18723488+19478171+20247135
4032.03+21027280+21810873+22591629+23365364+24123523+24860498+25590335+26308769
4024.32+26982477+27601595+28179687+28721474+29221915+29685779+30122687+30546318
4016.60+30972797+31406430+31863696+32369694+32919676+33501530+34128977+34823412
4008.89+35584151+36394468+37265472+38216776+39238571+40328626+41484508+42674471
4001.17+43870861+45064933+46253188+47428035+48579565+49725249+50886733+52045550
3993.46+53198462+54367328+55564444+56799634+58070654+59378688+60726650+62101032
3985.74+63483640+64867605+66272847+67707811+69140927+70546145+71910885+73205138
3978.03+74406083+75506704+76486292+77330223+78044467+78638240+79110155+79458089
3970.31+79701129+79861227+79948840+79981883+79983773+79967419+79948362+79946806
3962.60+79977737+80040796+80127547+80244249+80404928+80628091+80908229+81219441
3954.88+81559707+81934564+82319835+82688429+83074771+83492218+83907780+84333134
3947.17+84754791+85153928+85538158+85912417+86286593+86623670+86911476+87188892
3939.45+87446910+87658714+87848978+88062175+88315707+88590025+88877502+89178097
3931.74+89449634+89703249+89949657+90155933+90333612+90504645+90687396+90876912
3924.02+91038506+91169599+91287653+91396686+91461396+91477217+91462610+91394658
3916.31+91285410+91173314+91051205+90914865+90786930+90671981+90577100+90511613
3908.59+90476729+90465178+90461398+90479528+90527973+90581539+90648120+90734082
3900.88+90832450+90975483+91112373+91189076+91253025+91301608+91318596+91303654
3893.16+91275086+91220730+91099160+90994846+90949762+90954488+91032195+91215395
3885.45+91408207+91590539+91860329+92186035+92635489+93285633+93870081+94396183
3877.73+95012525+95665756+96349535+97214066+98027964+98592134+99131013+99872419
3870.02+100798891+101416016+101832936+102272646+102829764+103484418+103952433
3863.27+104319012+104774860+105215719+105566721+105920355+106309879+106672953
3856.52+106913893+107143528+107590129+107946132+108016081+108039768+108100829
3849.77+108195985+108272586+108339712+108417999+108508597+108619126+108715239
3843.02+108777699+108887653+109062138+109196952+109343586+109561736+109740395
3836.27+109934021+110181194+110370465+110552283+110815929+111009483+111072817
3829.51+111115944+111158893+111172602+111139117+111122345+111177160+111320445
3822.76+111624371+112291994+113079536+113685368+114353756+115187321+116488458
3816.01+118129544+119269584+120296882+121499693+122759522+124010246+125211215
3809.26+126277908+127408951+128892852+130099288+130906701+131740744+132687338
3802.51+133894600+135288429+136191907+136867593
##END=
