##TITLE=Ρμερό_3_2,1μμ
##JCAMP-DX=4.24
##DATA TYPE=INFRARED SPECTRUM
##DATE=7/4/2017
##SAMPLING PROCEDURE=Instrument type and / or accessory
##ORIGIN=Default
##XUNITS=1/CM
##YUNITS=TRANSMITTANCE
##RESOLUTION=2
##FIRSTX=7998.4873
##LASTX=3799.619
##DELTAX=-0.96437031
##MAXY=0.75402772
##MINY=5.8602684e-005
##XFACTOR=1
##YFACTOR=7.0224304e-010
##NPOINTS=4355
##FIRSTY=0.33819106
##XYDATA=(X++(Y..Y))
7998.49+481586918+482120373+482526894+482930996+483354237+483737884+484136172
7991.74+484670900+485293519+485860755+486307296+486605343+486864771+487255887
7984.99+487769099+488365661+489035769+489589340+489834551+489970737+490328665
7978.24+490857962+491358569+491823825+492298970+492758327+493179149+493617584
7971.48+494098882+494537996+494910014+495295316+495718303+496163316+496636168
7964.73+497077998+497442589+497796529+498220916+498710320+499177019+499587147
7957.98+500001519+500455317+500933389+501468160+502119043+502745058+503157562
7951.23+503462739+503802759+504147531+504502786+504949114+505507651+506031218
7944.48+506336862+506480475+506679512+507074108+507748460+508531879+509011819
7937.73+509211791+509471219+509797997+510141581+510604673+511121662+511560479
7930.98+511986819+512464297+512925903+513313878+513703254+514355623+515196334
7924.23+515619619+515538815+515583036+516041545+516619391+517053030+517456835
7917.48+517959819+518443833+518918298+519397262+519700954+519921466+520279522
7910.73+520714731+521142599+521647280+522219779+522628549+522818251+523064650
7903.98+523548876+524347743+525546681+526603576+526725587+526426224+526792386
7897.23+527713646+528405440+528492652+528226731+528159593+528449959+528918440
7890.48+529513941+530126926+530832937+532130927+533542312+533691357+532810244
7883.73+532363194+532661836+533086945+533408758+533822451+534386292+534899759
7876.98+535191525+535367731+535642776+536026295+536479838+536965507+537425968
7870.23+537982467+538561035+539015002+539913686+541489479+542459247+542074752
7863.48+541592096+541894642+542409424+542851636+543253107+543330133+543242539
7856.72+543319566+543526285+543874240+544415971+545386927+546875679+548021440
7849.97+548248106+548166751+548098934+547836492+547615684+547732390+548096812
7843.22+548842630+550334013+551838128+552032115+551287145+550894247+551467255
7836.47+553043473+554617060+555095981+554692898+554000298+553482248+553484709
7829.72+553861438+554280139+554610270+554913537+555276940+555649680+555961902
7822.97+556292754+556738361+557254417+557739449+558133535+558431668+558698098
7816.22+559026744+559667569+560998873+562593297+563412577+563856020+565195217
7809.47+566681593+566529280+565393576+565568551+567408696+568688267+567866865
7802.72+566360840+566251221+567922672+569837593+570102114+569094109+568224029
7795.97+567728217+567597081+567820182+568102654+568387461+568894901+569725258
7789.22+570463692+570750663+571045273+571885178+573441111+575460262+576501072
7782.47+575563643+573967691+573184993+573164325+573435424+573798954+574228604
7775.72+574903041+576300337+578718540+580961131+581088702+579434057+578152534
7768.97+578260201+579092001+579498989+579285564+579371248+580498336+582549996
7762.22+584588372+585200721+583909139+582126627+581337520+581453718+581815593
7755.47+582162742+582494359+582842314+583347378+584503155+586617029+588723859
7748.72+589175492+587909968+586531812+586190944+586937654+588290305+589934043
7741.96+591843108+593401713+593795460+592934887+591344622+590020533+589569494
7735.21+589793698+590511379+591857112+593916793+595871395+596383673+595462200
7728.46+594416339+594065413+594479191+595713395+596924725+596722377+595556923
7721.71+594916098+595065313+595476035+595912390+596549693+597780714+599373611
7714.96+600106655+599666905+599407604+600449603+602750081+605311939+606777773
7708.21+606606448+605793024+605914527+606727993+606410593+604785613+603503071
7701.46+603466532+604079814+604336399+604065809+603850518+603959628+604239766
7694.71+604620611+605057858+605464803+605960997+606805486+608296359+610117194
7687.96+610801477+609878689+608896359+609183329+610793923+612618153+613534363
7681.21+613690835+613449868+613327601+614393196+616346525+617265451+616324457
7674.46+614820130+614204726+614988145+616684380+617607253+616804482+615516508
7667.71+615067081+615641744+617245166+619214112+619854258+618821468+617690773
7660.96+617368875+617559891+618012119+618692412+619477359+620471912+621811915
7654.21+622625297+622277384+621635667+621447579+621732003+622310613+622929031
7647.46+623552626+624550064+626352863+628368576+629542475+629817011+629384985
7640.71+628308101+627269455+626961307+627125121+627307989+627952676+629687318
7633.96+632002480+633290666+632636939+631042685+629928285+629585083+629669749
7627.20+629931214+630253239+630602722+630987217+631383850+631744622+632078530
7620.45+632444692+632863817+633395829+634323753+636076728+638287066+639408680
7613.70+638723548+637421103+636688610+636604114+636910098+637643058+638932432
7606.95+640338683+641419386+642655457+643995376+644286336+643347548+642145555
7600.20+641407290+641280781+641603103+642260097+643048397+643974750+645176786
7593.45+645797962+645201231+644334376+644039257+644175825+644488472+644894101
7586.70+645324006+645687282+645975908+646292713+646679754+647097224+647533707
7579.95+647960641+648327906+648656552+648986343+649340240+649764840+650294348
7573.20+650884968+651559999+652410812+653091020+653129597+652837618+652822383
7566.45+653156333+653608009+653995305+654336131+654913001+656078836+657605103
7559.70+658378422+657970671+657401185+657312106+657442266+657625856+657875566
7552.95+658197591+658569821+658935601+659297858+659701281+660117605+660503586
7546.20+660914138+661416995+661983001+662658329+663750533+665133230+665833681
7539.45+665448125+664812690+664629354+664833952+665182586+665722831+666717469
7532.70+667785864+668045420+667648957+667468592+667661476+667976329+668398298
7525.95+668860796+669205271+669533705+670121736+671134876+672311067+673002309
7519.20+672959276+672598080+672408803+672647563+673409297+674309168+674626398
7512.44+674393749+674251706+674493352+675083463+675843839+676711669+677835405
7505.69+678894931+679259734+679029334+678850879+679178634+680063694+680933137
7498.94+681085959+680679395+680455149+680638272+680916925+681206782+681678319
7492.19+682495520+683607755+684546839+684877904+684578669+684017755+683731803
7485.44+683940941+684510130+685133640+685461437+685472344+685513170+685879629
7478.69+686537047+687098937+687350980+687720749+688416108+688962804+689298665
7471.94+689776865+690267542+690437466+690290756+690142602+690394221+691125314
7465.19+691810318+691936021+691718480+691643236+691825426+692091347+692322087
7458.44+692609312+692996523+693413612+693914304+694462698+694822069+694990763
7451.69+695184581+695408361+695532239+695637318+695966176+696553783+697125984
7444.94+697374633+697277363+697144233+697244134+697585723+698098044+698587618
7438.19+698761956+698678055+698671986+698839025+699082284+699366581+699702993
7431.44+700100177+700449363+700641738+700827408+701212285+701771416+702301688
7424.69+702587343+702625962+702608181+702675064+702896467+703178473+703294033
7417.94+703246120+703185899+703191035+703298489+703422835+703488700+703600951
7411.19+703776774+703906425+704005689+704127488+704249457+704409621+704681653
7404.44+704913793+704828237+704542157+704419891+704471836+704453036+704286464
7397.68+704111956+704013965+703954083+703893438+703775798+703562756+703302012
7390.93+703064100+702869009+702664836+702362163+702032456+701838342+701761655
7384.18+701700882+701500826+701017576+700338938+699746068+699451077+699348375
7377.43+699084151+698327213+697290562+696487875+695895642+695278031+694692673
7370.68+694242143+693705802+692913980+692129033+691508366+690908282+690261812
7363.93+689675945+689134002+688521356+687903066+687342620+686708840+686014923
7357.18+685448918+684911983+684268738+683748906+683430870+683101333+682697231
7350.43+682288843+681767780+681083625+680433972+680035345+679915795+679864953
7343.68+679789752+679847638+679965363+679759578+679298014+679065577+679032093
7336.93+679000306+679053524+679210505+679342405+679458390+679654202+679903954
7330.18+680169324+680448486+680560100+680503614+680594900+680855474+680980965
7323.43+680872959+680778235+680824197+680906952+680927195+680902157+680840323
7316.68+680683215+680527465+680578476+680719245+680596767+680141696+679580529
7309.93+679161828+678991606+678812727+678311058+677781889+677555733+677493560
7303.18+677334924+677040314+676724952+676333200+675752171+675154803+674738394
7296.43+674511771+674234646+673596961+672761257+672069251+671544665+671065786
7289.68+670588732+670079976+669499032+668915839+668385906+667862933+667299092
7282.92+666709532+666131389+665567124+665018900+664507682+664008985+663431478
7276.17+662775417+662196086+661679182+661040351+660331412+659706204+659159168
7269.42+658611411+657997450+657316859+656607453+655918969+655286165+654643600
7262.67+653930416+653228097+652621902+652051058+651420249+650730364+650019515
7255.92+649366764+648830678+648264121+647550088+646856724+646313126+645837982
7249.17+645364705+644928689+644501288+644045963+643737688+643638126+643349670
7242.42+642765458+642257678+641836558+641374231+640934438+640553126+640168673
7235.67+639794660+639517832+639233195+638723845+638112388+637640299+637288354
7228.92+636990646+636788723+636566811+636155324+635700338+635345466+635055609
7222.17+634840232+634716396+634557760+634283478+634002109+633740602+633387087
7215.42+632963548+632557961+632110232+631615650+631162023+630743322+630315412
7208.67+629873242+629495495+629172409+628725995+628180021+627653865+627092867
7201.92+626536113+626062200+625627627+625226326+624888810+624563984+624160476
7195.17+623658893+623191260+622877213+622659672+622437717+622214235+622045159
7188.42+621946574+621879266+621820064+621831437+621987315+622292110+622634336
7181.67+622820345+622952075+623329101+623951550+624621192+625269146+625963063
7174.92+626726578+627523493+628391408+629384093+630492679+631676550+632782250
7168.16+633796281+634982232+636307680+637535263+638752492+640159464+641717900
7161.41+643120373+644323724+645609449+647038235+648495369+649900220+651255883
7154.66+652621053+654024800+655395063+656680490+657950130+659231441+660485719
7147.91+661700953+662908845+664042214+665028618+666022279+667081169+668120749
7141.16+669152095+670116431+670882026+671596058+672434224+673251467+673913172
7134.41+674534348+675193889+675802673+676302814+676779825+677269823+677706391
7127.66+678073868+678456071+678866879+679214155+679487163+679742645+679975379
7120.91+680149081+680374473+680673284+680758077+680668361+680716190+680857511
7114.16+680930845+680929445+680881786+680829416+680815242+680767032+680625753
7107.41+680440126+680210447+679903997+679562195+679246663+678944669+678602315
7100.66+678222870+677838036+677452777+677076472+676683404+676206690+675637798
7093.91+675037078+674452526+673909140+673411334+672925155+672426458+671927972
7087.16+671463904+671069224+670696187+670306769+669961445+669701635+669498693
7080.41+669328386+669247370+669308652+669490459+669755659+670095297+670532840
7073.66+671083313+671708309+672343362+673047846+673914615+674874537+675903677
7066.91+677070361+678310804+679539618+680793131+682117178+683510103+684948098
7060.16+686398867+687881422+689433450+690994772+692491714+693971681+695480973
7053.40+696997819+698485934+699929064+701379324+702854665+704290198+705637968
7046.65+706905784+708168761+709476469+710766395+711942670+712989974+714003412
7039.90+715077367+716170589+717160940+718035263+718896176+719794689+720672493
7033.15+721495635+722299510+723057126+723751170+724439272+725134419+725840769
7026.40+726543895+727177505+727739479+728255959+728755293+729312175+729922529
7019.65+730491293+730977981+731410687+731813091+732189608+732548809+732892478
7012.90+733234535+733584994+733931464+734283536+734620160+734901614+735147080
7006.15+735372854+735596506+735846301+736083448+736259994+736421431+736608501
6999.40+736770023+736886220+736982980+737065057+737155536+737279797+737428587
6992.65+737571351+737699686+737825729+737947444+738067036+738180602+738294168
6985.90+738417156+738539040+738690037+738895610+739095751+739253199+739440863
6979.15+739684971+739938415+740213588+740515413+740824027+741174826+741614831
6972.40+742136404+742664427+743176493+743719199+744273365+744822353+745432028
6965.65+746126156+746856442+747560416+748216010+748890192+749619969+750349916
6958.90+751048458+751760156+752541708+753357381+754139188+754908772+755717655
6952.15+756542664+757311739+758047712+758845476+759700787+760535133+761307773
6945.39+762056817+762861965+763688927+764423626+765084737+765753403+766460602
6938.64+767203705+767938574+768641784+769327001+770001352+770655419+771292255
6931.89+771949631+772611251+773228905+773801658+774346827+774903623+775513468
6925.14+776172966+776816762+777389176+777922207+778485115+779095045+779710152
6918.39+780308793+780894957+781466013+782047509+782651412+783277978+783942909
6911.64+784622184+785296790+785969954+786607384+787235732+787939027+788717439
6904.89+789528274+790333507+791101394+791863084+792641072+793421011+794233459
6898.14+795077566+795903084+796691257+797448110+798202162+798988467+799801424
6891.39+800620916+801444737+802270511+803101886+803946672+804764212+805527855
6884.64+806294978+807100975+807902304+808668832+809405739+810116673+810811820
6877.89+811489991+812161457+812849814+813528325+814191812+814853857+815472529
6871.14+816043670+816622110+817218205+817782386+818302685+818836310+819383006
6864.39+819886839+820359182+820821256+821267796+821695749+822076085+822435286
6857.64+822825978+823203852+823544466+823862587+824144974+824427532+824731648
6850.89+825033557+825341408+825598502+825734645+825851691+826044788+826241788
6844.14+826390579+826532579+826694865+826861564+827020200+827200904+827435845
6837.39+827710169+827981438+828224697+828469738+828779117+829147910+829535630
6830.63+829942278+830349011+830734355+831139985+831609188+832122188+832637734
6823.88+833159221+833712707+834306171+834912366+835502859+836116608+836786547
6817.13+837460644+838084918+838673713+839262763+839864205+840481774+841124042
6810.38+841796102+842461967+843077838+843676139+844311702+844951933+845544548
6803.63+846147263+846821785+847487055+848077718+848665410+849301227+849961489
6796.88+850621327+851289822+852006104+852753620+853434422+853996651+854517205
6790.13+855099974+855757944+856446301+857100792+857696802+858276006+858867008
6783.38+859464461+860043410+860613787+861217776+861837976+862435598+863015566
6776.63+863585858+864148596+864733657+865348170+865944435+866499618+867032055
6769.88+867548280+868071041+868630129+869206872+869773259+870313759+870834568
6763.13+871377699+871938400+872445543+872883341+873333701+873861215+874424547
6756.38+874960464+875444690+875881979+876324191+876832862+877392969+877916069
6749.63+878372200+878847345+879379187+879906022+880406460+880901211+881377628
6742.88+881843861+882339630+882835315+883288561+883729500+884183170+884657296
6736.13+885153744+885631774+886086209+886584355+887109916+887547205+887927032
6729.38+888385116+888884960+889324201+889738403+890186641+890625204+891022176
6722.63+891426617+891861105+892307136+892761825+893199454+893609327+894039402
6715.87+894493836+894929682+895347194+895763773+896191301+896636399+897094568
6709.12+897540769+897945380+898340400+898774464+899247571+899753101+900269666
6702.37+900777064+901277077+901763765+902246803+902729162+903189113+903638200
6695.62+904089409+904528989+904963392+905422410+905903411+906377791+906859726
6688.87+907370943+907868241+908341687+908851462+909412587+909965903+910454883
6682.12+910911184+911414932+911939900+912424805+912919726+913471600+914031536
6675.37+914558201+915085545+915630544+916163999+916708658+917291173+917874281
6668.62+918439905+918991948+919538390+920110210+920687546+921216673+921740961
6661.87+922329078+922931029+923475348+924000061+924566194+925143276+925693537
6655.12+926264169+926868836+927436158+927963841+928524966+929130058+929728614
6648.37+930295427+930829646+931344003+931865491+932410744+932974161+933538087
6641.62+934080115+934596255+935114263+935650943+936174637+936677622+937195969
6634.87+937734347+938264916+938769683+939252805+939745774+940267346+940787900
6628.12+941281548+941751515+942222670+942731935+943264456+943787217+944290031
6621.37+944738609+945141353+945564297+946037150+946568568+947120272+947617145
6614.62+948089828+948600706+949116846+949598356+950058222+950526831+951014537
6607.87+951507930+951994363+952465943+952921056+953355884+953778404+954215523
6601.11+954685405+955187371+955677029+956112366+956537857+956992121+957451733
6594.36+957915758+958387253+958855607+959327526+959788496+960227652+960671307
6587.61+961126675+961558107+961966538+962397800+962859364+963339941+963830533
6580.86+964311958+964779633+965212763+965595391+965965033+966373209+966838083
6574.11+967335635+967837261+968294496+968678227+969041843+969429054+969830779
6567.36+970260005+970739987+971223874+971625939+971976652+972392637+972869564
6560.61+973313388+973724875+974159023+974615155+975038269+975393567+975744705
6553.86+976150929+976588472+977039427+977490720+977936412+978365723+978753613
6547.11+979144898+979569201+979981706+980395059+980839053+981272608+981682651
6540.36+982097787+982512499+982923900+983339036+983735329+984106838+984483270
6533.61+984888475+985308534+985718322+986132100+986550886+986960420+987348819
6526.86+987703692+988064931+988469797+988880943+989239381+989559200+989918656
6520.11+990347542+990809955+991246395+991637850+992006388+992364571+992758827
6513.36+993201464+993614647+993974952+994318706+994659744+995005705+995381543
6506.61+995797952+996239315+996690184+997108376+997464776+997844009+998309138
6499.86+998774351+999161648+999505232+999874449+1000279400+1000683077
6494.07+1001077842+1001476682+1001883075+1002313065+1002763849+1003193330
6488.28+1003597262+1004030052+1004531508+1005068613+1005569136+1006013555
6482.50+1006435905+1006870818+1007332891+1007796067+1008234205+1008660545
6476.71+1009108274+1009575525+1010012898+1010428883+1010886288+1011385707
6470.92+1011865859+1012294321+1012719218+1013175774+1013616883+1014019372
6465.14+1014419060+1014825623+1015222935+1015621265+1016020105+1016396621
6459.35+1016773138+1017174693+1017588981+1018003692+1018408134+1018783122
6453.57+1019117794+1019439141+1019789430+1020170191+1020543227+1020900816
6447.78+1021283529+1021682199+1022033422+1022323279+1022608382+1022935246
6441.99+1023278745+1023607900+1023923984+1024228864+1024554793+1024912977
6436.21+1025258683+1025586310+1025906043+1026217968+1026565457+1026949952
6430.42+1027311361+1027623710+1027906946+1028203423+1028526552+1028853585
6424.63+1029173828+1029478878+1029784776+1030121316+1030469313+1030793800
6418.85+1031093418+1031400250+1031715825+1032001437+1032282637+1032632247
6413.06+1033037283+1033394532+1033674119+1033961429+1034292112+1034604801
6407.28+1034863507+1035115763+1035405450+1035710415+1036016314+1036336811
6401.49+1036659346+1036959388+1037232184+1037498784+1037778625+1038044462
6395.70+1038274310+1038527075+1038861832+1039223326+1039533298+1039802784
6389.92+1040065396+1040333863+1040630680+1040954487+1041267770+1041558052
6384.13+1041837808+1042110689+1042376695+1042632855+1042895636+1043202808
6378.35+1043531878+1043823178+1044070765+1044315467+1044583511+1044869039
6372.56+1045162375+1045467765+1045790639+1046104516+1046359997+1046558101
6366.77+1046756630+1046989109+1047246797+1047524516+1047805885+1048047362
6360.99+1048252850+1048499420+1048809053+1049108076+1049375865+1049630328
6355.20+1049855338+1050059214+1050251292+1050440653+1050665918+1050921484
6349.41+1051172297+1051415387+1051667133+1051918201+1052142617+1052358376
6343.63+1052611481+1052876553+1053084079+1053259945+1053478504+1053723716
6337.84+1053949150+1054161768+1054384911+1054616627+1054835611+1055051200
6332.06+1055272645+1055491035+1055724194+1055952939+1056152571+1056357889
6326.27+1056574412+1056792887+1057031562+1057284158+1057509592+1057715081
6320.48+1057949003+1058178003+1058350304+1058520908+1058735818+1058941985
6314.70+1059114796+1059291681+1059487493+1059716747+1059988525+1060263528
6308.91+1060489302+1060650909+1060801736+1061007819+1061248107+1061463696
6303.12+1061656453+1061848616+1062042646+1062242278+1062438005+1062629234
6297.34+1062842616+1063062279+1063250962+1063432176+1063635627+1063831609
6291.55+1064006372+1064182747+1064373297+1064584982+1064808295+1065008012
6285.77+1065174626+1065341156+1065518804+1065679987+1065834464+1066035284
6279.98+1066263774+1066448807+1066610329+1066799436+1066970549+1067088275
6274.19+1067196409+1067331958+1067487029+1067640573+1067789702+1067937474
6268.41+1068086943+1068240572+1068381129+1068515660+1068680492+1068847870
6262.62+1068975696+1069088922+1069206478+1069334134+1069495740+1069678057
6256.83+1069849170+1070004751+1070136396+1070231628+1070312347+1070410720
6251.05+1070533538+1070665268+1070785709+1070883403+1070947910+1071020904
6245.26+1071164857+1071327058+1071438672+1071536026+1071637285+1071706715
6239.48+1071758914+1071846763+1071980360+1072124142+1072231512+1072272593
6233.69+1072284816+1072351020+1072484787+1072622798+1072734582+1072822175
6227.90+1072857909+1072859521+1072907138+1073003219+1073089709+1073147341
6222.12+1073200729+1073268631+1073321510+1073363269+1073424805+1073475562
6216.33+1073488888+1073492453+1073519189+1073562647+1073586752+1073590147
6210.54+1073598974+1073628596+1073678419+1073724168+1073741823+1073721028
6204.76+1073661104+1073597701+1073571559+1073592693+1073630379+1073618156
6198.97+1073544483+1073464613+1073410376+1073367513+1073317266+1073252674
6193.19+1073164316+1073063991+1072974276+1072868094+1072735685+1072616772
6187.40+1072505327+1072360017+1072182623+1072001749+1071834031+1071670812
6181.61+1071479328+1071245660+1070993489+1070736904+1070473360+1070211173
6175.83+1069949156+1069676445+1069388370+1069078822+1068745338+1068381893
6170.04+1067985854+1067574962+1067165683+1066750632+1066296877+1065811547
6164.25+1065331649+1064837747+1064318721+1063805722+1063277444+1062692892
6158.47+1062056905+1061398256+1060754799+1060151744+1059560997+1058951152
6152.68+1058343089+1057741902+1057122805+1056500144+1055888347+1055272900
6146.90+1054667299+1054093951+1053525866+1052947341+1052395298+1051886542
6141.11+1051401637+1050934386+1050474519+1049996235+1049505558+1049026254
6135.32+1048567152+1048102023+1047587496+1047042667+1046515323+1046000795
6129.54+1045450365+1044845527+1044249178+1043720221+1043231751+1042736746
6123.75+1042217125+1041691903+1041188495+1040721838+1040320283+1040011329
6117.97+1039784875+1039593731+1039395542+1039192770+1038993732+1038797920
6112.18+1038627401+1038470377+1038295105+1038133159+1038023073+1037929962
6106.39+1037794922+1037604032+1037409154+1037234136+1037041210+1036819679
6100.61+1036583126+1036323316+1036032355+1035730531+1035447040+1035190880
6094.82+1034980468+1034827519+1034703343+1034590541+1034495224+1034423163
6089.03+1034382761+1034365361+1034338370+1034285746+1034222852+1034160891
6083.25+1034115821+1034090782+1034063112+1034028058+1034006414+1034011931
6077.46+1034041299+1034083907+1034137720+1034198747+1034257821+1034322498
6071.68+1034392013+1034453549+1034505409+1034524167+1034490046+1034406696
6065.89+1034277428+1034137720+1034004037+1033820108+1033547057+1033224777
6060.10+1032901139+1032561459+1032171617+1031738402+1031261305+1030710281
6054.32+1030109093+1029509943+1028894411+1028223624+1027517528+1026799379
6048.53+1026041932+1025224562+1024357878+1023435514+1022454754+1021423237
6042.74+1020326790+1019185696+1018024148+1016800214+1015493440+1014153988
6036.96+1012819204+1011463116+1010056950+1008601300+1007083606+1005493765
6031.17+1003845698+1002163256+1000469695+998743541+996946939+995111972
6025.39+993271403+991388989+989428403+987404923+985340108+983215284+981015259
6018.64+978754801+976448424+974095620+971673555+969160077+966573520+963938073
6011.88+961240750+958446243+955561850+952635443+949652847+946569077+943445415
6005.13+940385156+937395516+934429980+931459691+928464024+925393835+922177147
5998.38+918793759+915275586+911604973+907744319+903723671+899596417+895375374
5991.63+891054005+886642750+882177090+877713806+873328609+869137102+865249373
5984.88+861700389+858487181+855604401+853023021+850679808+848480461+846330429
5978.13+844174540+841970865+839644627+837126905+834404629+831505043+828458110
5971.38+825282842+822017604+818721810+815425592+812133023+808862268+805631066
5964.63+802430844+799257698+796091258+792864215+789530735+786095233+782548965
5957.88+778860698+775030006+771107646+767140301+763127717+759056142+754937461
5951.13+750786780+746586956+742308535+737944303+733491713+728905272+724130657
5944.38+719184929+714076831+708722120+703046488+697016323+690582140+683701884
5937.63+676354844+668516108+660197772+651457467+642318026+632799140+622981740
5930.88+612946035+602698305+592195901+581428764+570427789+559210758+547783147
5924.13+536186289+524503536+512791203+501056419+489353295+477816489+466569072
5917.38+455699148+445291552+435401582+426053766+417259649+409018212+401329243
5910.63+394191850+387596188+381531096+375988933+370950943+366364714+362180083
5903.88+358376891+354927681+351798247+348954490+346344315+343937486+341725726
5897.12+339662863+337690395+335783536+333906322+331983252+329968896+327848677
5890.37+325569270+323074932+320349006+317377508+314128630+310583954+306750758
5883.62+302625222+298212122+293560452+288728609+283755083+278679599+273559893
5876.87+268452580+263405529+258470517+253715636+249201680+244961391+241032241
5870.12+237461995+234272277+231472359+229095555+227151096+225602569+224424809
5863.37+223618557+223194318+223135159+223389070+223926790+224748510+225810922
5856.62+227025477+228333015+229702875+231096903+232458657+233740392+234927192
5849.87+236006006+236941335+237702984+238310643+238775899+239053682+239112248
5843.12+238978650+238691510+238239961+237604568+236787940+235789038+234601687
5836.37+233224061+231673094+229965167+228107517+226109161+223979308+221718807
5829.62+219329590+216844610+214297075+211692396+209038404+206355319+203660946
5822.87+200976843+198320580+195687956+193078354+190499987+187962659+185465223
5816.12+182999149+180568809+178186318+175878551+173658219+171522022+169495508
5809.37+167613890+165883354+164291062+162851847+161600626+160555624+159706828
5802.62+159041823+158568047+158284344+158181505+158245566+158456253+158816144
5795.87+159345769+160051674+160923303+161937282+163066036+164315518+165693409
5789.11+167173174+168747811+170442826+172270695+174212204+176249296+178395435
5782.36+180670810+183071359+185593239+188257120+191066736+194003816+197065390
5775.61+200258249+203580822+207024982+210585148+214251623+218016938+221881751
5768.86+225830635+229839167+233903420+238020256+242165461+246315993+250475480
5762.11+254647252+258800203+262902842+266960454+270986619+274981189+278942528
5755.36+282865461+286745255+290577347+294352848+298073135+301727537+305294069
5748.61+308761676+312120258+315361497+318484013+321481251+324332711+327028272
5741.86+329566852+331938118+334127109+336115025+337886525+339426479+340723153
5735.11+341769757+342549102+343042431+343250657+343194617+342896272+342376228
5728.36+341650779+340755491+339743730+338651357+337509860+336337298+335138382
5721.61+333936835+332775711+331679645+330631429+329602310+328582952+327593153
5714.86+326643692+325718824+324788482+323827477+322844341+321844335+320810506
5708.11+319726005+318597325+317445410+316282948+315122376+313978757+312876877
5701.36+311829489+310843934+309922652+309061187+308285725+307617124+307037898
5694.61+306520464+306072714+305707252+305407677+305167198+304985072+304866328
5687.86+304798320+304756454+304749516+304814956+304972998+305206136+305518739
5681.11+305932751+306462217+307119232+307901633+308807340+309848808+311032871
5674.35+312327699+313724379+315251029+316921800+318731049+320674235+322775909
5667.60+325038128+327441519+329987696+332683979+335523111+338485357+341565074
5660.85+344740703+347978929+351258511+354567673+357899201+361243375+364615176
5654.10+368031072+371488940+374998625+378582366+382239356+385971930+389820191
5647.35+393798443+397884574+402069290+406360782+410755146+415243596+419826133
5640.60+424486503+429219528+434026141+438888562+443788796+448726333+453726298
5633.85+458801379+463934559+469129615+474412476+479762858+485137599+490533263
5627.10+495962580+501421605+506880502+512311899+517716942+523085021+528390714
5620.35+533629142+538798310+543899703+548941895+553917542+558808863+563594937
5613.60+568260569+572814884+577260896+581584217+585777294+589830789+593734773
5606.85+597490009+601092550+604547744+607862932+611015708+613986251+616782498
5600.10+619411240+621863224+624137602+626255635+628230141+630044016+631697430
5593.35+633208292+634582502+635854858+637070304+638232107+639311240+640298026
5586.60+641221748+642104814+642956263+643782418+644579036+645337798+646067363
5579.85+646782414+647479513+648163329+648847484+649527862+650179976+650791985
5573.10+651384558+651960112+652501885+653008689+653487950+653945058+654393932
5566.35+654848324+655317739+655820172+656349807+656888143+657439507+658006744
5559.59+658571731+659139349+659755984+660437127+661149249+661853181+662549558
5552.84+663277213+664026936+664767492+665502617+666228659+666936028+667638602
5546.09+668331202+668976526+669553523+670061303+670506401+670890556+671208253
5539.34+671455289+671625384+671709582+671704150+671658316+671609554+671511733
5532.59+671338540+671112978+670843322+670524310+670160864+669758672+669326179
5525.84+668883712+668429660+667954431+667469696+666991071+666535237+666115517
5519.09+665729409+665377210+665041944+664687665+664355794+664101416+663894782
5512.34+663694598+663500780+663342526+663226796+663082462+662864963+662664270
5505.59+662533049+662434507+662359390+662310373+662301588+662351496+662425807
5498.84+662487725+662582745+662756617+662991982+663302846+663645072+663886888
5492.09+664091655+664401501+664787481+665160009+665504314+665850317+666218261
5485.34+666603223+667016153+667484294+668007225+668575183+669183755+669842234
5478.59+670537678+671298605+672189989+673024971+673665202+674367521+675213581
5471.84+676074026+676935279+677822673+678730438+679636675+680496569+681374797
5465.09+682320460+683225594+684099959+685116155+686174408+687054631+687918726
5458.34+688930551+690007052+691025625+692013939+693083141+694245157+695443330
5451.59+696693194+698059637+699446239+700726616+702097388+703739598+705387622
5444.83+706827612+708364574+710197716+712173622+714000780+715686193+717500195
5438.08+719437694+721420518+723604501+725801386+727668776+729467161+731436404
5431.33+733514461+735675951+737833962+739789031+741618566+743545116+745595841
5424.58+747676529+749747795+751827803+753953645+756109959+758276118+760443295
5417.83+762610558+764762118+766970801+769438615+771792608+773755994+775878356
5411.08+778193221+780314565+782315892+784358214+786471580+788635108+790826136
5404.33+793018862+795164650+797298471+799473881+801687232+803918747+806202122
5397.58+808578523+810826843+812934267+815281894+817591751+819499288+821426602
5390.83+823510685+825579235+827583787+829593262+831701365+833639798+835249500
5384.08+836841632+838485455+840067996+841625838+843153124+844665387+846295120
5377.33+847843625+849086742+850337751+851657427+852860566+854048596+855277792
5370.58+856483987+857649610+858747755+859775028+860766482+861773554+862772562
5363.83+863691870+864563562+865440262+866314755+867169302+867993887+868790378
5357.08+869598157+870452279+871299612+872014620+872547396+873013374+873559051
5350.33+874223812+874867183+875331294+875762047+876417302+877162441+877570532
5343.58+877798938+878153301+878607990+879213506+879957288+880416051+880561361
5336.83+880768632+881031498+881320930+881726220+882123617+882349900+882528058
5330.07+882837607+883299086+883699198+883789932+883805635+883998476+884261342
5323.32+884499339+884736232+884971088+885201021+885445468+885730572+886032057
5316.57+886293140+886525280+886780252+887053982+887333738+887616550+887891044
5309.82+888222066+888632449+888908810+888960586+889038249+889221754+889392952
5303.07+889515685+889640455+889792810+889897549+889933027+889971392+890026393
5296.32+890081818+890126633+890162961+890228656+890396798+890631484+890700320
5289.57+890621384+890659070+890847328+891111637+891375351+891520322+891617252
5282.82+891820534+892120321+892386157+892519160+892618637+892789920+892985393
5276.07+893153790+893292649+893416146+893531495+893650917+893810742+893995435
5269.32+894093129+894129541+894240901+894441976+894710698+894899296+894950986
5262.57+895078472+895260789+895417558+895653857+895984709+896367083+896843330
5255.82+897352086+897665199+897868141+898212914+898668961+899136975+899660839
5249.07+900203207+900552478+900815768+901268504+901812060+902161501+902391858
5242.32+902730435+903150069+903549757+903896737+904183623+904452684+904732780
5235.57+905016441+905257493+905445327+905653107+905842978+905924970+905985403
5228.82+906115520+906321687+906573774+906697355+906653304+906674099+906802349
5222.07+906942397+907100608+907285981+907445805+907576941+907729296+907915348
5215.31+908132464+908386503+908669909+908971988+909311073+909737498+910189980
5208.56+910576343+911002258+911425033+911698848+911989978+912391618+912813969
5201.81+913224097+913634649+914054708+914492167+914907303+915244266+915558907
5195.06+915912592+916269162+916610879+916950899+917303310+917668793+918007963
5188.31+918315814+918632831+918960034+919233679+919435179+919638206+919866102
5181.56+920077022+920252040+920399557+920513208+920589598+920648078+920705965
5174.81+920762918+920809430+920858235+920919092+920961955+920995567+921062026
5168.06+921152081+921255801+921395085+921565859+921732813+921909867+922161614
5161.31+922490345+922848019+923232089+923657071+924108535+924590215+925127574
5154.56+925706014+926293112+926865271+927406196+927923949+928424471+928901483
5147.81+929348788+929768083+930160641+930518569+930854854+931185452+931497377
5141.06+931786470+932067414+932344115+932613007+932871289+933115906+933349404
5134.31+933578743+933803414+934006271+934181119+934346461+934502975+934638524
5127.56+934752175+934849275+934937717+935017248+935085913+935147280+935202365
5120.81+935252868+935303030+935358880+935418124+935469220+935517855+935577015
5114.06+935639654+935702124+935765273+935811786+935834958+935849387+935863052
5107.31+935866956+935866447+935879603+935902520+935920854+935941988+936001657
5100.55+936119552+936273180+936436485+936605645+936789320+936998713+937236710
5093.80+937489730+937738845+937979218+938224005+938480929+938733864+938972200
5087.05+939193900+939389883+939567616+939742888+939925375+940113973+940291536
5080.30+940454162+940615769+940777715+940934399+941087603+941252605+941449605
5073.55+941673342+941908708+942164189+942450141+942762660+943089778+943414859
5066.80+943731792+944045075+944372447+944721803+945061653+945375445+945680070
5060.05+945972219+946242299+946503807+946754365+946966898+947133428+947274410
5053.30+947405545+947517074+947590833+947624614+947629707+947626651+947629113
5046.55+947640147+947667477+947717980+947797595+947902588+948016579+948138038
5039.80+948267646+948390464+948507425+948631092+948759766+948891496+949028658
5033.05+949165481+949301200+949452791+949621358+949780843+949925304+950072482
5026.30+950229251+950396205+950573429+950754897+950922615+951073697+951233691
5019.55+951415584+951603248+951785140+951954556+952103770+952240593+952365023
5012.80+952463821+952540890+952597843+952626871+952647496+952687219+952739333
5006.05+952793400+952852305+952906033+952950763+952993287+953020023+953017053
4999.30+953005679+953008395+953015695+953011960+952999992+952984375+952976226
4992.55+952984375+953008395+953067724+953165079+953268969+953367597+953460622
4985.79+953532514+953586411+953648032+953714831+953772208+953831367+953904956
4979.04+953993653+954106625+954263903+954467864+954709086+955003865+955370961
4972.29+955797640+956279659+956833231+957449102+958107072+958807566+959560006
4965.54+960360231+961185665+962022472+962873199+963732839+964590781+965441763
4958.79+966284681+967118263+967939369+968745111+969535575+970310677+971075847
4952.04+971846281+972621806+973386723+974132372+974864186+975589888+976314912
4945.29+977034249+977726510+978390507+979052976+979722235+980379866+981015599
4938.54+981639194+982263807+982890203+983504632+984107177+984709468+985300385
4931.79+985869998+986429426+986978329+987507371+988020455+988521232+989011400
4925.04+989490788+989949466+990386755+990819631+991255816+991682411+992093642
4918.29+992499696+992902185+993292452+993665828+994023757+994359957+994662121
4911.54+994938567+995197189+995430347+995650689+995875445+996101134+996310697
4904.79+996485205+996627969+996751890+996847887+996913327+996972741+997035296
4898.04+997079093+997098105+997116269+997152257+997199449+997235947+997268964
4891.29+997333386+997431589+997542100+997667973+997827543+998025392+998246923
4884.54+998487805+998772739+999107835+999467716+999843554+1000234414+1000627567
4877.79+1001027086+1001445362+1001856763+1002235741+1002603855+1002984022
4872.00+1003371063+1003758359+1004137252+1004489155+1004826288+1005197033
4866.21+1005611405+1006036811+1006473761+1006938635+1007414034+1007884085
4860.43+1008362964+1008863572+1009373261+1009861307+1010316930+1010755322
4854.64+1011188961+1011625741+1012070414+1012524933+1012990232+1013462830
4848.85+1013943406+1014434168+1014923996+1015407544+1015891855+1016370734
4843.07+1016816341+1017214077+1017583803+1017946485+1018299151+1018620921
4837.28+1018897877+1019136467+1019352226+1019543031+1019712446+1019882880
4831.50+1020048137+1020197097+1020336890+1020463443+1020577603+1020692697
4825.71+1020807366+1020909134+1020996898+1021066158+1021117339+1021172594
4819.92+1021233621+1021284293+1021325713+1021360598+1021396331+1021445475
4814.14+1021512953+1021598679+1021693997+1021778450+1021846182+1021902965
4808.35+1021956693+1022022218+1022094364+1022146224+1022171263+1022179157
4802.56+1022172451+1022155476+1022135614+1022113377+1022085282+1022046323
4796.78+1021999216+1021949139+1021894053+1021830650+1021760710+1021692469
4790.99+1021636874+1021594605+1021552845+1021504635+1021467459+1021468138
4785.21+1021523648+1021626434+1021755363+1021896769+1022063808+1022274135
4779.42+1022510603+1022739009+1022945346+1023139885+1023326616+1023498578
4773.63+1023665956+1023830449+1023975250+1024096879+1024209427+1024317052
4767.85+1024418820+1024513034+1024601306+1024690088+1024786764+1024894558
4762.06+1024992422+1025061767+1025127462+1025205210+1025267170+1025300103
4756.27+1025326160+1025357735+1025382010+1025389903+1025387442+1025365713
4750.49+1025303922+1025209454+1025104545+1024995902+1024870368+1024723700
4744.70+1024568713+1024394545+1024189481+1023963706+1023717901+1023447991
4738.92+1023163651+1022878547+1022591916+1022295524+1021986994+1021664969
4733.13+1021325883+1020980431+1020648985+1020323904+1019976585+1019604312
4727.34+1019219902+1018819026+1018397863+1017959556+1017496209+1016996111
4721.56+1016461128+1015896438+1015295336+1014652134+1013966578+1013233321
4715.77+1012445743+1011596628+1010672991+1009666428+1008568198+1007384157
4709.98+1006136203+1004823148+1003423687+1001929843+1000355620+998717399
4704.20+997025705+995274682+993440394+991501367+989440201+987230330+984847649
4697.45+982304549+979645166+976912535+974152742+971426476+968787210+966232651
4690.70+963682846+961022106+958172004+955115904+951852703+948366444+944631663
4683.95+940614326+936277254+931598891+926554110+921087319+915168386+908820566
4677.20+902107943+895187455+888364321+882044766+876621347+872379848+869397846
4670.45+867517470+866466092+865981696+865857011+865937644+866107230+866259839
4663.69+866300071+866162230+865811177+865218902+864347973+863174457+861698861
4656.94+859921271+857828192+855411305+852681644+849671038+846432622+843054072
4650.19+839678069+836455864+833491856+830832389+828460741+826338379+824460804
4643.44+822857977+821567414+820605752+819924185+819400151+818896403+818300733
4636.69+817534204+816534941+815239795+813589946+811522160+808991367+805994087
4629.94+802561641+798783063+794854253+791077034+787765962+785100214+783034465
4623.19+781360341+779836874+778273430+776575795+774735396+772775404+770730196
4616.44+768661900+766646823+764754394+763045216+761561811+760331087+759379695
4609.69+758729024+758374576+758290717+758448759+758813308+759334201+759947780
4602.94+760591407+761217039+761805070+762364498+762911534+763452288+763981500
4596.19+764491783+764966588+765358383+765590183+765577621+765258736+764631661
4589.44+763783480+762906780+762292437+762233277+762868501+764129102+765805517
4582.69+767641078+769401947+770932798+772176169+773159136+773969546+774730812
4575.94+775583237+776650742+778003689+779648446+781511083+783459192+785374113
4569.19+787170461+788769723+790116560+791196796+792018325+792605763+792998830
4562.44+793238100+793360494+793400046+793370000+793257282+793059942+792788589
4555.69+792428963+791957553+791369946+790671744+789877630+789012303+788092061
4548.93+787134897+786190635+785310880+784509636+783786055+783140222+782549135
4542.18+781976721+781404816+780825273+780220351+779574687+778896346+778193476
4535.43+777459964+776707016+775942524+775154012+774345299+773526995+772679578
4528.68+771784544+770846563+769871829+768859325+767793264+766668976+765503863
4521.93+764308278+763084005+761821112+760507548+759147470+757753866+756329537
4515.18+754862174+753338029+751762872+750144937+748478876+746764859+745002972
4508.43+743186593+741323277+739426519+737506165+735564677+733588049+731550055
4501.68+729436436+727260006+725026030+722707686+720293599+717806943+715252469
4494.93+712618974+709901833+707094127+704203114+701240295+698202953+695088669
4488.18+691895917+688612006+685231674+681766719+678208271+674534433+670748641
4481.43+666869951+662897641+658808454+654591442+650246774+645773899+641172986
4474.68+636441956+631575164+626564929+621416259+616138575+610725002+605163233
4467.93+599450807+593582715+587544783+581329839+574943188+568388013+561652854
4461.18+554720823+547587589+540254723+532710598+524929197+516894097+508608142
4454.43+500068318+491261639+482182588+472827813+463182417+453241902+443021079
4447.68+432530048+421772077+410753448+399485661+387978519+376229264+364236962
4440.93+352018717+339597401+326985260+314195216+301255448+288204702+275086606
4434.17+261958304+248888737+235942518+223178467+210649506+198407707+186509704
4427.42+174994181+163872149+153148522+142831862+132927430+123433880+114344252
4420.67+105657484+97379433+89508263+82040055+74980193+68337344+62115679
4413.92+56316126+50941368+45987773+41437373+37269340+33468952+30022068+26906592
4406.21+24095552+21570954+19325037+17342830+15592798+14044710+12693931+11544011
4398.49+10571872+9747293+9061863+8505016+8051378+7681220+7384719+7150912
4390.78+6962904+6811409+6695459+6602797+6517488+6435279+6360937+6297417+6237578
4382.10+6176113+6120906+6078085+6043312+6017223+6005218+6005315+6019027+6051042
4373.42+6094935+6143732+6196031+6240261+6265051+6275381+6275586+6253019+6187994
4364.74+6073677+5917936+5727809+5500089+5231442+4931965+4617642+4296251+3965807
4356.06+3629099+3300138+2982861+2668860+2365991+2097150+1864003+1643291+1426489
4347.38+1227784+1053108+897631+767270+664039+568597+468998+376734+301991+246666
4337.74+212019+186033+158629+136950+118507+97256+83978+83451+86768+93511+103156
4327.13+112778+118488+122043+132289+150001+167841+186219+208861+234633+262541
4317.49+296026+337385+382252+429450+486396+554168+624923+694540+770643+862804
4307.84+962078+1053500+1141232+1242105+1361203+1485788+1608036+1736227+1875567
4299.16+2015018+2144774+2271613+2402800+2530606+2646130+2752593+2852250+2938323
4290.48+3003783+3044654+3060119+3050700+3013572+2948769+2863795+2761517+2640991
4281.80+2503105+2346487+2174065+1997038+1823755+1656642+1500275+1356251+1224280
4273.12+1107084+1002799+907870+819978+738302+666535+604246+546579+491710+443001
4263.48+409049+386892+364262+347137+347932+357624+359904+358952+369892+396118
4253.84+434681+482270+533781+590443+660209+738921+817763+904635+1006780+1126203
4244.19+1260802+1394892+1525661+1667183+1826529+1997055+2167661+2332317+2488241
4235.51+2637724+2780672+2913503+3038242+3161242+3286622+3409959+3530775+3653141
4226.84+3772057+3881956+3984718+4082130+4177187+4272996+4363114+4445118+4521755
4218.16+4584903+4627172+4651376+4665850+4675406+4677356+4672749+4670698+4674060
4209.48+4679439+4688263+4700061+4713591+4728451+4742049+4757440+4779445+4806539
4200.80+4833509+4858419+4884289+4911127+4928141+4933355+4944943+4966992+4986534
4192.12+4998509+5001099+4994436+4982210+4963113+4940850+4924735+4905493+4865632
4183.44+4800556+4712864+4612532+4510219+4400827+4271689+4120947+3959790+3808531
4174.76+3680029+3562085+3437266+3309867+3203587+3132910+3090278+3068333+3061593
4166.08+3065328+3084953+3120087+3165966+3227759+3304801+3386836+3473592+3568511
4157.40+3670971+3789585+3928999+4075653+4221485+4369708+4517782+4660065+4793634
4148.72+4916149+5029317+5139618+5248862+5345661+5418728+5475176+5525404+5566372
4140.04+5596228+5625040+5656560+5680348+5695035+5706685+5713028+5712477+5705787
4131.36+5691135+5673708+5656703+5629660+5596315+5569375+5538980+5498695+5460116
4122.68+5428428+5398074+5367478+5339816+5316485+5299248+5289850+5287442+5288931
4114.00+5293103+5301004+5315441+5340411+5381651+5444365+5516323+5584791+5656269
4105.32+5738743+5825511+5898300+5955857+6020664+6100363+6170909+6219590+6262013
4096.65+6300869+6325340+6333804+6335301+6332404+6320445+6301124+6272616+6232171
4087.97+6177884+6106395+6018355+5922415+5825945+5724608+5619589+5510138+5387552
4079.29+5259158+5140089+5026590+4908632+4783106+4649677+4525145+4418521+4321948
4070.61+4236728+4162422+4096429+4042283+4005326+3972597+3927569+3876905+3830530
4061.93+3790983+3755838+3738916+3770574+3865012+4018555+4235060+4533911+4923232
4053.25+5387768+5900948+6454595+7051482+7674340+8302778+8920206+9523873
4045.53+10125589+10727342+11321271+11901226+12469877+13036249+13612534+14207438
4037.82+14828656+15482543+16168904+16887213+17630405+18390443+19169978+19964702
4030.10+20751864+21521860+22287403+23049930+23798165+24519027+25205330+25859702
4022.39+26478154+27050143+27579243+28079127+28554812+29012907+29469837+29943183
4014.67+30447368+30995372+31593814+32232963+32905541+33629389+34424941+35284851
4006.96+36215241+37247270+38383323+39602607+40881157+42196711+43538956+44895081
3999.24+46245796+47577534+48879868+50158792+51428151+52673564+53891817+55106573
3991.53+56335451+57576535+58808453+60024742+61228369+62416538+63591752+64750648
3983.81+65891943+67025535+68152719+69264387+70346469+71362686+72285719+73118240
3976.10+73848521+74453835+74931033+75292075+75544198+75689546+75733168+75686872
3968.38+75582589+75447173+75283704+75095111+74907585+74743681+74600642+74494629
3960.67+74449501+74460450+74523822+74654035+74851884+75108904+75425322+75789298
3952.95+76183575+76603438+77058954+77525372+77988162+78491825+79007731+79495363
3945.24+79970179+80444766+80935825+81397336+81781062+82105968+82381507+82617530
3937.52+82841739+83082234+83369449+83705898+84061837+84405628+84695517+84943625
3929.81+85163659+85336761+85481440+85614640+85738529+85842722+85923864+85999305
3922.09+86072782+86128907+86129586+86083556+85993899+85826552+85624979+85429851
3914.38+85225678+85007803+84788522+84579962+84406111+84275761+84184560+84121819
3906.66+84070898+84029287+83972695+83905445+83864991+83860550+83886120+83917689
3898.95+83909143+83855956+83773286+83650245+83484203+83291070+83090138+82815835
3891.23+82463488+82222165+82085894+82011080+82016480+82115665+82273988+82477906
3883.52+82774097+83125129+83598491+84279007+84915520+85504607+86182587+86894041
3875.80+87620980+88507658+89347569+89941881+90506688+91249207+92129832+92725842
3868.09+93151259+93589333+94092211+94631205+95033312+95377108+95767990+96119511
3860.37+96407755+96707807+97033970+97349503+97593006+97815501+98152359+98434174
3852.66+98550201+98619154+98694238+98784399+98854551+98909053+98962823+99020465
3844.94+99068760+99078288+99086670+99151664+99260202+99369895+99530473+99742688
3837.23+99916273+100121242+100392871+100640586+100890932+101212841+101493849
3830.48+101677556+101828627+101938246+101962235+101905887+101870313+101899903
3823.73+102001798+102233068+102726079+103323108+103831715+104405201+105107297
3816.98+106188488+107559504+108534131+109415998+110453328+111563357+112687135
3810.23+113789248+114796755+115865978+117227318+118370056+119226279+120141906
3803.48+121141254+122348318+123763237+124768240+125561081
##END=
