##TITLE=Ρμερό_7_2,1μμ
##JCAMP-DX=4.24
##DATA TYPE=INFRARED SPECTRUM
##DATE=7/4/2017
##SAMPLING PROCEDURE=Instrument type and / or accessory
##ORIGIN=Default
##XUNITS=1/CM
##YUNITS=TRANSMITTANCE
##RESOLUTION=2
##FIRSTX=7998.4873
##LASTX=3799.619
##DELTAX=-0.96437031
##MAXY=0.7296862
##MINY=7.773174e-005
##XFACTOR=1
##YFACTOR=6.7957323e-010
##NPOINTS=4355
##FIRSTY=0.3647511
##XYDATA=(X++(Y..Y))
7998.49+536735533+537104305+537482155+537976044+538585007+539172394+539735178
7991.74+540391285+540984768+541322228+541588775+541983553+542467312+542919364
7984.99+543296293+543731811+544349063+544985830+545388370+545601678+545839282
7978.24+546166743+546584281+547065540+547499831+547870007+548295220+548784855
7971.48+549250458+549702071+550191838+550673623+551091775+551550054+552093894
7964.73+552538929+552854374+553196833+553577710+553967050+554384763+554822080
7957.98+555254573+555670401+556126838+556715409+557420019+558020518+558373941
7951.23+558672809+559092321+559549372+559909900+560270822+560816942+561312936
7944.48+561471996+561570186+561933828+562491788+563136536+563745456+564031957
7937.73+564045289+564152907+564455065+564867034+565354169+565882177+566419964
7930.98+566905433+567232851+567469621+567852163+568479633+569374352+570335291
7924.23+570799929+570676040+570570219+570849967+571306887+571694780+572086707
7917.48+572570334+573076239+573607624+574080638+574392443+574705696+575043068
7910.73+575280847+575558797+576103118+576869475+577448661+577601275+577673371
7903.98+578045301+578859328+580111066+581171686+581235144+580822517+581093099
7897.23+582027418+582765401+582798029+582474690+582448991+582764437+583241442
7890.48+583909608+584565496+585238486+586559076+588052321+588181033+587161593
7883.73+586556094+586740546+587137297+587468837+587835723+588320184+588837579
7876.98+589212798+589403608+589607619+589965691+590425681+590874268+591324566
7870.23+591990496+592704973+593143123+594009248+595746762+596815540+596245037
7863.48+595543409+595809430+596429664+596979380+597330479+597222334+597000912
7856.72+597064326+597284826+597582993+598102054+599214204+600870368+602021328
7849.97+602160434+602053254+602020276+601694086+601291151+601280845+601634795
7843.22+602428692+603976360+605485217+605543324+604573746+604108143+604840206
7836.47+606637581+608323698+608758251+608210465+607388282+606820936+606752085
7829.72+606972541+607331753+607805294+608248619+608561257+608813947+609091019
7822.97+609399755+609754099+610172602+610613383+610992242+611301372+611643218
7816.22+612054704+612717477+614082710+615765538+616626138+617025740+618350495
7809.47+619842644+619538337+618153983+618240114+620161027+621518981+620679475
7802.72+619102073+619047781+620935760+622960916+623111249+621956429+621006892
7795.97+620398938+620065249+620090202+620296800+620635927+621229717+622102596
7789.22+622864523+623164532+623444674+624297293+625941002+628075224+629154614
7782.47+628095879+626261183+625287088+625191529+625430931+625779749+626221495
7775.72+626925403+628402466+630992993+633385254+633413628+631442282+629933469
7768.97+630066480+631031760+631436888+631067282+631063774+632236837+634352947
7762.22+636467215+637133320+635783874+633877784+632903864+632765064+632956314
7755.47+633321270+633760604+634155251+634631993+635838122+638185915+640506386
7748.72+640901866+639431075+637933269+637593046+638381813+639729592+641385405
7741.96+643453889+645150224+645387213+644167357+642329241+640960017+640533752
7735.21+640789335+641536966+642891061+645007697+647079689+647625633+646614568
7728.46+645451460+644990330+645361471+646690787+647963049+647623923+646295439
7721.71+645597495+645671302+645944647+646257286+646840463+648150439+649907206
7714.96+650725530+650276636+649995441+651007602+653301015+655936932+657499335
7708.21+657351765+656496866+656600801+657462015+657115521+655261792+653708818
7701.46+653573921+654255420+654587924+654264015+653866431+653816130+654060881
7694.71+654430311+654815836+655175092+655664552+656611326+658286303+660209102
7687.96+660796401+659643511+658518337+658836151+660524241+662391959+663324962
7681.21+663466437+663161341+662961540+664053648+666125903+667050180+665936934
7674.46+664218760+663459113+664256256+666092837+667042506+666122439+664781588
7667.71+664302961+664824215+666504411+668612934+669217687+667990771+666743023
7660.96+666436393+666597734+666942737+667579898+668375287+669372800+670784432
7654.21+671670643+671241483+670489554+670314356+670604190+671044357+671482814
7647.46+672019242+673090607+675147469+677411763+678639600+678817255+678222939
7640.71+676959141+675767966+675376170+675504401+675661663+676256329+677968013
7633.96+680407505+681867903+681182765+679319652+677900609+677422200+677526442
7627.20+677829564+678164700+678473918+678765287+679102353+679505901+679936377
7620.45+680368036+680796144+681310951+682258910+684088869+686359302+687405538
7613.70+686499198+684995516+684214249+684190041+684523335+685238952+686574759
7606.95+688016913+689080428+690384704+691833743+692124849+691063001+689695882
7600.20+688839185+688662495+689023724+689768856+690564858+691454402+692636061
7593.45+693112671+692278998+691303806+690999368+691079052+691314112+691693058
7586.70+692140724+692538178+692863227+693170515+693475391+693802283+694178905
7579.95+694570394+694921098+695218036+695526421+695945143+696467406+696997958
7573.20+697528991+698231101+699168491+699854681+699782848+699338734+699216336
7566.45+699493321+699899369+700253275+700568939+701100894+702268300+703920429
7559.70+704788178+704282930+703570339+703416278+703456975+703546570+703817634
7552.95+704171540+704490099+704827559+705192296+705507215+705804461+706155911
7546.20+706564590+707046639+707571138+708193652+709331895+710871538+711656006
7539.45+711214918+710481408+710173418+710231526+710554207+711243424+712415873
7532.70+713566921+713778124+713225558+712846085+712862487+713064437+713419175
7525.95+713815620+714096683+714381781+714952503+716028823+717368095+718172868
7519.20+718098052+717638721+717337704+717502772+718277768+719179197+719390444
7512.44+719039564+718905720+719252872+719918846+720656040+721409723+722406140
7505.69+723422818+723816543+723588281+723373262+723670113+724512251+725352195
7498.94+725526034+725110382+724841203+725009955+725202213+725332198+725818237
7492.19+726806980+727971842+728818145+729038646+728647552+728006005+727598684
7485.44+727679683+728247292+728938789+729249937+729180383+729125872+729402945
7478.69+730070804+730738269+731054855+731446958+732179678+732706984+732945070
7471.94+733348005+733830887+733957231+733669414+733420803+733690596+734422089
7465.19+734999082+734983645+734701529+734624389+734739288+734865106+735019255
7458.44+735332858+735794470+736303358+736862502+737361741+737572330+737618115
7451.69+737813881+738074026+738138404+738128317+738385129+738970235+739567007
7444.94+739799260+739620159+739382380+739435795+739802944+740316655+740746868
7438.19+740859837+740717573+740669070+740830103+741040780+741243563+741500463
7431.44+741837879+742138282+742259671+742353345+742689445+743289199+743897373
7424.69+744174621+744077965+743934912+744026480+744339864+744595185+744538350
7417.94+744283818+744085596+744053231+744193653+744394244+744532210+744630093
7411.19+744717802+744737712+744705084+744720258+744799196+744937162+745182659
7404.44+745362287+745179326+744773234+744521159+744472129+744438537+744300220
7397.68+744114452+743980608+743902460+743813786+743614862+743308232+743004934
7390.93+742731721+742410092+742054169+741709649+741387494+741124542+740917111
7384.18+740752920+740521982+740036776+739330807+738629662+738092444+737758624
7377.43+737468834+736777512+735670362+734709160+733986482+733277180+732584850
7370.68+731999173+731339953+730430104+729537139+728866078+728225540+727442387
7363.93+726679582+726056235+725422450+724716876+723996478+723213764+722439469
7357.18+721846381+721259214+720449573+719689794+719199457+718755255+718200409
7350.43+717660692+717046992+716201434+715339606+714777348+714575004+714477778
7343.68+714284819+714163254+714175884+713923721+713332607+712929847+712759516
7336.93+712617647+712557742+712573486+712596685+712688779+712876915+713068033
7330.18+713315153+713709536+713875043+713665857+713609898+713887453+714171893
7323.43+714203556+714097736+714038269+714048969+714042698+713981872+713936307
7316.68+713845528+713641211+713535741+713568588+713443734+713016635+712421486
7309.93+711922335+711724639+711581235+711009153+710281081+709893364+709709307
7303.18+709408947+709021932+708698417+708278993+707606573+706913804+706427107
7296.43+706213009+705998473+705278251+704242672+703405709+702811043+702315136
7289.68+701831115+701225177+700456803+699729433+699145160+698583779+697981131
7282.92+697354933+696685363+696000839+695356704+694738444+694153118+693585992
7276.17+692959180+692313599+691671262+690927841+690128638+689400171+688770465
7269.42+688180534+687465707+686589801+685725737+684964204+684290512+683636028
7262.67+682854322+681983810+681209691+680524772+679841520+679137261+678418398
7255.92+677753345+677173852+676567038+675850588+675114140+674450753+673867094
7249.17+673347726+672896112+672500370+672109188+671816021+671648628+671155353
7242.42+670298875+669605843+669091913+668583157+668086417+667600641+667107673
7235.67+666665226+666372541+666093933+665503828+664678136+663973263+663476348
7228.92+663110382+662876726+662628290+662170186+661682262+661324760+661069527
7222.17+660953093+660906432+660706894+660325975+659935845+659634258+659378455
7215.42+659112653+658820582+658408833+657900822+657465962+657091006+656694562
7208.67+656317413+656030780+655776819+655366824+654803381+654226257+653669919
7201.92+653188748+652782392+652366169+651964901+651657087+651447725+651215472
7195.17+650790040+650258524+649857913+649631887+649465766+649250485+648993498
7188.42+648806064+648721468+648676211+648735326+649011522+649442085+649842126
7181.67+649977460+649970093+650250586+650829728+651430841+651999941+652620657
7174.92+653330222+654094035+654884512+655751120+656741047+657869160+658979028
7168.16+659939397+660976556+662135322+663234841+664398651+665826333+667405928
7161.41+668755856+669865505+671086063+672482477+673894854+675226144+676546734
7154.66+677928719+679321450+680664361+681945306+683191519+684426241+685661841
7147.91+686936339+688278023+689523490+690540782+691555969+692632728+693666202
7141.16+694771817+695838314+696566167+697210783+698041782+698863395+699538798
7134.41+700150348+700772556+701411384+702015479+702576421+703099649+703562050
7127.66+703933279+704253899+704610479+704986794+705303073+705561463+705837659
7120.91+706136527+706511132+706947045+707072074+706866090+706783030+706905252
7114.16+707028790+707049621+707002960+706972919+706976603+706942177+706849031
7107.41+706735579+706569064+706281992+705935235+705646848+705376880+705011309
7100.66+704575176+704156717+703762553+703358434+702932607+702430912+701818353
7093.91+701214784+700694714+700188458+699669747+699158580+698642983+698119316
7087.16+697596220+697087596+696615064+696194544+695833797+695564750+695392665
7080.41+695261979+695162034+695140370+695229745+695396612+695622681+695967816
7073.66+696491526+697177936+697897457+698618906+699451571+700376769+701350601
7066.91+702429070+703629543+704908032+706237568+707638981+709139286+710685902
7060.16+712191031+713666295+715178310+716749878+718357145+719951737+721495195
7053.40+723015103+724555140+726093643+727616007+729140958+730645254+732053904
7046.65+733355504+734655965+736011024+737335166+738536953+739622790+740669421
7039.90+741745960+742825394+743821066+744760867+745701019+746601527+747444059
7033.15+748237737+748970457+749661078+750349417+751034424+751683295+752299976
7026.40+752912448+753545443+754215627+754827572+755279098+755668964+756128822
7019.65+756665075+757205011+757658203+758030089+758393292+758757898+759105751
7012.90+759439747+759752517+760030203+760269737+760490237+760693020+760863877
7006.15+761064292+761328910+761557655+761698954+761807976+761924629+762064875
6999.40+762213980+762315723+762389223+762486580+762570166+762598584+762614021
6992.65+762666646+762749356+762818383+762832065+762805840+762811366+762858817
6985.90+762892760+762919687+762986170+763086772+763177463+763250612+763354986
6979.15+763499092+763647232+763822913+764055430+764334256+764681935+765104604
6972.40+765509468+765851972+766264291+766830803+767454326+768044169+768630328
6965.65+769264726+769919386+770534401+771140733+771794866+772474172+773177071
6958.90+773919264+774672245+775462152+776273109+777007584+777707062+778470832
6952.15+779284507+780121163+780980272+781820348+782611746+783353325+784067276
6945.39+784821836+785626127+786399193+787133580+787892438+788643051+789359545
6938.64+790086565+790766835+791381061+792027212+792690555+793325568+793995664
6931.89+794697072+795310333+795828605+796372313+796978031+797591906+798187099
6925.14+798751769+799252411+799719725+800255363+800893533+801570296+802234164
6918.39+802849706+803372626+803858095+804408206+805031641+805677705+806289738
6911.64+806872564+807493455+808154254+808810580+809476993+810195154+810948047
6904.89+811666822+812321218+812968159+813686759+814492102+815331915+816154450
6898.14+816961021+817775837+818628105+819525718+820377459+821137633+821901227
6891.39+822711306+823510247+824261123+825007790+825800415+826600847+827360406
6884.64+828090846+828824532+829568040+830302953+831029359+831761904+832488660
6877.89+833191647+833868585+834515614+835140978+835782306+836457753+837103992
6871.14+837687344+838267539+838853434+839402755+839928132+840463770+840987393
6864.39+841459091+841917985+842409593+842898044+843332203+843713913+844083781
6857.64+844465841+844860356+845238469+845571062+845882867+846191515+846487006
6850.89+846749958+846975282+847221042+847513464+847794571+848040156+848277672
6844.14+848500365+848694465+848908562+849162304+849398066+849607427+849839066
6837.39+850108947+850409350+850705192+850951654+851178557+851458787+851818306
6830.63+852214575+852602512+852989220+853392331+853825350+854287576+854749714
6823.88+855220185+855721266+856219891+856714570+857272223+857887238+858462784
6817.13+858957463+859430126+859957958+860569991+861200706+861752483+862248916
6810.38+862782186+863339752+863875741+864419624+865001485+865569050+866072938
6803.63+866580772+867148512+867734759+868320655+868900674+869462537+870029663
6796.88+870592404+871116114+871623335+872185812+872830560+873474695+874029717
6790.13+874533342+875068717+875640579+876220160+876802109+877390723+877986355
6783.38+878570847+879132184+879669314+880160308+880643585+881202905+881816692
6776.63+882396360+882909194+883381331+883864871+884380248+884888171+885361887
6769.88+885833936+886354489+886926176+887460674+887905271+888342675+888831302
6763.13+889315718+889771015+890224909+890676084+891127083+891592116+892069340
6756.38+892551213+893019052+893457509+893873513+894290481+894712273+895132224
6749.63+895556033+895976335+896415318+896914206+897413182+897828660+898219754
6742.88+898672858+899139206+899550298+899931481+900333714+900782960+901254132
6736.13+901704605+902118591+902484162+902837103+903225040+903621396+904028103
6729.38+904463402+904872652+905236907+905612389+906018569+906433520+906852506
6722.63+907264475+907647061+907995002+908329173+908697112+909098468+909481756
6715.87+909834960+910194655+910584872+910976755+911354693+911759645+912186086
6709.12+912596915+913013795+913448919+913860362+914242685+914630008+915039784
6702.37+915481398+915931784+916346384+916735110+917145149+917593430+918036009
6695.62+918436400+918834774+919283581+919768524+920232591+920655699+921052407
6688.87+921447536+921877046+922351903+922841055+923306351+923750948+924205543
6682.12+924671278+925145783+925630989+926123650+926619205+927101341+927579881
6675.37+928088856+928620022+929157590+929698666+930197818+930637766+931093589
6668.62+931622211+932206352+932803562+933374898+933897644+934399426+934926119
6661.87+935488421+936059757+936611095+937155241+937697107+938212222+938735230
6655.12+939287270+939831767+940385035+940967072+941539022+942079572+942607404
6648.37+943138569+943664560+944174412+944687948+945228322+945778959+946323281
6641.62+946864796+947389032+947904322+948416630+948893065+949362659+949879878
6634.87+950416218+950928088+951419784+951878853+952307662+952774536+953274740
6628.12+953742931+954194018+954655279+955125311+955607184+956094670+956560492
6621.37+956985530+957387061+957806310+958278886+958796544+959313413+959792391
6614.62+960220674+960642992+961118550+961634279+962146674+962622583+963060602
6607.87+963498883+963940059+964359396+964773469+965182456+965574954+965997448
6601.11+966484758+966986366+967434734+967837318+968268583+968755192+969231890
6594.36+969672013+970125732+970613043+971090004+971497412+971856668+972276793
6587.61+972771384+973253169+973687153+974079037+974464693+974896045+975359324
6580.86+975815937+976266585+976706796+977129641+977550469+977967963+978371950
6574.11+978766027+979138351+979498484+979904927+980367943+980829292+981266784
6567.36+981700768+982130892+982534792+982890715+983227429+983605981+984030931
6560.61+984458951+984866359+985280082+985725117+986170503+986592821+986986196
6553.86+987370624+987807853+988280955+988693275+989029639+989363547+989745694
6547.11+990168276+990611031+991051242+991442950+991791242+992139359+992494142
6540.36+992877693+993287030+993674353+994043958+994420318+994811499+995234081
6533.61+995675959+996093102+996461568+996808369+997167712+997537055+997908063
6526.86+998286440+998680077+999080732+999471212+999847746+1000196740+1000526789
6520.11+1000879116+1001253282+1001610521+1001940306+1002288774+1002685744
6514.32+1003088065+1003465828+1003822803+1004153641+1004494566+1004881625
6508.54+1005260528+1005587682+1005901154+1006239097+1006607913+1006997867
6502.75+1007388522+1007758215+1008107823+1008459273+1008817038+1009197694
6496.96+1009613435+1010003213+1010335455+1010664100+1011044669+1011478390
6491.18+1011903164+1012266104+1012603871+1012978827+1013394830+1013810044
6485.39+1014194297+1014581620+1014998676+1015389682+1015752183+1016141435
6479.60+1016556123+1016983792+1017417337+1017837902+1018259957+1018692362
6473.82+1019105997+1019497881+1019875205+1020233759+1020602049+1020996388
6468.03+1021407568+1021834798+1022247995+1022609092+1022937211+1023279452
6462.25+1023642040+1023994894+1024360201+1024777170+1025200453+1025561551
6456.46+1025881864+1026210947+1026535207+1026835084+1027150135+1027504128
6450.67+1027853560+1028164313+1028463664+1028785380+1029116394+1029429427
6444.89+1029720884+1030016463+1030334671+1030658843+1030968631+1031257193
6439.10+1031535406+1031826337+1032126564+1032399164+1032649310+1032953396
6433.31+1033330194+1033686906+1033960821+1034194916+1034457429+1034769059
6427.53+1035089548+1035368813+1035625800+1035899715+1036182050+1036464034
6421.74+1036759175+1037074839+1037398924+1037696082+1037950613+1038211459
6415.96+1038533790+1038889888+1039205816+1039471661+1039738209+1040004055
6410.17+1040229204+1040447336+1040718269+1041039634+1041352755+1041601234
6404.38+1041802877+1042024255+1042308168+1042638393+1042954057+1043222183
6398.60+1043466453+1043707564+1043941835+1044187069+1044460897+1044739899
6392.81+1045004341+1045249137+1045484723+1045741622+1046011415+1046256825
6387.02+1046503111+1046791762+1047082078+1047327312+1047546848+1047773663
6381.24+1048023370+1048285445+1048527784+1048746355+1048983520+1049255418
6375.45+1049518808+1049744483+1049968141+1050225829+1050487114+1050719631
6369.67+1050939342+1051171069+1051409374+1051630839+1051857742+1052128324
6363.88+1052401537+1052612214+1052779124+1052958051+1053164079+1053402209
6358.09+1053661213+1053885836+1054059850+1054235005+1054448664+1054681268
6352.31+1054888436+1055064293+1055258130+1055498277+1055748861+1055961468
6346.52+1056140920+1056332915+1056535172+1056716642+1056889340+1057072038
6340.73+1057252105+1057436995+1057652759+1057884135+1058107354+1058328293
6334.95+1058545110+1058740174+1058907523+1059071714+1059256692+1059455353
6329.16+1059644541+1059823380+1060003271+1060178162+1060356825+1060565310
6323.38+1060782302+1060969034+1061132172+1061296188+1061479324+1061680792
6317.59+1061857701+1061998649+1062159683+1062369395+1062587176+1062774961
6311.80+1062937573+1063086854+1063241485+1063436725+1063664154+1063860973
6306.02+1064020165+1064198038+1064402225+1064598956+1064777882+1064919620
6300.23+1065032852+1065183010+1065385705+1065589277+1065762941+1065924676
6294.44+1066094042+1066253497+1066394972+1066541446+1066697743+1066856496
6288.66+1067014197+1067171897+1067344070+1067527031+1067705869+1067874095
6282.87+1068033287+1068195198+1068352197+1068496478+1068651109+1068804775
6277.09+1068930637+1069049833+1069175433+1069292436+1069409440+1069532057
6271.30+1069653271+1069786062+1069927625+1070047786+1070134618+1070206977
6265.51+1070296616+1070414585+1070547464+1070680255+1070802784+1070916367
6259.73+1071020478+1071113800+1071198352+1071277202+1071382277+1071510420
6253.94+1071610934+1071689171+1071774599+1071859852+1071946772+1072053338
6248.16+1072167184+1072254016+1072318833+1072396017+1072492585+1072584591
6242.37+1072646251+1072681422+1072731328+1072817722+1072904027+1072971826
6236.58+1073032784+1073078743+1073117686+1073160664+1073203290+1073261266
6230.80+1073335029+1073396776+1073445191+1073509394+1073587806+1073632011
6225.01+1073615434+1073596577+1073638590+1073703143+1073729193+1073722176
6219.22+1073713668+1073707266+1073704020+1073722352+1073741823+1073723667
6213.44+1073687794+1073669112+1073666130+1073670077+1073682619+1073695250
6207.65+1073691390+1073660166+1073623854+1073606400+1073579386+1073529217
6201.87+1073489748+1073444928+1073365201+1073286087+1073212850+1073124440
6196.08+1073048221+1072976650+1072863769+1072722207+1072606782+1072521704
6190.29+1072420663+1072287083+1072123155+1071933002+1071749339+1071593305
6184.51+1071440516+1071244399+1070986359+1070715426+1070488699+1070281793
6178.72+1070029455+1069709405+1069363831+1069044396+1068746097+1068433327
6172.93+1068096700+1067727797+1067315565+1066877985+1066419004+1065930114
6167.15+1065426753+1064918830+1064385648+1063803611+1063197542+1062611559
6161.36+1062022418+1061392843+1060733886+1060043266+1059322562+1058609225
6155.58+1057916149+1057230967+1056555520+1055885687+1055208399+1054517691
6149.79+1053823124+1053152677+1052513015+1051884142+1051251322+1050625694
6144.00+1050052604+1049553190+1049083771+1048598566+1048125376+1047712705
6138.22+1047318015+1046863069+1046366110+1045898007+1045454200+1044965661
6132.43+1044408534+1043824831+1043264108+1042715226+1042128541+1041509666
6126.64+1040909474+1040347260+1039798114+1039247828+1038717452+1038241544
6120.86+1037836504+1037492158+1037188247+1036915034+1036700410+1036542797
6115.07+1036384307+1036206696+1036050662+1035941903+1035852089+1035754206
6109.29+1035675356+1035620274+1035535898+1035398897+1035231636+1035067796
6103.50+1034925006+1034776865+1034589344+1034350337+1034067739+1033777948
6097.71+1033505963+1033241783+1032976289+1032750087+1032612296+1032547392
6091.93+1032519764+1032521693+1032553531+1032600193+1032658958+1032722020
6086.14+1032753508+1032763156+1032795433+1032849111+1032889281+1032914191
6080.35+1032954537+1033019880+1033108203+1033218014+1033344929+1033475352
6074.57+1033601390+1033761985+1033969505+1034175796+1034350424+1034474269
6068.78+1034534350+1034554172+1034551190+1034522685+1034463394+1034365072
6063.00+1034219300+1034019586+1033777071+1033498595+1033165389+1032767717
6057.21+1032326453+1031857824+1031354638+1030807948+1030225122+1029627386
6051.42+1029021493+1028378674+1027685773+1026964543+1026206387+1025384028
6045.64+1024491940+1023535211+1022526471+1021469578+1020359534+1019206863
6039.85+1018010864+1016747066+1015430291+1014097028+1012747012+1011369017
6034.06+1009945062+1008469886+1006960503+1005391214+1003744918+1002079676
6028.28+1000424871+998721827+996940020+995111727+993248175+991323929+989321008
6021.53+987259760+985172463+983048503+980841571+978520091+976089501+973581815
6014.78+971004926+968345065+965599863+962754234+959795373+956738717+953606192
6008.03+950417973+947193353+943977330+940815774+937713245+934650800+931593267
6001.28+928510210+925357775+922041413+918483675+914663600+910584345+906302395
5994.53+901892478+897365118+892724701+887996751+883190477+878333244+873495657
5987.78+868786915+864360684+860391065+856986555+854142681+851778135+849789511
5981.02+848069451+846510863+845031126+843541565+841935877+840150913+838142817
5974.27+835859051+833295056+830501614+827543981+824488816+821416635+818391378
5967.52+815411379+812457781+809544003+806686358+803876076+801063689+798167890
5960.77+795134652+791939767+788571744+785044090+781385312+777624090+773791823
5954.02+769927806+766049492+762129955+758152180+754140285+750105236+746009930
5947.27+741799463+737427962+732872535+728123535+723147763+717905794+712343908
5940.52+706347028+699828281+692772317+685151594+676949493+668204210+658966267
5933.77+649294559+639284601+629027216+618552752+607857919+596946226+585816401
5927.02+574454103+562862709+551060989+539063328+526905554+514661737+502413009
5920.27+490225238+478184994+466418797+455059525+444219490+433957457+424266321
5913.52+415115691+406482983+398359294+390741992+383614720+376954937+370742074
5906.77+364949316+359557606+354554404+349917737+345623529+341650950+337988554
5900.02+334630266+331563370+328757495+326175169+323795472+321596521+319529945
5893.27+317531936+315549889+313546288+311480567+309303588+306965531+304424537
5886.52+301639625+298575864+295222686+291584936+287668797+283490124+279089986
5879.77+274499608+269733460+264854410+259957707+255099553+250304725+245621221
5873.02+241112149+236834979+232845823+229186277+225874563+222916514+220326118
5866.26+218105065+216245657+214763310+213677101+212998519+212722937+212838099
5859.51+213320323+214118189+215179270+216459908+217908465+219458786+221060088
5852.76+222675029+224257912+225766857+227165244+228431169+229557154+230533969
5846.01+231337273+231961585+232428591+232715926+232783177+232632098+232277601
5839.26+231731656+231007970+230102441+228999084+227694480+226202595+224557285
5832.51+222770632+220818582+218695872+216445743+214119921+211712201+209206028
5825.76+206631683+204024974+201405897+198792346+196197982+193626136+191085296
5819.01+188576996+186093101+183637799+181221473+178846994+176515472+174234897
5812.26+172005094+169837829+167768698+165823292+164002465+162312873+160800826
5805.51+159488426+158359634+157419230+156686455+156177337+155888917+155802765
5798.76+155916195+156245147+156792605+157546748+158490244+159595727+160851763
5792.01+162261235+163819746+165510588+167302306+169180341+171161806+173241385
5785.26+175390868+177625012+179963738+182390567+184909908+187550056+190317690
5778.51+193201384+196194035+199299523+202528791+205878329+209336978+212897851
5771.76+216553515+220313466+224171650+228096845+232085189+236122826+240173707
5765.01+244236604+248309391+252361587+256373789+260346324+264270992+268128321
5758.26+271923421+275665347+279335111+282925476+286461857+289961399+293408010
5751.50+296787545+300094106+303313528+306442500+309478677+312407322+315222910
5744.75+317917022+320461875+322850847+325094003+327180182+329088684+330799228
5738.00+332297823+333574887+334611672+335388357+335910992+336197494+336242072
5731.25+336030956+335575286+334911922+334069828+333069749+331945825+330740068
5724.50+329480107+328189470+326907692+325639070+324377530+323149013+321963013
5717.75+320808347+319679292+318582952+317514438+316472346+315459001+314447432
5711.00+313405165+312311873+311187861+310059376+308920080+307765546+306607547
5704.25+305479697+304416994+303438316+302543378+301747112+301077367+300535282
5697.50+300118642+299826550+299658170+299606290+299664946+299830146+300084765
5690.75+300414704+300813867+301275216+301782744+302342371+302962078+303636209
5684.00+304372526+305177124+306067567+307056375+308148154+309343539+310642223
5677.25+312054469+313569575+315179429+316878000+318650619+320501124+322458108
5670.50+324524750+326670132+328913442+331293665+333814573+336455270+339194618
5663.75+342031168+344954266+347940426+350967766+354027602+357098401+360153940
5657.00+363197637+366242847+369304964+372397712+375547910+378785949+382126738
5650.25+385578611+389147663+392851261+396711813+400729760+404878261+409155036
5643.50+413568111+418097006+422730230+427463619+432277129+437151509+442087549
5636.74+447080511+452125836+457239223+462423918+467674175+472979250+478337257
5629.99+483764686+489261887+494804697+500360050+505912815+511461633+516990278
5623.24+522463622+527860748+533195776+538475152+543685677+548820947+553873113
5616.49+558837000+563723441+568525417+573215959+577786911+582236166+586547279
5609.74+590715515+594751310+598647297+602388258+605977747+609421024+612705241
5602.99+615801147+618698612+621421799+623977462+626348980+628539905+630559535
5596.24+632406598+634088548+635621481+637010045+638262309+639417041+640506606
5589.49+641526441+642479530+643385476+644247216+645065804+645857640+646637022
5582.74+647408203+648157851+648885616+649617240+650350925+651061455+651749926
5575.99+652442038+653137175+653816568+654464562+655061246+655610128+656128049
5569.24+656627113+657106750+657563187+658025983+658518074+659041170+659591851
5562.49+660150513+660707640+661279502+661865836+662456205+663066046+663706891
5555.74+664374794+665064318+665775506+666506341+667231474+667950951+668687574
5548.99+669430776+670144464+670805789+671427909+672019768+672539970+672957333
5542.24+673293828+673556254+673724567+673803023+673814688+673767281+673635893
5535.49+673420612+673157397+672845680+672469978+672046870+671590258+671081020
5528.73+670506789+669887389+669252332+668622012+668005287+667403866+666806305
5521.98+666203789+665618858+665093569+664635553+664230557+663870424+663535990
5515.23+663241858+663001229+662794148+662619212+662479141+662375075+662306267
5508.48+662216804+662048315+661856671+661704715+661580300+661475049+661394840
5501.73+661368834+661423871+661530087+661633101+661742474+661918374+662193692
5494.98+662608950+663088981+663397673+663589449+663906999+664342167+664760494
5488.23+665119575+665455588+665824711+666240232+666695397+667185910+667705936
5481.48+668288586+668938948+669630972+670364131+671221529+672286228+673249886
5474.73+673868760+674508159+675330912+676221772+677151399+678079184+678970175
5467.98+679803498+680557312+681369102+682320262+683235285+684059793+684994990
5461.23+685954087+686698297+687436236+688379853+689413459+690346419+691211141
5454.48+692163704+693245375+694412079+695674079+697078299+698455110+699645452
5447.73+700976216+702711011+704431816+705822485+707326650+709233442+711355823
5440.98+713301865+715035169+716897843+718932033+721060860+723439307+725783548
5434.23+727660870+729424828+731412488+733584731+735906299+738186205+740126064
5427.48+741880155+743760810+745818461+747957682+750099359+752212355+754337104
5420.73+756495446+758690976+760901416+763111506+765324315+767658688+770319076
5413.97+772751332+774645670+776765419+779147155+781267957+783213429+785208369
5407.22+787308647+789492073+791737948+793985314+796131201+798247530+800438149
5400.47+802686655+804960597+807306898+809756872+812036077+814178367+816637463
5393.72+818982800+820769694+822585356+824614854+826638123+828590261+830573448
5386.97+832707932+834609374+836053941+837465353+838974736+840450439+841910529
5380.22+843352377+844850270+846581732+848182858+849284395+850338920+851499309
5373.47+852576725+853677122+854829880+855936065+856991730+858002488+858958603
5366.72+859874460+860826189+861786339+862612996+863350452+864117379+864907988
5359.97+865693333+866482188+867276041+868087524+868955053+869859596+870630294
5353.22+871093397+871392222+871837608+872526824+873218409+873668532+874084974
5346.47+874847603+875801701+876267874+876390666+876674843+877142244+877860843
5339.72+878852393+879508193+879655017+879820612+880070933+880361513+880810407
5332.97+881286140+881538567+881671183+881941677+882452581+882969012+883073473
5326.22+882983484+883090225+883310550+883508509+883708135+883916794+884108351
5319.47+884294732+884519969+884768624+884970530+885113934+885261899+885438895
5312.72+885638784+885854460+886068382+886355454+886745232+886956786+886848378
5305.97+886756284+886830047+886930824+886994062+887069668+887183426+887215615
5299.21+887113259+887014849+886985730+886980994+886962049+886936964+886944507
5292.46+887084315+887341039+887384192+887172462+887089841+887245085+887541366
5285.71+887847558+887970263+887992453+888141120+888411527+888640622+888729121
5278.96+888794025+888929974+889080132+889197662+889281599+889352819+889412549
5272.21+889472980+889600333+889767068+889778470+889676026+889702076+889876353
5265.46+890163863+890370944+890331826+890336475+890447426+890547151+890746602
5258.71+891081387+891499758+892077146+892752242+893132197+893247534+893516537
5251.96+893979114+894514928+895186340+895926516+896359096+896574334+897028929
5245.21+897676748+898098014+898303691+898606813+899036061+899492410+899918763
5238.46+900251707+900520271+900797958+901099589+901360962+901547168+901752933
5231.71+901951067+902008429+902015095+902110259+902327251+902642915+902802809
5224.96+902679753+902581081+902629671+902715100+902832191+903027870+903236266
5218.21+903365549+903457644+903597890+903813303+904075027+904361572+904692147
5211.46+905086486+905590199+906117680+906549998+907061516+907572333+907805025
5204.71+908018596+908411357+908859988+909296077+909721816+910145362+910614430
5197.96+911095338+911441086+911677988+911961814+912307563+912655329+912982220
5191.21+913323583+913693803+914024027+914287154+914572208+914944094+915257478
5184.45+915378954+915455963+915609015+915777855+915885210+915927135+915933275
5177.70+915929679+915918628+915886351+915849250+915809079+915766540+915747244
5170.95+915720318+915666026+915633924+915646818+915685760+915753559+915877492
5164.20+916030983+916177018+916377608+916688449+917074719+917505019+918002592
5157.45+918573489+919184470+919816588+920471774+921145466+921811352+922453733
5150.70+923071993+923661748+924228698+924756882+925232790+925666686+926057166
5143.95+926433175+926815410+927154756+927432706+927706621+927995359+928275501
5137.20+928554152+928823068+929057075+929272138+929486235+929687176+929865927
5130.45+930028627+930177732+930308682+930419984+930518043+930618470+930727843
5123.70+930833181+930914224+930974217+931046138+931135163+931223924+931314616
5116.95+931403728+931489946+931590109+931701763+931799295+931859814+931894108
5110.20+931924456+931952610+931976818+931990237+931992693+931991290+931987782
5103.45+931993746+932028040+932100926+932205475+932334407+932505001+932725151
5096.70+932968192+933214128+933470852+933737224+934006578+934284966+934563354
5089.95+934830954+935089608+935335719+935569551+935792771+936004500+936205880
5083.20+936384806+936531631+936662229+936795459+936926672+937060779+937210498
5076.45+937361357+937509585+937684389+937904188+938155737+938429652+938737686
5069.69+939076593+939433656+939808700+940182340+940541332+940903044+941276070
5062.94+941648658+942013001+942365415+942697130+943009462+943312321+943600795
5056.19+943847433+944039691+944203970+944351584+944457975+944507706+944514810
5049.44+944513144+944528230+944559103+944588837+944613658+944661284+944753554
5042.69+944880557+945026417+945179381+945339976+945518551+945708792+945892718
5035.94+946064890+946241799+946426953+946614562+946808574+947004428+947200984
5029.19+947405521+947627162+947871694+948123156+948361724+948594153+948833160
5022.44+949077692+949318541+949547374+949778750+950041087+950326580+950594706
5015.69+950825819+951030970+951226473+951412416+951574415+951699575+951804037
5008.94+951917357+952051464+952212673+952398440+952586927+952764976+952935657
5002.19+953096603+953234482+953347012+953452351+953557251+953643644+953706619
4995.44+953767840+953836867+953917296+954025792+954166302+954320231+954472581
4988.69+954626510+954790088+954952086+955092859+955208108+955307132+955391245
4981.94+955460622+955528597+955603237+955685069+955789706+955944688+956153260
4975.19+956405686+956716263+957100429+957557655+958086628+958675067+959305870
4968.44+959984737+960716054+961485525+962280869+963087616+963893223+964712336
4961.69+965565393+966433624+967287295+968131318+968969991+969796999+970623041
4954.93+971453470+972265742+973050474+973828891+974611693+975386952+976148003
4948.18+976899493+977641423+978366863+979066342+979741087+980402237+981048652
4941.43+981676823+982293856+982904310+983514852+984126972+984718131+985277714
4934.68+985824666+986364515+986884541+987386675+987883721+988374716+988839310
4927.93+989265137+989672019+990094074+990522708+990918363+991279899+991634682
4921.18+991993762+992345650+992682190+993015308+993355531+993692947+994014927
4914.43+994318751+994598279+994854389+995096641+995326263+995537466+995719725
4907.68+995874005+996014866+996154586+996283694+996370964+996400785+996392365
4900.93+996372280+996352107+996315795+996246681+996163182+996092664+996028461
4894.18+995955312+995882162+995821994+995786910+995791208+995838045+995932156
4887.43+996081262+996275449+996505861+996784950+997120262+997496270+997899468
4880.68+998326698+998775856+999241415+999710307+1000181128+1000658002
4874.89+1001120754+1001553071+1001959339+1002352187+1002747667+1003149549
4869.11+1003544678+1003930685+1004326165+1004739800+1005169925+1005612679
4863.32+1006060609+1006514853+1006979886+1007443516+1007891445+1008334902
4857.53+1008779586+1009189976+1009551512+1009905681+1010288794+1010695237
4851.75+1011104224+1011512070+1011931143+1012368811+1012822617+1013278791
4845.96+1013727335+1014181053+1014648805+1015106470+1015515369+1015872520
4840.17+1016210112+1016534108+1016819864+1017056327+1017252971+1017421372
4834.39+1017577143+1017725108+1017854742+1017970956+1018090153+1018212594
4828.60+1018335387+1018456776+1018567377+1018657629+1018728849+1018799192
4822.82+1018879533+1018956629+1019022235+1019083719+1019147835+1019220370
4817.03+1019293782+1019354565+1019426047+1019535684+1019671106+1019811967
4811.24+1019950898+1020091846+1020234110+1020377426+1020511095+1020611083
4805.46+1020686249+1020764398+1020848335+1020914731+1020945868+1020950078
4799.67+1020950429+1020958498+1020952885+1020917099+1020868596+1020826496
4793.88+1020799306+1020782203+1020754311+1020708615+1020666690+1020655902
4788.10+1020688968+1020757557+1020843248+1020953586+1021121549+1021356258
4782.31+1021641224+1021959520+1022293165+1022634966+1022998695+1023384176
4776.53+1023754132+1024081988+1024388531+1024699284+1025007844+1025289214
4770.74+1025523397+1025722321+1025917649+1026122186+1026317777+1026492844
4764.95+1026652299+1026801667+1026950071+1027091457+1027217320+1027334587
4759.17+1027442819+1027536317+1027605256+1027647971+1027674897+1027682089
4753.38+1027669810+1027653584+1027630780+1027579733+1027489218+1027376687
4747.60+1027256789+1027117419+1026949808+1026762724+1026558713+1026335582
4741.81+1026097189+1025833361+1025524537+1025193436+1024876017+1024567984
4736.02+1024254775+1023925867+1023578101+1023231738+1022903268+1022578482
4730.24+1022245100+1021909263+1021566759+1021212415+1020852370+1020474608
4724.45+1020062990+1019630848+1019193180+1018736217+1018252239+1017739755
4718.66+1017185172+1016586032+1015938740+1015223561+1014427691+1013547005
4712.88+1012577909+1011518911+1010371503+1009127878+1007778388+1006340050
4707.09+1004842244+1003284709+1001646394+999929228+998142860+996270976
4701.31+994297174+992198036+989913657+987393955+984648928+981748131+978789006
4694.55+975876544+973107222+970519019+968060800+965613282+963041043+960246899
4687.80+957193137+953892650+950357015+946545448+942395061+937857088+932890482
4681.05+927448142+921481567+914947690+907824233+900195661+892316767+884623992
4674.30+877704195+872135292+868261276+866091269+865385212+865755344+866784520
4667.55+868158393+869669618+871171195+872545769+873694757+874535096+874996182
4660.80+875051877+874699989+873923589+872701979+871015073+868867432+866278791
4654.05+863255814+859816045+856028774+852045297+848082344+844349890+840997392
4647.30+838073702+835545404+833378467+831585521+830215420+829322455+828912065
4640.55+828881893+829045997+829216766+829235360+828975479+828335905+827247963
4633.80+825657274+823485426+820649445+817114687+812936584+808276433+803440776
4627.05+798887016+795062205+792194912+790200060+788746986+787450473+786048182
4620.30+784443722+782636918+780664081+778585467+776478611+774431309+772547233
4613.55+770922162+769604774+768614715+767979878+767720961+767826738+768268879
4606.80+769008441+769975256+771065128+772185697+773284690+774312726+775231565
4600.05+776038049+776751912+777390433+777941684+778366107+778610991+778608798
4593.30+778270066+777497789+776232763+774489372+772416196+770347406+768755488
4586.55+768084603+768525515+769926578+771923535+774125819+776209432+777976153
4579.79+779373883+780447528+781307865+782117945+783055115+784259972+785799176
4573.04+787661325+789751166+791919243+794015136+795919647+797564892+798926748
4566.29+799992236+800762759+801271910+801572488+801719050+801752379+801691158
4559.54+801548807+801332166+801040095+800661192+800165725+799532905+798768960
4552.79+797893888+796918740+795850971+794724350+793599658+792546449+791623839
4546.04+790850509+790205849+789670561+789230964+788853202+788498068+788137146
4539.29+787747630+787315752+786848088+786361566+785862502+785358176+784851218
4532.54+784327771+783781959+783225884+782651829+782031727+781358298+780638909
4525.79+779874964+779059096+778183410+777243082+776256006+775244108+774188355
4519.04+773068751+771886960+770648335+769364451+768042064+766664770+765212135
4512.29+763693016+762122500+760503569+758841660+757139931+755392944+753598507
4505.54+751777582+749935080+748035042+746062819+744038145+741958567+739797769
4498.79+737548211+735213442+732789080+730277973+727689770+725026532+722273963
4492.04+719423729+716490962+713483729+710392559+707213900+703949066+700592796
4485.29+697140660+693583010+689913224+686130119+682233342+678221360+674090752
4478.54+669838184+665450895+660915510+656237730+651429657+646488662+641397553
4471.79+636154883+630771352+625244593+619559168+613711964+607705569+601526869
4465.03+595167620+588624358+581890417+574962683+567834446+560498866+552951731
4458.28+545180061+537160044+528871199+520313438+511490533+502383276+492970002
4451.53+483250887+473225449+462893950+452273363+441380220+430217372+418789599
4444.78+407111506+395194536+383050620+370698571+358147532+345394302+332443990
4438.03+319322382+306066996+292714473+279304851+265892094+252542553+239324992
4431.28+226305543+213538937+201069095+188935331+177175350+165819762+154876197
4424.53+144341674+134223648+124531109+115261470+106409292+97975014+89958220
4417.78+82363745+75200342+68470677+62175061+56312738+50884098+45884414+41295373
4410.07+37098194+33272878+29787772+26619029+23760079+21199490+18915959+16888578
4402.35+15098270+13528628+12165735+10993848+9994039+9148546+8447418+7880141
4394.64+7425003+7062710+6777509+6547743+6359158+6207583+6089216+6000063+5934743
4385.96+5882107+5828989+5774041+5726695+5689227+5658735+5638514+5630488+5628693
4377.28+5631819+5652823+5705828+5780002+5852013+5928002+6017386+6098442+6160945
4368.60+6211672+6243302+6243998+6204115+6115712+5980270+5805784+5598518+5359633
4359.92+5088397+4792010+4483394+4165851+3839746+3513015+3195274+2893932+2609293
4351.24+2339178+2087626+1857263+1643789+1446175+1266306+1101472+952330+817357
4342.56+687191+562647+457672+381834+327233+278320+231669+192916+164533+146167
4332.92+135971+128907+124936+128158+131128+123721+114383+120102+142901+164717
4323.27+169626+159287+152864+166394+193066+222601+257802+295475+328485+364013
4313.63+411845+469369+531067+599766+678597+762569+847230+939067+1043946+1160312
4303.98+1281096+1398398+1518913+1649430+1782569+1914208+2045324+2175247+2307254
4295.31+2442216+2570858+2685553+2788347+2883153+2965833+3025724+3058303+3063720
4286.63+3038335+2984748+2912360+2817316+2689708+2535716+2368915+2192646+2008237
4277.95+1826561+1657522+1503060+1361637+1230849+1109621+1001828+912632+831940
4269.27+744831+661911+599472+548839+500724+460939+432913+413709+394842+373696
4259.62+360893+361897+371643+389012+420100+460282+494700+521675+552640+596122
4249.98+655682+731623+818508+910099+1005459+1111026+1231800+1359292+1490618
4241.30+1634925+1794932+1964428+2137386+2310734+2478903+2638730+2795655+2952249
4232.62+3104076+3253409+3402557+3543650+3677653+3816026+3964302+4117204+4262155
4223.94+4393274+4515957+4632992+4745127+4850562+4933735+4990164+5032500+5060168
4215.26+5070023+5069132+5065037+5063408+5064524+5063127+5059871+5062053+5071999
4206.58+5093025+5127598+5163838+5192507+5221274+5252931+5280697+5307364+5338027
4197.90+5369948+5399468+5424775+5443646+5459375+5477705+5491740+5499577+5507635
4189.22+5506855+5488380+5459214+5423560+5373565+5301338+5206662+5095934+4972216
4180.55+4832575+4678699+4511376+4330571+4146588+3969029+3798632+3639939+3496925
4171.87+3366035+3252540+3162215+3090765+3037673+3009852+3014568+3046047+3089997
4163.19+3140212+3198886+3271737+3360837+3466246+3590404+3730299+3876888+4026901
4154.51+4182864+4343020+4503303+4665167+4834865+5008845+5169666+5310220+5436755
4145.83+5551208+5653283+5742875+5816056+5875881+5934934+5991541+6031663+6057215
4137.15+6080513+6106847+6127737+6131205+6127432+6128952+6119106+6082621+6028209
4128.47+5962639+5892843+5831817+5774279+5707984+5640537+5581487+5522524+5461453
4119.79+5408865+5366780+5331554+5300831+5273792+5255601+5253246+5265388+5289111
4111.11+5325136+5374228+5436473+5504458+5576183+5658889+5751838+5844958+5931533
4102.43+6020961+6115933+6202007+6272318+6335854+6398709+6445055+6463075+6469256
4093.75+6480129+6483495+6468218+6438587+6391175+6326833+6252302+6170719+6080838
4085.07+5979517+5871538+5762866+5656909+5552309+5445720+5340260+5246517+5160047
4076.39+5059686+4947753+4841209+4745602+4657229+4572516+4488037+4401871+4320522
4067.71+4244939+4167512+4074485+3961402+3837775+3711477+3595200+3497342+3426410
4059.03+3401033+3444354+3574110+3798273+4123086+4535403+5012192+5548111+6139768
4050.36+6762338+7396399+8038775+8668449+9272818+9866134+10456953+11038012
4042.64+11605703+12166056+12726590+13308014+13926211+14579374+15268587+15997064
4034.93+16757672+17544232+18366905+19221474+20086159+20945831+21795529+22638104
4027.21+23472049+24290442+25075330+25811224+26499901+27145450+27752944+28323723
4019.50+28853513+29347569+29824615+30304320+30808770+31360645+31968734+32633960
4011.78+33356067+34134300+34975177+35889036+36884096+37988938+39231009+40602878
4004.07+42097151+43701849+45382623+47103201+48821145+50506171+52159232+53782571
3996.35+55387667+56979885+58513925+59980819+61424958+62863006+64279670+65649223
3988.64+66967718+68243067+69471754+70645217+71753754+72810959+73853763+74900378
3980.92+75928200+76900618+77788035+78574171+79255477+79821238+80256910+80556765
3973.21+80714937+80725106+80606058+80384083+80069898+79688513+79266994+78826526
3965.49+78384133+77954830+77561094+77215992+76936403+76732107+76596224+76537470
3957.78+76580985+76740747+77002810+77345725+77756997+78211626+78686498+79221018
3950.06+79814276+80410993+81043024+81695452+82326096+82954777+83603302+84296773
3942.35+84941439+85450798+85875304+86238249+86541491+86832109+87177447+87603054
3934.63+88065725+88533076+88995319+89384198+89701458+89975707+90163388+90273145
3926.92+90362854+90470221+90572731+90639631+90690974+90734691+90740200+90654311
3919.20+90520966+90351452+90053966+89684080+89345201+89015645+88663779+88306897
3911.49+87971163+87679646+87442821+87265753+87139650+87034596+86928425+86792903
3903.77+86656467+86535675+86411424+86329625+86267368+86131693+85928729+85687996
3896.06+85390098+85015866+84608600+84236561+83792885+83227025+82802553+82533774
3888.34+82375607+82352863+82449349+82602275+82829704+83206375+83671803+84298461
3880.63+85180424+85966044+86673553+87494937+88351458+89218160+90273824+91257365
3872.91+91929714+92561860+93397441+94369190+94977331+95379301+95813088+96364952
3865.20+96966701+97342589+97626755+97983983+98312222+98573957+98857925+99184674
3857.48+99499154+99730640+99984711+100439120+100746584+100797411+100833777
3850.73+100881151+100925082+100945398+100963652+100987235+101015083+101038315
3843.98+101009678+100966229+101000348+101090337+101156601+101276576+101481771
3837.23+101643473+101863568+102223273+102542194+102824277+103210141+103542449
3830.48+103705785+103811156+103887945+103888449+103773803+103646066+103595480
3823.73+103656339+103905882+104434657+104940047+105310661+105797829+106469603
3816.98+107558027+108904808+109810765+110633968+111649144+112778517+113941735
3810.23+115088135+116151452+117328309+118864662+120108013+120995759+121985346
3803.48+123134443+124571554+126231380+127358166+128247721
##END=
