##TITLE=√ _2,1ÏÏ
##JCAMP-DX=4.24
##DATA TYPE=INFRARED SPECTRUM
##DATE=7/4/2017
##SAMPLING PROCEDURE=Instrument type and / or accessory
##ORIGIN=Default
##XUNITS=1/CM
##YUNITS=TRANSMITTANCE
##RESOLUTION=2
##FIRSTX=7998.4873
##LASTX=3799.619
##DELTAX=-0.96437031
##MAXY=1.0473431
##MINY=8.5323649e-005
##XFACTOR=1
##YFACTOR=9.7541431e-010
##NPOINTS=4355
##FIRSTY=0.98398691
##XYDATA=(X++(Y..Y))
7998.49+1008788684+1009186980+1009530279+1009839175+1010207222+1010622200
7992.70+1011194100+1011971137+1012463965+1012394120+1012289749+1012563814
7986.91+1013037638+1013415951+1013666856+1014073646+1014769410+1015349560
7981.13+1015477029+1015425210+1015536792+1015796924+1016102887+1016415938
7975.34+1016690920+1016915305+1017213446+1017603797+1017946180+1018216700
7969.56+1018477077+1018770452+1019124445+1019565821+1019966072+1020102218
7963.77+1020087186+1020143893+1020305643+1020574575+1020867889+1021102173
7957.98+1021303643+1021494908+1021746119+1022253368+1023021972+1023603222
7952.20+1023781593+1023892685+1024112854+1024329601+1024429755+1024545064
7946.41+1024977151+1025443337+1025419261+1025160350+1025196648+1025549785
7940.63+1026116980+1026739050+1026885829+1026525297+1026328777+1026475434
7934.84+1026675010+1026882407+1027213118+1027674231+1028112002+1028356063
7929.05+1028430492+1028494409+1028772202+1029668519+1030896526+1031179451
7923.27+1030331775+1029675119+1029864306+1030316254+1030528906+1030750113
7917.48+1031146209+1031528372+1032007084+1032469909+1032494229+1032304798
7911.69+1032294410+1032372138+1032489585+1032904013+1033630209+1034072379
7905.91+1033883803+1033583523+1033698648+1034525060+1036300218+1037938130
7900.12+1037711545+1036434776+1036309873+1037367880+1038105319+1037644083
7894.34+1036563100+1036034403+1036160772+1036526192+1037176492+1037863824
7888.55+1038628761+1040534078+1042689811+1042272939+1039788572+1038204434
7882.76+1038099453+1038339114+1038454118+1038634139+1039002859+1039375489
7876.98+1039507847+1039408242+1039342736+1039453462+1039706200+1040024812
7871.19+1040420174+1041111295+1041782127+1042031688+1043104116+1045669999
7865.40+1047059084+1045540452+1043748428+1043720197+1044332367+1044767204
7859.62+1044860942+1044194876+1043395719+1043116093+1043008423+1042905763
7853.83+1043139680+1044479879+1046925626+1048542273+1048309211+1047589248
7848.05+1047009098+1046008532+1044948081+1044503222+1044616026+1045493522
7842.26+1047729305+1049862673+1049329698+1047072527+1045904161+1046797301
7836.47+1049392638+1051774222+1052017306+1050547316+1048588103+1047106258
7830.69+1046599070+1046628646+1046692319+1046710163+1046731428+1046799501
7824.90+1046878818+1046911449+1046953491+1047106625+1047346531+1047542073
7819.11+1047615157+1047625179+1047712195+1047937313+1048643466+1050548416
7813.33+1052934033+1053847583+1053993140+1055815961+1057897999+1056848914
7807.54+1054068546+1053910401+1056840237+1058693246+1056641395+1053213292
7801.76+1052505795+1055365236+1058444418+1058073254+1055408256+1053285154
7795.97+1051864783+1050832930+1050357517+1050222226+1050272212+1050734425
7790.18+1051818830+1052794953+1052854961+1052767700+1053653262+1055957852
7784.40+1059153993+1060458383+1058033046+1054397179+1052378204+1051841318
7778.61+1051733280+1051727536+1051902669+1052508117+1054420644+1058376712
7772.82+1062090917+1061711321+1057918898+1054946042+1054696115+1055721857
7767.04+1055716113+1054467697+1053983851+1055599154+1058830003+1061960148
7761.25+1062535776+1059677557+1055873035+1053681005+1053008095+1052937944
7755.47+1053080812+1053279288+1053427533+1053765088+1055354970+1058850413
7749.68+1062238430+1062322024+1059252619+1056172582+1055114942+1056033869
7743.89+1057868424+1060156270+1063141836+1065517554+1065486389+1063053230
7738.11+1059506213+1056638951+1055303763+1055110909+1055847370+1057710645
7732.32+1060809137+1063732618+1064068829+1061850645+1059437285+1058190824
7726.53+1058352758+1060182057+1061912852+1060865722+1058090242+1056355292
7720.75+1055963352+1055955041+1055965307+1056385723+1058132895+1060720776
7714.96+1061594973+1060167880+1059101563+1060391532+1063886363+1067904638
7709.18+1070025051+1069161120+1067052928+1066574583+1067393294+1066303145
7703.39+1062888119+1059995314+1059356623+1060004113+1059960605+1058812404
7697.60+1057693169+1057146872+1056988238+1057092976+1057267008+1057385923
7691.82+1057734233+1058737610+1060848856+1063471325+1064032165+1061790393
7686.03+1059583330+1059642482+1061876310+1064431193+1065490422+1065232551
7680.25+1064165134+1063250484+1064518576+1067448413+1068549683+1066327099
7674.46+1063026710+1061252652+1062111694+1064676477+1065689875+1063579484
7668.67+1060750474+1059398910+1059775940+1062048143+1065042019+1065619725
7662.89+1063175933+1060594162+1059492281+1059310549+1059569642+1060169469
7657.10+1060887476+1061993757+1063806435+1064702020+1063463747+1061737719
7651.31+1060921574+1060868411+1061169302+1061549021+1062045943+1063296192
7645.53+1066037208+1069128978+1070643087+1070445467+1068938446+1066417782
7639.74+1064080073+1062951182+1062597983+1062364310+1062904496+1065233773
7633.96+1068669086+1070429701+1068721272+1065259927+1062676445+1061575052
7628.17+1061225887+1061125060+1061156591+1061204988+1061216721+1061256562
7622.38+1061349445+1061463715+1061593751+1061807259+1062261650+1063376487
7616.60+1065830299+1069006641+1070248825+1068325787+1065382141+1063527910
7610.81+1062840334+1062800736+1063493690+1065187698+1067044007+1068301467
7605.02+1069882427+1071649030+1071594156+1069402004+1066725884+1064890107
7599.24+1064130669+1064160489+1064806879+1065640868+1066700219+1068233393
7593.45+1068614579+1066826832+1064713874+1063669067+1063343122+1063300714
7587.67+1063388341+1063518621+1063609671+1063619448+1063616637+1063664423
7581.88+1063761461+1063905673+1064044386+1064093149+1064096083+1064142646
7576.09+1064282948+1064532998+1064843177+1065210552+1065882607+1066957112
7570.31+1067607658+1066986077+1065743039+1065028698+1064984823+1065191120
7564.52+1065351465+1065408905+1065738394+1067097781+1069250947+1070121233
7558.73+1068812077+1067207529+1066506632+1066139867+1065830788+1065746949
7552.95+1065810867+1065856698+1065903139+1066018509+1066163455+1066259882
7547.16+1066307301+1066429759+1066729306+1067103891+1067617068+1068898360
7541.38+1070785344+1071527672+1070355395+1068691574+1067718995+1067379973
7535.59+1067468945+1068079893+1069391738+1070654208+1070483231+1069184218
7529.80+1068166053+1067759814+1067668276+1067794889+1067956945+1067939469
7524.02+1067896938+1068255025+1069402126+1070985164+1071743257+1071115933
7518.23+1069906625+1069013608+1068871350+1069624067+1070538349+1070430923
7512.44+1069510530+1068869639+1068879050+1069386727+1070054749+1070799399
7506.66+1071947599+1073066591+1073158251+1072334040+1071583524+1071602833
7500.87+1072457476+1073281076+1072979696+1071773933+1070885071+1070708227
7495.09+1070628421+1070459277+1070692461+1071637664+1072923845+1073741823
7489.30+1073613621+1072586534+1071177895+1070155453+1069903326+1070310176
7483.51+1070834963+1070827630+1070298077+1069802988+1069807021+1070353317
7477.73+1070841685+1070833374+1070989075+1071625321+1071915335+1071791532
7471.94+1071944177+1072228325+1072019583+1071229103+1070452922+1070379227
7466.15+1070997630+1071453855+1071055070+1070189795+1069584958+1069344319
7460.37+1069171508+1068979143+1068963011+1069108323+1069269646+1069590458
7454.58+1069996575+1069991808+1069614167+1069409214+1069334786+1068985498
7448.80+1068519985+1068456556+1068909970+1069403348+1069351407+1068645866
7443.01+1067823854+1067449635+1067509764+1067780468+1068023430+1067841331
7437.22+1067229405+1066702907+1066454813+1066260615+1066062628+1065983922
7431.44+1066040752+1065990277+1065656267+1065351220+1065488589+1066019609
7425.65+1066436725+1066283102+1065656022+1065001933+1064668533+1064738317
7419.87+1064787203+1064299447+1063474869+1062760895+1062273505+1061980069
7414.08+1061720487+1061374010+1061043666+1060767218+1060364400+1059838635
7408.29+1059421641+1059140671+1058936329+1058842225+1058620895+1057892866
7402.51+1056838159+1055957974+1055356681+1054816129+1054159351+1053430833
7396.72+1052716492+1052050426+1051436423+1050723059+1049845807+1048935680
7390.93+1048050484+1047138400+1046223995+1045282092+1044289714+1043377631
7385.15+1042579574+1041854722+1041075608+1039985704+1038510458+1036967629
7379.36+1035743289+1034856015+1033946010+1032451821+1030454967+1028622612
7373.58+1027040429+1025526442+1024115237+1022861444+1021476270+1019726471
7367.79+1017965551+1016411966+1014860826+1013212770+1011653808+1010198117
7362.00+1008676614+1007125352+1005569628+1003865415+1002133887+1000594480
7356.22+999005025+997230661+995630941+994290070+992869088+991274928+989746459
7349.47+988155171+986277231+984340078+982735408+981576880+980570143+979562060
7342.72+978786857+978192469+977224595+975933160+974959053+974209576+973455088
7335.96+972847806+972440589+972147275+972001169+972048465+972145687+972289227
7329.21+972588040+972621527+972185895+971891054+971972326+972027628+971770551
7322.46+971411181+971144571+970882422+970506430+970089986+969741859+969309161
7315.71+968704690+968223900+967886101+967282058+966234073+964997817+963978491
7308.96+963359294+962742236+961557860+960193462+959232555+958521392+957696203
7302.21+956735662+955797975+954752617+953429406+952045944+950880327+950069193
7295.46+949300773+947987522+946303352+944767672+943427840+942208083+941080231
7288.71+939844892+938431609+937091716+935887663+934626415+933280166+931967466
7281.96+930682630+929392417+928138012+926918805+925727830+924542720+923297237
7275.21+922043322+920763191+919310861+917798157+916391352+915096372+913848078
7268.46+912452211+910858235+909267620+907803312+906478146+905214942+903820358
7261.71+902316881+900909893+899592059+898291641+897034670+895824323+894661702
7254.96+893583346+892511468+891313832+890059000+888887090+887852182+886918100
7248.21+886027221+885144652+884275528+883648509+883205300+882173569+880554905
7241.46+879111375+877842121+876517382+875191788+873930295+872700334+871537101
7234.71+870580593+869686047+868392290+866732440+865232447+864115961+863292666
7227.96+862679702+862097413+861352519+860643127+860182320+859932881+859853197
7221.20+859838409+859636390+859185970+858724734+858408322+858139390+857816868
7214.45+857443320+856940715+856369670+855934222+855563302+855108911+854659163
7207.70+854371166+854198294+853875527+853363878+852819109+852206634+851588108
7200.95+851110313+850687941+850210634+849758809+849426998+849087121+848522615
7194.20+847831922+847275787+846874559+846483107+846024194+845543282+845150241
7187.45+844860716+844590012+844391659+844381576+844527439+844674829+844566242
7180.70+844266206+844177296+844353345+844582374+844817147+845096589+845405546
7173.95+845705215+846052670+846565418+847276643+848127986+848871474+849444903
7167.20+850144150+850935730+851673414+852578470+853849312+855327613+856534904
7160.45+857402868+858371047+859593248+860885845+862135238+863450933+864880654
7153.70+866317157+867707586+869078216+870441941+871776335+873108528+874538921
7146.95+876120309+877634785+878864197+880047778+881321676+882604068+884001707
7140.20+885314041+886107638+886734107+887639468+888577705+889274753+889834554
7133.45+890408410+891016485+891600118+892128083+892571536+892937140+893264979
7126.70+893589946+893925851+894244952+894552626+894866349+895149519+895389303
7119.95+895778860+896335300+896506889+896217791+896051030+896108410+896160656
7113.20+896142630+896088978+896040031+896024999+895977335+895856588+895698932
7106.44+895423461+894956971+894399980+893835779+893267729+892680857+892063004
7099.69+891456334+890897144+890344553+889738188+888950885+887923799+886862920
7092.94+885923217+885050670+884175373+883269584+882338313+881420486+880522458
7086.19+879621068+878750599+877966902+877251278+876583195+875962286+875388247
7079.44+874901774+874536660+874289971+874155658+874140076+874275733+874643414
7072.69+875224053+875805180+876355143+877057385+877929932+878939847+880114446
7065.94+881403682+882753108+884205438+885802592+887514015+889285935+891092564
7059.19+892943434+894837262+896762133+898741449+900742459+902669041+904575457
7052.44+906540170+908484044+910377934+912278545+914160091+915925839+917563140
7045.69+919153266+920717361+922224076+923614322+924846911+926018393+927213341
7038.94+928345654+929319944+930195851+931063815+931918091+932704172+933391992
7032.19+934017667+934621893+935189088+935715953+936221919+936694826+937130763
7025.44+937564439+937997138+938311289+938446275+938562317+938779063+939036385
7018.69+939269569+939453746+939558178+939581215+939574615+939593559+939646111
7011.94+939688274+939679169+939616779+939520597+939402905+939240727+939047751
7005.19+938903355+938808395+938672370+938437108+938149294+937900650+937678893
6998.44+937382279+937021565+936683826+936347860+935935754+935472686+935054347
6991.68+934680617+934270466+933796398+933274911+932731425+932199000+931669325
6984.93+931100052+930526624+930031107+929572866+929080588+928622041+928263526
6978.18+927955608+927665960+927451964+927349609+927342521+927431187+927574117
6971.43+927704030+927876230+928164349+928518648+928866896+929216306+929626701
6964.68+930093008+930530290+930957856+931477449+932061082+932631821+933194739
6957.93+933782099+934442788+935170206+935875075+936549819+937271920+938062461
6951.18+938858380+939618490+940378234+941139077+941829953+942467176+943160741
6944.43+943909485+944605066+945233063+945866987+946505433+947126524+947741322
6937.68+948296112+948767125+949234777+949720639+950178452+950641032+951164658
6930.93+951664147+952044660+952394131+952798660+953188828+953518439+953820613
6924.18+954105677+954397647+954752189+955176089+955627669+956084689+956502661
6917.43+956812962+957073094+957402278+957808578+958227772+958617085+959002731
6910.68+959428586+959878823+960325270+960803188+961365678+961977054+962547549
6903.93+963064575+963596389+964197438+964861121+965535926+966204192+966893418
6897.18+967615152+968372024+969124679+969776935+970340647+970930024+971584236
6890.43+972271995+972955416+973597345+974187455+974755261+975337611+975944709
6883.68+976555351+977137090+977692980+978259320+978842709+979390655+979861179
6876.92+980299744+980777417+981296705+981827419+982339862+982783621+983154419
6870.17+983522161+983926872+984339895+984723891+985092427+985470191+985819417
6863.42+986108515+986397917+986734923+987047240+987279569+987497477+987759381
6856.67+988041696+988307633+988555483+988798445+989038534+989271535+989462372
6849.92+989589414+989715600+989902587+990124895+990327831+990496853+990641493
6843.17+990771773+990922097+991089713+991205144+991259285+991322103+991425985
6836.42+991543921+991633504+991671452+991696567+991760607+991843346+991918324
6829.67+992001063+992066936+992108428+992206932+992359761+992456432+992502324
6822.92+992591601+992723898+992832485+992920296+993044709+993212448+993376154
6816.17+993500629+993610255+993752512+993902652+994008184+994112921+994277115
6809.42+994451454+994598416+994761144+994955892+995127297+995248228+995403073
6802.67+995635830+995896634+996165627+996414150+996641040+996890967+997141323
6795.92+997355381+997550984+997777997+998064955+998353686+998575688+998776485
6789.17+999020424+999285812+999552055+999838403+1000135505+1000415864
6783.38+1000673491+1000923358+1001165158+1001374938+1001560765+1001762601
6777.59+1002010451+1002280361+1002503035+1002682445+1002887520+1003109277
6771.81+1003302498+1003485574+1003687349+1003916195+1004155001+1004344494
6766.02+1004490234+1004662067+1004862009+1005043253+1005174877+1005268004
6760.24+1005374208+1005515854+1005655545+1005786069+1005948859+1006122708
6754.45+1006236673+1006299857+1006389807+1006535547+1006709396+1006875852
6748.66+1006992872+1007060212+1007144417+1007266753+1007374607+1007460951
6742.88+1007560739+1007668715+1007775775+1007874218+1007961601+1008073182
6737.09+1008193135+1008284551+1008377373+1008469767+1008529285+1008574321
6731.30+1008634695+1008726172+1008820399+1008872279+1008904849+1008952634
6725.52+1009008914+1009069288+1009128195+1009173047+1009206656+1009246926
6719.73+1009309499+1009399388+1009505531+1009590286+1009627195+1009657870
6713.95+1009724721+1009809721+1009908592+1010047489+1010205083+1010326870
6708.16+1010408264+1010500658+1010648904+1010845668+1011024651+1011141793
6702.37+1011261990+1011438956+1011601134+1011695178+1011769789+1011867072
6696.59+1011957143+1012026867+1012141626+1012319264+1012476859+1012588929
6690.80+1012715420+1012845578+1012955021+1013087379+1013246012+1013410268
6685.01+1013585951+1013769577+1013951187+1014129192+1014326995+1014557552
6679.23+1014808641+1015064068+1015314973+1015568628+1015820145+1016063229
6673.44+1016336194+1016643378+1016916710+1017142989+1017403488+1017729739
6667.66+1018083915+1018435769+1018765380+1019077087+1019398449+1019743642
6661.87+1020116517+1020505830+1020879499+1021236364+1021606184+1021995008
6656.08+1022392447+1022773450+1023133492+1023527571+1023950248+1024323612
6650.30+1024656706+1024999150+1025346177+1025685198+1026016032+1026346498
6644.51+1026673787+1026990077+1027321888+1027661521+1027959112+1028232871
6638.73+1028511275+1028775624+1029039973+1029329864+1029636866+1029932257
6632.94+1030186585+1030387138+1030567281+1030789466+1031045993+1031278322
6627.15+1031481075+1031662441+1031838796+1032061714+1032315308+1032542871
6621.37+1032767133+1033008139+1033234113+1033453854+1033697426+1033958720
6615.58+1034217814+1034465786+1034704225+1034949631+1035220335+1035508516
6609.79+1035780320+1036038313+1036306573+1036561145+1036789318+1037017859
6604.01+1037242366+1037466262+1037713990+1037973939+1038229977+1038482471
6598.22+1038735454+1039002370+1039275151+1039517624+1039743842+1040009535
6592.44+1040304438+1040556932+1040761274+1040989569+1041269317+1041551265
6586.65+1041815614+1042080940+1042331846+1042573707+1042836590+1043093239
6580.86+1043323490+1043551175+1043782159+1044014122+1044245962+1044462158
6575.08+1044664300+1044863142+1045039130+1045200453+1045402350+1045635413
6569.29+1045850631+1046076605+1046337654+1046583060+1046771636+1046920126
6563.50+1047083526+1047279924+1047480233+1047681031+1047886717+1048106946
6557.72+1048367629+1048651288+1048903048+1049088814+1049239259+1049423313
6551.93+1049658575+1049899459+1050104657+1050276489+1050445145+1050634210
6546.15+1050846984+1051068436+1051268256+1051441800+1051606178+1051769456
6540.36+1051958521+1052162985+1052331640+1052479030+1052633631+1052773077
6534.57+1052909468+1053082645+1053279410+1053464075+1053631386+1053792586
6528.79+1053943032+1054069157+1054199803+1054373958+1054554469+1054706381
6523.00+1054858781+1055025970+1055198781+1055371591+1055525948+1055635207
6517.21+1055714524+1055833805+1055999649+1056134940+1056242733+1056381935
6511.43+1056528836+1056653005+1056769109+1056875557+1056981761+1057083076
6505.64+1057157993+1057248065+1057384456+1057521091+1057625829+1057712356
6499.86+1057801695+1057897877+1057991615+1058087553+1058179336+1058255842
6494.07+1058327093+1058411176+1058524224+1058646316+1058739932+1058798228
6488.28+1058844547+1058913231+1059004892+1059088608+1059153504+1059201167
6482.50+1059240398+1059308960+1059393654+1059451584+1059526623+1059638082
6476.71+1059720455+1059782906+1059882999+1059994703+1060076708+1060142093
6470.92+1060199045+1060246341+1060309037+1060398987+1060490525+1060565931
6465.14+1060638282+1060714665+1060796304+1060890898+1060985858+1061077886
6459.35+1061177001+1061263040+1061322558+1061382198+1061463226+1061540466
6453.57+1061582874+1061618805+1061676245+1061740896+1061808481+1061878143
6447.78+1061935583+1061987158+1062036166+1062066230+1062091651+1062127948
6441.99+1062154469+1062169501+1062203110+1062247107+1062258228+1062246862
6436.21+1062250407+1062280471+1062336568+1062402930+1062462326+1062494468
6430.42+1062487257+1062466481+1062460859+1062471370+1062497401+1062543598
6424.63+1062585762+1062594561+1062570852+1062547753+1062557042+1062587106
6418.85+1062598961+1062586617+1062592606+1062635992+1062670945+1062673634
6413.06+1062667279+1062667645+1062652246+1062609960+1062582829+1062578796
6407.28+1062580507+1062597250+1062603361+1062576351+1062542987+1062534310
6401.49+1062564252+1062602872+1062603972+1062564863+1062509256+1062479314
6395.70+1062513533+1062557530+1062518178+1062416251+1062339867+1062321535
6389.92+1062342800+1062357100+1062332168+1062311025+1062330823+1062334490
6384.13+1062278638+1062200543+1062136870+1062095073+1062067697+1062034577
6378.35+1061988624+1061961615+1061971148+1061958437+1061892931+1061829135
6372.56+1061786360+1061722198+1061632982+1061554765+1061503068+1061450883
6366.77+1061375843+1061311559+1061277828+1061238108+1061170524+1061074586
6360.99+1060957749+1060853012+1060785305+1060729576+1060643415+1060532567
6355.20+1060435895+1060361589+1060294249+1060215055+1060129627+1060074020
6349.41+1060033567+1059955594+1059833869+1059706889+1059619384+1059576486
6343.63+1059546422+1059503891+1059443395+1059356746+1059240642+1059134561
6337.84+1059068321+1059009291+1058936941+1058877545+1058826826+1058747264
6332.06+1058657070+1058589120+1058525446+1058452606+1058366323+1058261342
6326.27+1058159171+1058071421+1057990882+1057916331+1057844103+1057770163
6320.48+1057690113+1057616052+1057564966+1057494326+1057378101+1057272141
6314.70+1057197713+1057119007+1057024658+1056916743+1056803206+1056702257
6308.91+1056622452+1056557556+1056496816+1056439375+1056372157+1056284286
6303.12+1056196780+1056102676+1055975451+1055842971+1055753510+1055705358
6297.34+1055638018+1055512749+1055364381+1055231290+1055128141+1055053102
6291.55+1054981240+1054907056+1054833605+1054731557+1054606532+1054506072
6285.77+1054448998+1054413311+1054346583+1054240012+1054135274+1054021371
6279.98+1053883269+1053755189+1053638597+1053512961+1053383781+1053254234
6274.19+1053115154+1052976808+1052837973+1052683739+1052535860+1052398858
6268.41+1052238146+1052060325+1051896558+1051741835+1051586624+1051443511
6262.62+1051311764+1051170974+1051015029+1050853706+1050684318+1050492442
6256.83+1050296166+1050131177+1049984154+1049831630+1049682163+1049527562
6251.05+1049353163+1049174852+1049011086+1048855996+1048683797+1048501453
6245.26+1048341475+1048192863+1048018341+1047808011+1047594381+1047410938
6239.48+1047237394+1047037941+1046824922+1046621069+1046419660+1046225584
6233.69+1046040063+1045843421+1045632113+1045419094+1045216096+1045020921
6227.90+1044816823+1044591705+1044362798+1044143791+1043924661+1043698076
6222.12+1043462692+1043230119+1042993390+1042729652+1042456871+1042205599
6216.33+1041977425+1041746930+1041490280+1041224831+1040977592+1040748808
6210.54+1040533589+1040320081+1040089708+1039835258+1039555755+1039288717
6204.76+1039068610+1038838358+1038551156+1038250387+1037970395+1037705068
6198.97+1037444752+1037164638+1036860936+1036554668+1036230312+1035884935
6193.19+1035550802+1035232068+1034891946+1034512594+1034134830+1033771855
6187.40+1033384314+1032970620+1032556314+1032147875+1031730759+1031283577
6181.61+1030806332+1030319798+1029822142+1029291367+1028739937+1028190708
6175.83+1027627423+1027036274+1026430826+1025825378+1025196648+1024510111
6170.04+1023778171+1023033277+1022272494+1021475292+1020638554+1019768146
6164.25+1018866879+1017939091+1016990283+1016017337+1015008033+1013960414
6158.47+1012896236+1011843301+1010811509+1009792978+1008793512+1007826555
6152.68+1006880924+1005940854+1005003350+1004071040+1003144230+1002222431
6146.90+1001330391+1000493653+999709589+999005453+998403671+997849675+997296779
6140.15+996779508+996321084+995854165+995315446+994726130+994145308+993571818
6133.40+992926467+992171063+991366406+990586558+989823270+989024235+988203385
6126.64+987399339+986606964+985833472+985103121+984416156+983786998+983258056
6119.89+982841001+982496785+982204266+981989292+981834080+981670374+981486198
6113.14+981323592+981209383+981136299+981081669+981026795+980973143+980924502
6106.39+980848240+980710261+980528468+980325592+980089658+979797689+979432513
6099.64+979009836+978590703+978211473+977872146+977595942+977422704+977353348
6092.89+977369541+977464746+977617574+977785191+977927631+978054551+978187886
6086.14+978297390+978369618+978436103+978503076+978559355+978626084+978736810
6079.39+978896788+979097586+979335781+979611496+979907315+980202462+980516246
6072.64+980856184+981175041+981439023+981642204+981791427+981914497+982004629
6065.89+982025895+981986297+981912052+981788433+981595457+981354145+981083197
6059.14+980767518+980390916+979956567+979474433+978962845+978436958+977886751
6052.39+977314545+976737939+976132369+975471863+974786731+974090173+973328963
6045.64+972466437+971533150+970558188+969535379+968464540+967345548+966160317
6038.89+964935305+963734369+962557570+961360362+960130339+958858091+957530603
6032.14+956161561+954754084+953304442+951839707+950360368+948825971+947234378
6025.39+945603738+943918834+942162802+940336314+938438147+936465430+934413946
6018.64+932260229+929973239+927545213+924989963+922317814+919533229+916636330
6011.88+913601756+910400666+907032814+903541771+900006242+896496623+893090824
6005.13+889853191+886779143+883810442+880840031+877735917+874377782+870671703
5998.38+866555536+862002331+857064885+851870851+846521727+841053078+835484886
5991.63+829825888+824093196+818380974+812868634+807814535+803523601+800214657
5984.88+797944837+796623765+796044043+795969920+796206710+796580623+796934922
5978.13+797138103+797054203+796565774+795612505+794173007+792281379+790072850
5971.38+787730985+785394864+783143804+781009276+778978751+777018927+775118866
5964.63+773295067+771531152+769731734+767761889+765512357+762926491+760031486
5957.88+756926395+753712350+750451436+747172923+743895571+740638323+737395680
5951.13+734140632+730865175+727553908+724153059+720605553+716871304+712924709
5944.38+708728552+704216044+699301452+693851441+687709515+680791225+673055384
5937.63+664448157+654987876+644818265+634121607+623064539+611812173+600470836
5930.88+589039549+577481220+565762302+553835621+541653940+529212493+516546600
5924.13+503673341+490609488+477425255+464219299+451099900+438210081+425716204
5917.38+413769357+402451882+391755773+381615769+371927467+362587109+353542265
5910.63+344771057+336260196+328004731+320007108+312280739+304836500+297699294
5903.88+290927294+284568774+278658321+273251268+268387915+264065511+260263800
5897.12+256954886+254104641+251678678+249630845+247901670+246445566+245221578
5890.37+244158270+243169238+242181474+241127851+239922867+238476373+236726742
5883.62+234648416+232242496+229503925+226429967+223043478+219380694+215492257
5876.87+211435806+207268079+203041476+198809021+194626171+190538815+186587132
5870.12+182805877+179226870+175880880+172805945+170046093+167647139+165657159
5863.37+164112007+163047783+162494871+162449255+162888049+163780196+165061365
5856.62+166657969+168515637+170557940+172706737+174916519+177146176+179339994
5849.87+181448140+183454145+185345117+187104296+188720576+190180804+191475402
5843.12+192576107+193455804+194120587+194577071+194813815+194827625+194625346
5836.37+194211850+193591492+192759459+191722580+190506459+189127625+187582260
5829.62+185868254+184012587+182037487+179958305+177813343+175639293+173440312
5822.87+171221348+169018640+166856689+164732808+162631033+160536682+158449084
5816.12+156372576+154308183+152237877+150149607+148064055+146005299+143979541
5809.37+142005296+140123735+138356643+136722091+135265667+134033994+133049897
5802.62+132331874+131907012+131790924+131998917+132544282+133415271+134589992
5795.87+136057247+137800080+139781933+141960810+144301743+146785208+149372280
5789.11+151999346+154633791+157263684+159877353+162473010+165050198+167601965
5782.36+170132941+172666147+175226271+177828314+180466914+183138451+185867597
5775.61+188677618+191568193+194543279+197619345+200792448+204046930+207367867
5768.86+210720808+214074162+217419068+220745947+224029883+227231676+230329419
5762.11+233320408+236189596+238919979+241512062+243982007+246343242+248603040
5755.36+250779687+252904332+254995520+257028825+258982630+260886572+262764390
5748.61+264589900+266340860+268026192+269645680+271178794+272608881+273928853
5741.86+275123953+276178294+277086069+277841565+278439894+278872318+279119862
5735.11+279159704+278996640+278652272+278132709+277454208+276630883+275657173
5728.36+274539404+273315064+272020573+270662959+269241579+267766059+266268174
5721.61+264776002+263298343+261838374+260405782+259023938+257707999+256459064
5714.86+255252643+254067824+252913941+251785310+250653364+249492361+248310139
5708.11+247130698+245982283+244903898+243939522+243126998+242472908+242000062
5701.36+241758858+241775112+242041783+242546512+243294140+244276817+245466449
5694.61+246838041+248386263+250091867+251915651+253839101+255845244+257913746
5687.86+260026246+262190167+264423689+266716577+269064644+271489706+274012081
5681.11+276607234+279250540+281944473+284670792+287393781+290085728+292734533
5674.35+295318321+297832752+300297900+302724398+305121320+307495144+309863773
5667.60+312240591+314615668+316964957+319271624+321525342+323694549+325755902
5660.85+327702680+329528068+331235367+332850639+334405048+335937856+337521536
5654.10+339210259+341030850+343025230+345241275+347705171+350422385+353394508
5647.35+356621630+360095807+363786609+367661832+371697522+375876569+380188004
5640.60+384604207+389096519+393647004+398249676+402908718+407631373+412435361
5633.85+417324104+422282754+427310577+432419703+437594091+442804502+448039539
5627.10+453269871+458458436+463588216+468640390+473593143+478449439+483233751
5620.35+487943084+492564485+497119523+501610399+506004664+510297920+514497621
5613.60+518597840+522590816+526462067+530194483+533785863+537241403+540557619
5606.85+543731150+546757841+549619910+552307763+554816144+557122872+559220492
5600.10+561125931+562842915+564362891+565688057+566825625+567789649+568610622
5593.35+569315491+569918984+570449148+570944421+571425883+571902579+572384346
5586.60+572872530+573365175+573862708+574374173+574911610+575471289+576059199
5579.85+576692573+577358701+578032955+578707027+579378715+580039098+580679561
5573.10+581279570+581803318+582250072+582645373+583011037+583365091+583716395
5566.35+584070022+584431347+584817849+585237899+585669070+586097246+586522612
5559.59+586940095+587359717+587798649+588264345+588767011+589307747+589874331
5552.84+590451365+591013977+591566568+592126552+592674988+593179548+593612675
5546.09+593963979+594221178+594344798+594327138+594183842+593918821+593545946
5539.34+593077316+592526192+591892146+591131975+590266761+589372582+588437217
5532.59+587419908+586341858+585225433+584057311+582837554+581590177+580350988
5525.84+579174495+578081535+577053288+576074476+575135078+574262531+573508654
5519.09+572885301+572383613+571966252+571574801+571232907+570981390+570791042
5512.34+570631492+570497056+570402585+570344411+570202643+569885620+569522766
5505.59+569223525+568951171+568681934+568443739+568289138+568237503+568236769
5498.84+568235975+568267873+568383365+568619788+569057253+569581307+569863316
5492.09+569985407+570250856+570631614+570961103+571198504+571401073+571625336
5485.34+571874408+572163017+572515848+572937548+573449930+574046884+574702257
5478.59+575427292+576330942+577432457+578290827+578727192+579211893+579876004
5471.84+580584784+581311835+582035036+582730801+583340282+583848081+584423770
5465.09+585092036+585633933+586101096+586707767+587239642+587501913+587806654
5458.34+588324780+588894847+589367265+589822207+590395513+591100260+591908339
5451.59+592863136+593981577+595046978+595972199+597128283+598682784+600171228
5444.83+601385974+602817895+604699012+606756852+608582057+610217341+612013154
5438.08+613980189+616051227+618340662+620512405+622193886+623772525+625570720
5431.33+627556270+629653524+631621658+633232255+634698396+636294266+638049076
5424.58+639882897+641736822+643590259+645477304+647408469+649366887+651328422
5417.83+653289285+655269335+657385165+659749089+661830455+663473133+665348446
5411.08+667374999+669109521+670698914+672339026+674057538+675846140+677706726
5404.33+679576662+681376385+683181547+685067370+687009595+688985796+691040763
5397.58+693156532+695086169+696909602+698958214+700798635+702158755+703567699
5390.83+705122444+706644131+708112654+709620286+711184809+712425220+713271980
5384.08+714119595+715028073+715895426+716758134+717642414+718649090+719862309
5377.33+720884873+721509876+722149300+722819521+723379384+723970349+724609773
5370.58+725218888+725792682+726317408+726781516+727231447+727750306+728273260
5363.83+728654934+728969147+729340372+729769098+730231067+730717968+731226745
5357.08+731789724+732475589+733251525+733824587+733946740+733898160+734097185
5350.33+734611951+735159408+735502524+735892265+736698999+737653491+738042131
5343.58+738120226+738398079+738884186+739665989+740701936+741329443+741437786
5336.83+741557678+741736905+741981944+742409876+742811288+742924703+742935458
5330.07+743128922+743537912+743841002+743682185+743388994+743301611+743286212
5323.32+743229749+743166748+743087736+742974077+742860174+742773769+742680030
5316.57+742527813+742324693+742120290+741934647+741774241+741626118+741483066
5309.82+741441269+741496449+741330177+740863747+740455491+740206358+739972990
5303.07+739705280+739475946+739296780+739024426+738637497+738273054+737967458
5296.32+737676406+737376859+737078901+736830013+736741224+736746907+736498996
5289.57+736042466+735766201+735723793+735819058+735918479+735834030+735662136
5282.82+735603962+735659386+735673379+735532100+735346762+735212510+735090907
5276.07+734942356+734759891+734551332+734308127+734058443+733883189+733731338
5269.32+733411076+733016019+732777396+732713051+732769941+732706634+732450352
5262.57+732312616+732265869+732213623+732304856+732550323+732899182+733434235
5255.82+734054471+734352674+734400093+734612745+735011774+735513829+736208127
5249.07+736960354+737340256+737504756+737955665+738599855+738966925+739091094
5242.32+739315051+739664644+740039291+740375746+740601476+740753021+740915138
5235.57+741101025+741229533+741286669+741378268+741410594+741244077+741041752
5228.82+740976489+741083732+741271575+741202891+740817856+740493500+740327289
5222.07+740214546+740172016+740223468+740253716+740166761+740052918+740014910
5215.31+740068928+740194259+740375685+740621152+740973617+741487466+742013964
5208.56+742434075+742937658+743346891+743398527+743455051+743711578+744025423
5201.81+744318981+744591702+744879027+745237297+745577358+745716743+745729942
5195.06+745804859+745955488+746134043+746323352+746537532+746750123+746873132
5188.31+746924462+747052114+747284626+747374026+747199199+747000784+746899775
5181.56+746778477+746547004+746243180+745913019+745561653+745182362+744771356
5174.81+744352529+743934741+743549461+743218139+742845814+742409632+742026185
5168.06+741741732+741519058+741368002+741312761+741276403+741228984+741299745
5161.31+741552728+741919982+742365513+742928064+743594558+744288000+744972093
5154.56+745668285+746402119+747144264+747845589+748481468+749043775+749554935
5147.81+750020937+750427848+750777869+751080227+751372379+751656221+751863985
5141.06+752001476+752147705+752307989+752461245+752614135+752745209+752848847
5134.31+752951262+753037851+753084536+753105557+753118818+753125600+753119856
5127.56+753095536+753061682+753039623+753035468+753036934+753034856+753045428
5120.81+753079587+753104885+753116190+753151693+753202840+753246714+753285395
5114.06+753307516+753312282+753304338+753276229+753222883+753144177+753045367
5107.31+752923642+752780712+752630084+752478905+752343125+752251159+752216328
5100.55+752225128+752268452+752357730+752487521+752633567+752798983+752999414
5093.80+753209439+753403332+753592519+753778773+753953234+754110890+754242514
5087.05+754344807+754416975+754460422+754480893+754472399+754424919+754346457
5080.30+754265796+754195767+754123600+754043000+753968510+753927080+753942601
5073.55+754019535+754148165+754324703+754555871+754833174+755132110+755437156
5066.80+755738841+756028427+756312392+756603994+756895719+757169845+757427289
5060.05+757674589+757914495+758144196+758352388+758522388+758641241+758710842
5053.30+758732107+758700331+758615698+758494767+758380008+758297269+758230968
5046.55+758169800+758127942+758127942+758180616+758270627+758380375+758507661
5039.80+758651323+758807207+758970974+759133946+759293252+759463741+759653478
5033.05+759851282+760055318+760274203+760510871+760759820+761018914+761294996
5026.30+761579754+761853269+762119146+762389850+762663181+762934802+763210517
5019.55+763509025+763844013+764200267+764550838+764878494+765179140+765461332
5012.80+765722687+765953305+766164063+766386553+766649130+766958637+767304380
5006.05+767673222+768051414+768425755+768787753+769127691+769426871+769684865
4999.30+769925871+770163760+770389245+770591143+770773731+770957357+771164938
4992.55+771402583+771659232+771924131+772189641+772452768+772709967+772930136
4985.79+773081070+773174258+773236709+773271907+773279118+773271602+773270440
4979.04+773293111+773345235+773434696+773569254+773751414+773994742+774314270
4972.29+774702055+775134998+775598067+776093523+776623015+777169739+777723186
4965.54+778283292+778839244+779391773+779959274+780546879+781144261+781744515
4958.79+782350391+782963355+783574487+784182624+784795221+785406169+786010273
4952.04+786613460+787208031+787779626+788331850+788871608+789388512+789870830
4945.29+790316361+790731339+791120590+791474828+791799611+792113885+792419175
4938.54+792715483+793006291+793285795+793553871+793808443+794033439+794231059
4931.79+794416702+794583402+794722909+794841151+794937884+795016101+795088635
4925.04+795150597+795193494+795229425+795272995+795334040+795404741+795468231
4918.29+795531294+795607311+795688889+795763684+795825463+795866955+795888159
4911.54+795890664+795874104+795845384+795804014+795741441+795656135+795547854
4904.79+795404680+795206571+794944850+794626299+794267662+793887088+793488853
4898.04+793071737+792642460+792204445+791762153+791332693+790934336+790573744
4891.29+790258798+790005632+789824878+789717574+789687265+789740916+789881585
4884.54+790098759+790371541+790689908+791061561+791486071+791944068+792414959
4877.79+792877906+793318548+793740003+794136160+794488320+794791410+795061381
4871.03+795318703+795563803+795780916+795976642+796180984+796407079+796649552
4864.28+796898502+797139814+797372876+797599705+797804169+797976613+798120398
4857.53+798220796+798271026+798304819+798352115+798414750+798491012+798581205
4850.78+798683071+798800519+798944242+799114670+799300802+799504227+799727573
4844.03+799962224+800184837+800366447+800506626+800615824+800687381+800712740
4837.28+800688480+800624868+800550134+800480656+800404394+800314261+800227795
4830.53+800160149+800100264+800039769+799989783+799951958+799914316+799871602
4823.78+799833899+799811106+799796563+799784891+799779208+799779208+799786174
4817.03+799801207+799829744+799893662+799997360+800120246+800250404+800392295
4810.28+800552090+800721723+800882434+801012164+801107736+801192186+801275047
4803.53+801346175+801396344+801417243+801407465+801383878+801366829+801347703
4796.78+801305295+801234716+801156866+801099242+801061111+801026647+800995482
4790.03+800977761+800987783+801041923+801147150+801311039+801549112+801869007
4783.28+802267791+802738437+803262491+803806954+804350684+804905475+805478658
4776.53+806042126+806565324+807050025+807513399+807960886+808378186+808749411
4769.78+809080244+809386940+809672676+809925171+810146500+810352309+810541129
4763.02+810706546+810844709+810956412+811055345+811142483+811198152+811211656
4756.27+811193569+811158738+811105636+811028763+810934169+810829127+810704407
4749.52+810544246+810352309+810137395+809894434+809625135+809336405+809026898
4742.77+808700403+808362909+808001950+807604816+807194176+806801564+806426550
4736.02+806050009+805664607+805286599+804930101+804595479+804271306+803949517
4729.27+803641843+803354396+803074953+802786039+802483071+802182791+801896199
4722.52+801613335+801323871+801030191+800730400+800410810+800056390+799640190
4715.77+799141251+798561712+797900168+797144274+796288226+795334896+794283367
4709.02+793133577+791910093+790644567+789342988+788002789+786636070+785229998
4702.27+783729943+782086531+780256926+778187354+775847201+773257547+770506998
4695.52+767761766+765235603+763090686+761314428+759719290+758074290+756213398
4688.77+754065243+751636423+748964641+746058209+742869890+739326661+735354584
4682.02+730876235+725804782+720054490+713558083+706308409+698457931+690423216
4675.27+682943047+676941728+673162382+671855364+672752048+675292694+678868248
4668.52+682960401+687207888+691385651+695332553+698899185+701961562+704442201
4661.77+706299304+707529449+708139603+708119926+707465409+706176846+704254297
4655.02+701692692+698486957+694684879+690438676+685998947+681676054+677773761
4648.26+674492926+671857075+669774854+668193955+667178968+666858217+667298859
4641.51+668412962+669945709+671573905+673030391+674130256+674751836+674799805
4634.76+674175964+672776980+670497750+667243619+662967534+657760179+651947680
4628.01+646139276+641122636+637521050+635432841+634404349+633772808+633029136
4621.26+631944670+630507433+628799737+626921185+624968389+623049690+621300869
4614.51+619868582+618862027+618327891+618275583+618692394+619542698+620781642
4607.76+622362053+624199174+626165719+628142775+630034281+631750227+633219606
4601.01+634424086+635383466+636107279+636585502+636783489+636634204+636049899
4594.26+634917770+633092870+630451764+626962860+622744827+618180439+613962284
4587.51+610911578+609614888+610103071+611872975+614223883+616568926+618547937
4580.76+620012244+620978712+621573406+621993089+622464529+623185714+624268530
4574.01+625725993+627478359+629362838+631201608+632861030+634253353+635335742
4567.26+636100007+636554765+636724582+636659625+636432001+636109051+635727499
4560.51+635292722+634795311+634223778+633573049+632836404+631991233+631014621
4553.76+629906751+628690661+627389509+626028412+624668842+623404722+622328322
4547.01+621510893+620972357+620668778+620541858+620541614+620611582+620707764
4540.26+620807735+620897929+620969608+621032242+621111070+621211347+621324884
4533.50+621456019+621608115+621771454+621934365+622079066+622189975+622266665
4526.75+622302901+622280169+622189303+622036108+621819728+621543219+621214097
4520.00+620819956+620353527+619820063+619218403+618552520+617831396+617050388
4513.25+616196967+615278468+614318416+613330743+612305429+611232451+610121404
4506.50+608984141+607828241+606643376+605400765+604081771+602687431+601226729
4499.75+599698321+598096645+596421702+594670376+592843826+590949754+588989380
4493.00+586953539+584839787+582652156+580390219+578050615+575632367+573132357
4486.25+570538670+567847640+565062200+562178866+559193116+556105502+552909178
4479.50+549590517+546150499+542592421+538908219+535096120+531173539+527148848
4472.75+523000783+518712599+514283930+509721620+505032605+500210987+495239627
4466.00+490103370+484803070+479336805+473695773+467885505+461913304+455765420
4459.25+449417197+442855588+436073321+429055335+421786688+414257846+406458271
4452.50+398372378+389996319+381345187+372434442+363272027+353873526+344261150
4445.75+334458853+324495020+314386639+304140400+293769289+283282624+272677718
4439.00+261954844+251131266+240236789+229305861+218370320+207467975+196652601
4432.25+185973282+175465108+165162696+155109326+145346062+135894687+126768647
4425.50+117983201+109543217+101447944+93706993+86329606+79317188+72667791
4418.74+66375244+60443461+54886761+49710585+44908216+40465947+36370342+32607002
4411.03+29156372+26000390+23118725+20486929+18094005+15935677+13998267+12267470
4403.31+10731967+9379612+8202183+7194429+6343955+5632910+5046257+4569465
4395.60+4188865+3888253+3647933+3459646+3321865+3221229+3143531+3086371+3050173
4386.92+3033962+3033594+3038343+3038171+3035259+3040260+3057565+3084269+3115164
4378.24+3152183+3205516+3275913+3361875+3469773+3596327+3725952+3850444+3978823
4369.56+4117742+4250753+4356274+4432125+4480439+4495494+4476162+4419430+4318253
4360.88+4181307+4024318+3848580+3652290+3442209+3224591+3010193+2810959+2622054
4352.20+2439452+2269506+2107653+1946268+1791030+1645654+1499213+1347281+1201397
4343.52+1065778+934353+808693+695228+595840+508322+428353+357894+304897+268062
4333.88+239204+212327+184617+162317+151376+146300+138361+124041+108693+103813
4324.24+108412+107697+101607+97808+92932+87474+89864+100325+109934+120774
4314.59+138197+161901+191934+230432+274062+317858+363820+414673+473991+541470
4304.95+610023+679389+758665+852098+951574+1049070+1143005+1235854+1332198
4296.27+1430443+1527370+1625185+1721834+1813160+1898988+1973116+2028365+2067883
4287.59+2092143+2093506+2067040+2015005+1941494+1846275+1730736+1602845+1472355
4278.91+1346405+1226731+1113065+1006346+905563+815110+744538+689719+636952
4270.23+580566+522192+468398+429428+406861+391428+377057+369487+372592+374008
4260.59+368115+364485+363140+360145+363529+378526+396640+408647+415837+424364
4250.94+437818+458538+486626+519864+560309+614338+682150+756549+837529+934352
4241.30+1046782+1169312+1304921+1452890+1604493+1757405+1911680+2061536+2208919
4232.62+2364104+2531760+2704490+2871485+3036819+3211997+3396434+3580222+3758662
4223.94+3930812+4088343+4224999+4340955+4432291+4499146+4551705+4591735+4614965
4215.26+4626652+4627637+4611414+4587067+4572412+4566515+4565471+4580845+4615778
4206.58+4660441+4709244+4760425+4812304+4867945+4926517+4976864+5020022+5066718
4197.90+5113503+5155706+5197547+5236193+5265377+5284982+5292491+5286996+5271588
4189.22+5247311+5215767+5176137+5123431+5049422+4946029+4812780+4653106+4470110
4180.55+4268752+4055349+3834297+3606552+3375409+3149407+2935616+2738006+2560123
4171.87+2404595+2275488+2175683+2101390+2049444+2023969+2024337+2041578+2074350
4163.19+2126483+2194161+2271858+2359721+2460849+2575988+2702740+2844160+3007833
4154.51+3190533+3374309+3549302+3727463+3910361+4079811+4234178+4382047+4516103
4145.83+4627113+4722273+4813840+4899469+4971999+5036426+5092320+5130596+5157507
4137.15+5182117+5199456+5206579+5205789+5190509+5149260+5082119+4998056+4900002
4128.47+4788940+4674372+4560725+4442108+4320775+4203977+4091131+3979434+3874733
4119.79+3784138+3704892+3636457+3582679+3541010+3504528+3474758+3459488+3463618
4111.11+3492117+3542895+3605861+3676409+3758753+3852254+3947307+4044398+4149884
4102.43+4259024+4361456+4456013+4545242+4622405+4679712+4721051+4752813+4768478
4093.75+4763288+4744500+4713383+4665597+4607739+4546732+4474295+4388765+4300087
4085.07+4212645+4126052+4046879+3988307+3946431+3910739+3889835+3893781+3907878
4076.39+3909969+3899619+3881703+3854972+3816124+3761883+3692880+3608314+3504241
4067.71+3372562+3208819+3014383+2792272+2548736+2299341+2065675+1866021+1725216
4059.03+1662683+1681762+1779788+1953904+2205839+2532037+2919296+3346038+3797047
4050.36+4267745+4741960+5195052+5616670+6017281+6406065+6782093+7148631+7524785
4041.68+7926476+8352855+8810554+9305297+9832434+10393632+11000373+11659918
4033.96+12363860+13101385+13859259+14625050+15394742+16162709+16916700+17650275
4026.25+18363806+19042901+19674698+20258629+20789786+21271628+21718804+22137337
4018.53+22531099+22924829+23349889+23831821+24392896+25039020+25758462+26537085
4010.82+27369723+28273634+29287813+30444954+31786639+33354490+35145246+37135001
4003.10+39286891+41547427+43871612+46220077+48550159+50823473+53016535+55144861
3995.39+57222637+59204264+61067268+62835537+64513023+66066035+67442959+68635882
3987.67+69664160+70534324+71245464+71809383+72274842+72697420+73099749+73469897
3979.96+73777486+73987931+74086168+74070296+73920950+73626919+73195480+72621281
3972.24+71900310+71060616+70109852+69054427+67973360+66918248+65885334+64878672
3964.53+63926220+63064004+62284478+61602134+61058919+60654223+60394923+60299206
3956.81+60358965+60549661+60854856+61266633+61764518+62322307+62962945+63674834
3949.10+64413144+65224660+66077141+66924137+67801680+68726771+69703337+70578733
3941.38+71265087+71857207+72372369+72808704+73241471+73756840+74373814+75033021
3933.67+75673423+76254359+76699692+77021168+77252359+77357914+77372725+77363238
3925.95+77351368+77299427+77188861+77066632+76942478+76749701+76409220+76013804
3918.24+75548956+74873586+74136162+73464229+72796329+72120486+71484798+70916777
3910.52+70432413+70037593+69721364+69458749+69209257+68928829+68575768+68236701
3902.81+67913055+67552142+67256483+66907600+66378230+65812349+65211713+64526390
3895.09+63738152+62910706+62138909+61263341+60307257+59674051+59282577+59022345
3887.38+58925636+58982507+59162303+59445587+59874860+60398349+61116452+62147659
3879.66+63061380+63859442+64773232+65720650+66652280+67723295+68682637+69329500
3871.95+69932603+70683738+71473630+71922469+72216103+72535082+72889479+73185803
3864.23+73324248+73442253+73598764+73731862+73848546+74003659+74207588+74421180
3856.52+74599796+74810454+75153135+75365245+75355116+75302312+75256971+75194329
3848.80+75092280+74980477+74866260+74752433+74614836+74393972+74182740+74077354
3841.09+74005011+73924235+73939099+74065285+74188935+74382071+74730045+75085337
3833.37+75414574+75801045+76081747+76171720+76174042+76093587+75869126+75524375
3825.66+75216320+75011718+74928444+74989063+75159734+75276281+75391177+75625370
3817.94+75993562+76601050+77324664+77830385+78351514+79039304+79838270+80693424
3810.23+81567239+82406895+83379772+84686202+85770454+86568679+87449552+88450065
3802.51+89720838+91281465+92402328+93287799
##END=
