##TITLE=ֽופע_1_2,1לל
##JCAMP-DX=4.24
##DATA TYPE=INFRARED SPECTRUM
##DATE=7/4/2017
##SAMPLING PROCEDURE=Instrument type and / or accessory
##ORIGIN=Default
##XUNITS=1/CM
##YUNITS=TRANSMITTANCE
##RESOLUTION=2
##FIRSTX=7998.4873
##LASTX=3799.619
##DELTAX=-0.96437031
##MAXY=0.59815085
##MINY=5.5521283e-005
##XFACTOR=1
##YFACTOR=5.5707139e-010
##NPOINTS=4355
##FIRSTY=0.18129033
##XYDATA=(X++(Y..Y))
7998.49+325434643+325859231+326204241+326575331+326969372+327351885+327784846
7991.74+328296583+328726815+328989732+329217688+329531375+329910142+330284790
7984.99+330670218+331121556+331611145+332023616+332296082+332525536+332854416
7978.24+333290881+333711511+334068103+334456688+334925787+335430890+335957232
7971.48+336471404+336830296+337029845+337287278+337702237+338159807+338520759
7964.73+338821179+339215059+339684747+340094115+340418555+340730931+341101593
7957.98+341547260+342017536+342425888+342815917+343287236+343709818+343988196
7951.23+344283052+344690253+345136000+345501714+345790016+346166483+346601450
7944.48+346891705+347104200+347425751+347852399+348370663+348954542+349388894
7937.73+349609013+349832073+350167561+350578828+351031958+351480674+351888518
7930.98+352253830+352615558+352974531+353287175+353663776+354285853+355000000
7924.23+355400729+355470758+355602604+355986882+356424631+356717801+356990080
7917.48+357370827+357814648+358316943+358754478+359023681+359336004+359774849
7910.73+360145913+360407038+360769568+361346306+361867084+362105125+362288035
7903.98+362644440+363219466+364068161+364847309+365006653+364864883+365166693
7897.23+365868055+366448511+366643699+366621229+366735876+367072915+367579168
7890.48+368231098+368794434+369294027+370224361+371238714+371320325+370730882
7883.73+370511379+370817602+371268592+371676810+372013394+372349978+372750172
7876.98+373106309+373345580+373606919+374004009+374466582+374883226+375297088
7870.23+375813693+376308552+376669932+377302415+378417505+379184856+379056621
7863.48+378832463+379147300+379680544+380162670+380491336+380559787+380657608
7856.72+380954256+381182586+381311785+381609689+382376559+383589952+384535774
7849.97+384749633+384716250+384782909+384779378+384781571+384982564+385332710
7843.22+385923143+387008969+388093325+388237128+387742617+387584717+388102312
7836.47+389246532+390417233+390904736+390787361+390429297+390138454+390178337
7829.72+390543864+391024786+391411979+391706059+392013941+392333727+392677640
7822.97+393029123+393314509+393621482+394051367+394507172+394864085+395145914
7816.22+395479769+396074830+397166808+398411953+399053610+399379869+400322588
7809.47+401410821+401444713+400864605+401180458+402571973+403525204+403034947
7802.72+402082465+402144469+403472428+404852415+405007774+404366892+403912745
7795.97+403708784+403668285+403850233+404145730+404468271+404927526+405641139
7789.22+406349589+406713751+406988705+407621188+408740665+410158795+410991602
7782.47+410534379+409559535+409129704+409272678+409583716+409934531+410332852
7775.72+410835735+411832407+413640967+415360400+415554518+414505953+413751441
7768.97+413971212+414670299+414977138+414772080+414876963+415823480+417370702
7762.22+418884300+419444159+418694863+417594485+417073038+417085289+417383702
7755.47+417848575+418350736+418790839+419247473+420158975+421792329+423374405
7748.72+423708849+422871174+422047275+421998618+422692410+423718131+424918336
7741.96+426379586+427570564+427809406+427149265+426126379+425403191+425238229
7735.21+425475279+426104418+427239463+428835689+430259384+430652702+430127644
7728.46+429563345+429419622+429800636+430851689+431852373+431724593+430958659
7721.71+430678462+430949885+431336731+431647983+432061230+432977467+434253614
7714.96+434978407+434862958+434787552+435546211+437199064+439092767+440207911
7708.21+440153878+439696976+439942800+440698409+440662940+439656960+438824822
7701.46+438856974+439392197+439696468+439603916+439548866+439727898+440027729
7694.71+440434904+440924894+441387092+441858304+442541476+443665794+445009348
7687.96+445569903+444999986+444390214+444716794+445981518+447390286+448193187
7681.21+448457228+448382972+448371684+449218909+450688290+451445290+450937592
7674.46+449990941+449597248+450227564+451557155+452314583+451848399+451062457
7667.71+450840332+451338080+452619201+454179102+454745274+454069859+453359777
7660.96+453314304+453655087+454122715+454690010+455304544+456071922+457117545
7654.21+457825808+457698268+457336620+457317093+457634819+458112184+458605544
7647.46+459133090+459977131+461443143+463027653+463959271+464251852+464063539
7640.71+463464412+462921940+462830084+462981805+463129834+463582643+464802349
7633.96+466551419+467647919+467310238+466272266+465612098+465553731+465789979
7627.20+466089248+466449452+466893487+467328160+467705911+468051349+468360247
7620.45+468702850+469184976+469806357+470659707+472033702+473669998+474454121
7613.70+473941662+473087242+472735545+472841043+473145716+473716007+474722736
7606.95+475829346+476685639+477676479+478802296+479228783+478744624+477983987
7600.20+477521816+477512347+477853237+478462689+479172075+479998783+481027982
7593.45+481582170+481219077+480669062+480551954+480774186+481126579+481510268
7586.70+481848537+482121217+482448627+482884744+483312409+483683365+484071923
7579.95+484512694+484954429+485326081+485640116+486049110+486605705+487131004
7573.20+487575146+488148219+488919128+489529489+489621988+489459032+489536230
7566.45+489920294+490445272+490935850+491265025+491655883+492569685+493869799
7559.70+494578329+494321538+493944375+493976688+494172545+494395258+494709774
7552.95+495093785+495485338+495892192+496326865+496740299+497099165+497440377
7546.20+497830325+498313360+498848075+499447148+500366033+501524911+502176199
7539.45+501995535+501620834+501609706+501892551+502285174+502846157+503729252
7532.70+504614540+504872080+504650170+504588593+504817031+505156530+505542360
7525.95+505947662+506308079+506672670+507239644+508167998+509252995+509917176
7519.20+509940073+509725652+509689862+510011119+510732274+511515381+511821979
7512.44+511756230+511849371+512240870+512797787+513392473+514043118+514917065
7505.69+515814872+516249277+516239648+516239648+516590596+517338233+518082928
7498.94+518317893+518130916+518077204+518348708+518658730+518922422+519375980
7492.19+520163955+521129224+521900454+522216735+522104068+521834972+521728832
7485.44+521937261+522456996+523081962+523501441+523674187+523828208+524186004
7478.69+524780530+525348574+525674325+526035972+526639539+527161040+527514235
7471.94+527957200+528418141+528647113+528636360+528620899+528907596+529569904
7465.19+530215092+530422077+530341187+530358895+530571658+530887511+531234501
7458.44+531582988+531933722+532371498+532972176+533569376+533911497+534074507
7451.69+534315034+534621419+534830222+534983655+535288916+535829676+536446510
7444.94+536854006+536908200+536838010+537001608+537444038+537957407+538356664
7438.19+538552200+538644966+538850880+539178450+539488204+539734938+539979853
7431.44+540316785+540685976+540949294+541207316+541656433+542267704+542811834
7424.69+543088634+543155774+543261594+543549040+543952309+544270891+544389229
7417.94+544380830+544358682+544453587+544715568+544989693+545179451+545376324
7411.19+545607597+545797248+545959669+546169863+546439280+546754813+547109559
7404.44+547369454+547370738+547222280+547158938+547274173+547482442+547605006
7397.68+547621912+547660698+547779036+547898444+547911284+547864205+547820390
7390.93+547724307+547608805+547594628+547610035+547553113+547491858+547472919
7384.18+547505714+547534121+547372075+546947567+546486519+546240107+546247810
7377.43+546281889+545877068+545093961+544498419+544138697+543835683+543611740
7370.68+543494257+543254425+542730677+542234428+541912048+541547993+541128139
7363.93+540818598+540546025+540165385+539777309+539447492+539117943+538882712
7357.18+538744686+538441084+537997798+537755879+537734373+537678039+537550285
7350.43+537514655+537439330+537106090+536741820+536707207+536969455+537174193
7343.68+537285630+537620261+538031395+537976399+537635294+537609401+537799533
7336.93+537955802+538109663+538302149+538522615+538754583+539004046+539273356
7330.18+539641637+540068393+540161265+540003018+540088989+540409444+540629856
7323.43+540629161+540625737+540732626+540833042+540855993+540898417+540996212
7316.68+540982142+540885792+540986475+541251238+541357699+541122949+540684157
7309.93+540427633+540519810+540543778+540125636+539685827+539567328+539606703
7303.18+539603279+539546571+539470871+539232911+538799040+538412195+538236881
7296.43+538285244+538243248+537784821+537228601+536858125+536575548+536334752
7289.68+536125093+535822989+535409340+535070590+534849803+534577122+534179096
7282.92+533778501+533457672+533153588+532808846+532444363+532123962+531852565
7276.17+531573305+531273180+530896392+530390994+529890305+529506722+529224038
7269.42+528986238+528642726+528137703+527610211+527173612+526877178+526610811
7262.67+526154364+525591188+525147528+524792888+524414121+524012563+523647331
7255.92+523343247+523020118+522566239+522035109+521577913+521209631+520879173
7249.17+520571826+520289837+520062683+519937818+520002177+520079107+519685842
7242.42+519068152+518744166+518578803+518406593+518263645+518168579+518098550
7235.67+518085068+518191423+518225341+517906866+517426077+517119212+516978351
7228.92+516885104+516840754+516735095+516448826+516148861+515949794+515841460
7222.17+515833436+515792563+515513088+515072745+514721796+514508285+514257325
7215.42+513882677+513496741+513123377+512717914+512320583+511940692+511539937
7208.67+511142178+510818888+510504747+510046374+509501441+508974002+508464967
7201.92+508042866+507685872+507240767+506724777+506315837+506085420+505887637
7195.17+505536314+505083024+504694573+504439547+504281086+504121233+503971759
7188.42+503943512+503990590+503980212+503994121+504191102+504548523+504917768
7181.67+505128658+505286852+505665031+506241849+506864514+507540304+508323517
7174.92+509158999+509972974+510814448+511762596+512843474+514027015+515173749
7168.16+516282393+517515847+518768615+519910481+521140084+522624445+524199807
7161.41+525482159+526506061+527653812+529009670+530398859+531675968+532893159
7154.66+534157910+535459468+536725610+537930551+539109544+540256171+541357218
7147.91+542472014+543604143+544600386+545450366+546331214+547210564+548072527
7141.16+549014577+549818495+550311855+550858768+551613627+552308462+552856391
7134.41+553347986+553823050+554327271+554852409+555346197+555799220+556225173
7127.66+556583772+556884752+557196433+557501373+557777745+558043470+558273727
7120.91+558502485+558888795+559290835+559270452+559004138+558928170+558994401
7114.16+559057422+559088772+559055175+558972788+558909446+558870660+558841717
7107.41+558795281+558648695+558389978+558097343+557818671+557569637+557322528
7100.66+557016519+556708369+556470944+556225120+555930826+555589828+555141406
7093.91+554638149+554191385+553832519+553528703+553193001+552808296+552443545
7087.16+552103831+551769628+551480310+551278996+551165901+551116361+551086884
7080.41+551059760+551092715+551229243+551464956+551781184+552151766+552591628
7073.66+553186261+553920524+554628840+555308695+556068851+556899999+557827230
7066.91+558864935+559918048+560949172+562029782+563207331+564457959+565727204
7060.16+566992223+568274896+569550026+570814670+572140142+573461922+574649903
7053.40+575778073+576971779+578223156+579483734+580707452+581847980+582907352
7046.65+583938637+584981103+586041705+587102254+588107646+589039370+589950338
7039.90+590868421+591766388+592612997+593426117+594260261+595118425+595922718
7033.15+596636544+597322070+598028514+598748921+599466439+600181496+600871837
7026.40+601499585+602110588+602748822+603348858+603889778+604441077+605025117
7019.65+605602095+606142855+606657187+607141934+607576179+607978860+608383628
7012.90+608802358+609229595+609636181+609990553+610313683+610643285+610961439
7006.15+611261831+611589829+611954152+612301409+612573929+612797123+613054289
6999.40+613350455+613617893+613828248+614007788+614211455+614433580+614624354
6992.65+614853541+615181324+615499906+615750385+616001719+616275844+616574685
6985.90+616913329+617222763+617498332+617843181+618229278+618584185+618962471
6979.15+619366222+619748734+620171477+620661521+621142951+621614270+622130367
6972.40+622649675+623133780+623689091+624373119+625072234+625689015+626267437
6965.65+626914552+627639292+628350872+629040571+629754611+630484648+631219446
6958.90+631951141+632710548+633536560+634327906+635003963+635657069+636386784
6952.15+637195142+637998472+638733537+639455495+640205861+640910754+641565786
6945.39+642279559+643065073+643827155+644524290+645222335+645970882+646729326
6938.64+647420469+648015209+648617278+649290339+649944354+650556267+651222427
6931.89+651943957+652604553+653181852+653740427+654299323+654894597+655539946
6925.14+656154427+656704763+657261840+657871559+658510755+659152413+659800330
6918.39+660422193+660950595+661448449+662050999+662743748+663420982+664057343
6911.64+664691083+665337769+666007513+666705718+667431368+668196713+668968853
6904.89+669692577+670365156+671030353+671737492+672495348+673269735+674054393
6898.14+674873344+675709146+676555060+677413653+678204356+678905718+679621096
6891.39+680398960+681213309+682034667+682845540+683642663+684414268+685156395
6884.64+685901893+686676119+687453876+688193274+688911006+689647088+690370384
6877.89+691037025+691676543+692320126+692964566+693634310+694341663+695015259
6871.14+695617061+696215492+696839067+697436374+697996607+698558446+699104127
6864.39+699574377+700003218+700469776+700958643+701408188+701798672+702168023
6857.64+702558507+702953912+703318502+703628899+703885530+704141893+704442767
6850.89+704730588+704941906+705120697+705317784+705524929+705725119+705919746
6844.14+706119722+706305789+706463127+706614955+706775664+706953759+707154699
6837.39+707370885+707597450+707817595+708042234+708357338+708773394+709178750
6830.63+709567307+710024450+710514279+710982977+711498593+712075785+712632113
6823.88+713187745+713814637+714481707+715140590+715805466+716491420+717196741
6817.13+717906394+718607810+719341912+720117315+720858747+721551709+722265108
6810.38+723017881+723759848+724475868+725212003+725981040+726716373+727396656
6803.63+728085338+728804354+729565687+730355054+731081987+731758686+732449187
6796.88+733123960+733793116+734500576+735232325+735975683+736718880+737437521
6790.13+738149368+738854261+739519725+740185724+740891526+741600484+742293286
6783.38+742968915+743612445+744232222+744851089+745503874+746213261+746930832
6776.63+747587469+748202698+748840344+749494573+750130186+750733378+751302920
6769.88+751897071+752585860+753332107+754021806+754614192+755182610+755780720
6763.13+756382200+756960035+757520268+758079110+758660154+759277684+759916720
6756.38+760545859+761128348+761668038+762233728+762861797+763497623+764078560
6749.63+764619106+765161738+765714482+766290069+766883364+767467565+768060218
6742.88+768653459+769194326+769716522+770284566+770857318+771393852+771939908
6736.13+772518812+773111947+773716583+774310895+774866635+775402098+775956875
6729.38+776533853+777099917+777633401+778148857+778681217+779246854+779808746
6722.63+780325378+780822430+781335478+781849542+782366977+782918008+783475941
6715.87+783980001+784445436+784937940+785463667+785988217+786501853+787022605
6709.12+787579361+788151417+788682761+789179974+789701902+790261654+790808406
6702.37+791336540+791888909+792450908+793012265+793581860+794136369+794671030
6695.62+795187288+795709965+796284697+796870127+797416933+797968178+798550613
6688.87+799136633+799720619+800324774+800951399+801562509+802125631+802655638
6682.12+803189871+803765405+804385289+805001802+805592155+806192298+806798753
6675.37+807361608+807905845+808508984+809168189+809808563+810380459+810921058
6668.62+811507184+812163768+812829339+813431140+813987629+814569529+815185828
6661.87+815785811+816373275+816993533+817627005+818226881+818784118+819333972
6655.12+819913786+820522435+821148578+821753108+822294777+822818685+823399034
6648.37+824023626+824643830+825253335+825847219+826416547+826963031+827499939
6641.62+828072638+828678772+829261849+829811437+830356851+830918314+831486358
6634.87+832056168+832648286+833254795+833835465+834392488+834976421+835567683
6628.12+836087740+836563446+837085749+837671875+838284697+838876548+839432234
6621.37+839987866+840546120+841071793+841570290+842080770+842626772+843186257
6614.62+843726054+844246484+844761993+845270440+845768348+846263313+846762505
6607.87+847284968+847835519+848374032+848881195+849359790+849815541+850291996
6601.11+850819970+851363726+851877790+852359755+852848461+853374135+853894191
6594.36+854368346+854847796+855375663+855893900+856344837+856766991+857220817
6587.61+857718510+858241883+858738186+859184950+859641397+860136737+860638550
6580.86+861129235+861607670+862062405+862510720+862994664+863514774+864029320
6574.11+864504170+864947349+865400372+865875115+866330759+866763613+867245151
6567.36+867791367+868315008+868761397+869171782+869600677+870039362+870471307
6560.61+870936741+871443423+871947697+872454432+872953677+873396001+873797130
6553.86+874226828+874718155+875234734+875719107+876154636+876581712+877050517
6547.11+877554309+878057353+878544454+879009675+879472702+879933428+880367620
6540.36+880807696+881272542+881729149+882169226+882594857+883008077+883452701
6533.61+883938786+884420216+884888058+885350818+885797367+886243114+886703413
6526.86+887172806+887647014+888109292+888548245+888978424+889413739+889857400
6520.11+890312830+890772968+891208979+891622359+892058530+892516582+892959387
6513.36+893402459+893881589+894376126+894856968+895327592+895771306+896184526
6506.61+896605932+897056012+897531718+898028128+898531760+899023302+899501790
6499.86+899971397+900426346+900889961+901385462+901879464+902351853+902835156
6493.11+903356336+903903515+904440637+904949084+905455499+905992621+906559595
6486.35+907111910+907624744+908155339+908735902+909312827+909880978+910463680
6479.60+911040284+911610789+912184396+912749552+913324443+913925014+914518416
6472.85+915080683+915608389+916109667+916629135+917178347+917729700+918282764
6466.10+918835615+919377552+919906221+920425475+920942053+921447612+921946643
6459.35+922448135+922930047+923377827+923826249+924316721+924821209+925274553
6452.60+925681353+926090186+926517102+926974298+927473436+927976533+928428379
6445.85+928829402+929222292+929642467+930090996+930535674+930971256+931403522
6439.10+931798873+932166192+932568178+933003974+933432067+933869254+934349668
6432.35+934831687+935241483+935593180+935961676+936373505+936807055+937233970
6425.60+937661421+938112304+938547245+938919806+939279100+939700773+940173911
6418.85+940619123+941010730+941420633+941887245+942345617+942755842+943154938
6412.10+943559385+943947354+944326870+944722008+945120463+945538819+945997726
6405.35+946438124+946814644+947158316+947533232+947980477+948449870+948858704
6398.60+949215216+949569267+949948783+950375913+950811067+951172822+951467918
6391.85+951773928+952150876+952604755+953065589+953464365+953841955+954270476
6385.10+954709910+955090389+955429568+955774096+956145053+956555598+956985082
6378.35+957379150+957757489+958171351+958583929+958958845+959331299+959730289
6371.59+960124143+960483009+960842838+961233054+961615566+961971971+962347314
6364.84+962752938+963156635+963545567+963906038+964222748+964539029+964916833
6358.09+965333050+965728187+966096576+966452767+966803394+967166219+967538995
6351.34+967888231+968213928+968547757+968902557+969261316+969591293+969902225
6344.59+970245148+970622097+970974543+971287935+971602291+971924778+972257644
6337.84+972613728+972983080+973353929+973714614+974056254+974377885+974687426
6331.09+975010876+975366318+975713842+976013218+976298471+976600415+976906424
6324.34+977221850+977561670+977916257+978262711+978593116+978937216+979308173
6317.59+979651525+979944053+980231659+980537776+980854271+981178898+981503312
6310.84+981805790+982091471+982401333+982744149+983087501+983419831+983746920
6304.09+984066518+984400989+984750439+985053239+985299331+985555266+985871868
6297.34+986234158+986581897+986896573+987200657+987504955+987822734+988143081
6290.59+988439248+988725035+989004510+989275318+989565706+989874819+990183182
6283.84+990474426+990749942+991037977+991326867+991603239+991895125+992190649
6277.09+992465951+992739434+993028645+993320852+993607710+993895209+994180782
6270.34+994458652+994729353+994993955+995253208+995503900+995750527+996011598
6263.59+996272456+996508169+996753939+997035233+997313959+997563367+997787204
6256.83+998007723+998250284+998496697+998748888+999036387+999312545+999531994
6250.08+999739568+999975388+1000224154+1000443711+1000635984+1000863779
6244.30+1001149031+1001432465+1001656194+1001842903+1002053900+1002289399
6238.51+1002519335+1002756867+1002985518+1003166449+1003332293+1003510870
6232.73+1003693085+1003900765+1004128026+1004326718+1004508184+1004722819
6226.94+1004947404+1005144599+1005327349+1005506461+1005697770+1005911442
6221.15+1006115484+1006282399+1006439897+1006612376+1006767734+1006897842
6215.37+1007035867+1007188658+1007343482+1007476051+1007578553+1007703632
6209.58+1007879320+1008055222+1008191643+1008289010+1008385734+1008515949
6203.79+1008639102+1008715069+1008779909+1008866576+1008959235+1009043762
6198.01+1009115343+1009173977+1009230899+1009281080+1009309327+1009319813
6192.22+1009343031+1009380801+1009400809+1009419427+1009443073+1009436225
6186.44+1009409904+1009390752+1009375879+1009355443+1009318422+1009248981
6180.65+1009153648+1009063343+1008971219+1008847852+1008711538+1008575653
6174.86+1008438484+1008318648+1008203519+1008056292+1007867444+1007642109
6169.08+1007409820+1007194222+1006963966+1006704286+1006448136+1006196053
6163.29+1005932199+1005676371+1005426962+1005158080+1004862342+1004539748
6157.50+1004204100+1003875835+1003557735+1003235569+1002882373+1002484882
6151.72+1002069094+1001656515+1001238801+1000817235+1000418781+1000041725
6145.93+999630324+999166495+998718822+998321009+997919772+997487614+997071719
6139.18+996693486+996307978+995883952+995444196+995028408+994625567+994195655
6132.43+993744772+993306836+992902175+992509926+992092854+991666046+991275188
6125.68+990911186+990535949+990160178+989804415+989473796+989189506+988950048
6118.93+988715298+988465676+988231247+988021962+987807327+987590659+987406839
6112.18+987261217+987129183+986996508+986853240+986684934+986508604+986345863
6105.43+986180339+986014174+985857959+985684090+985491496+985305322+985119042
6098.68+984936292+984760497+984566833+984345244+984130288+983944328+983778804
6091.93+983632861+983502647+983374893+983237831+983120776+983041599+982946586
6085.18+982831779+982742437+982652453+982537218+982439423+982376509+982306641
6078.43+982201677+982079487+981981586+981919742+981878227+981853190+981830721
6071.68+981783214+981723510+981664983+981579279+981451418+981282685+981079713
6064.92+980876955+980692600+980489734+980234120+979931962+979595565+979224181
6058.17+978825833+978404481+977946965+977450501+976925898+976369302+975779752
6051.42+975164202+974502429+973785446+973046314+972291776+971495615+970649274
6044.67+969759491+968831725+967854420+966810456+965717381+964590387+963414069
6037.92+962189067+960927044+959623720+958276636+956878834+955441872+953982762
6031.17+952468549+950888212+949286154+947660665+945976006+944247051+942485141
6024.42+940661708+938778250+936867294+934929161+932936887+930892721+928831970
6017.67+926756132+924641348+922492646+920319227+918107076+915843888+913529020
6010.92+911179486+908816791+906438368+904028915+901585224+899111895+896606039
6004.17+894057598+891478449+888891650+886302872+883690501+880999594+878198856
5997.42+875313269+872362469+869353783+866301870+863203896+860056008+856866016
5990.67+853624132+850321206+846976498+843602633+840209937+836827245+833468360
5983.92+830146656+826868072+823597726+820318554+817062492+813847410+810646452
5977.17+807422596+804157386+800841139+797481505+794102184+790700660+787258371
5970.42+783759856+780209661+776657434+773132437+769597382+766018084+762416798
5963.67+758832579+755251088+751621662+747926648+744181559+740408544+736595192
5956.92+732702876+728746362+724757536+720707935+716573166+712362268+708083588
5950.16+703748147+699335293+694805921+690159173+685393339+680488355+675445346
5943.41+670256983+664890256+659323179+653532586+647491729+641186216+634592829
5936.66+627701511+620523870+613048511+605261098+597173345+588778085+580058144
5929.91+571036688+561752608+552230676+542479182+532503799+522353477+512099689
5923.16+501773839+491411984+481114488+470972404+461024626+451313738+441905142
5916.41+432854341+424214621+416062403+408448431+401375245+394851807+388897189
5909.66+383523936+378751547+374597625+371048340+368048080+365533343+363464140
5902.91+361794915+360448633+359344349+358410030+357584954+356813724+356020211
5896.16+355129252+354089434+352854348+351374213+349601951+347498829+345039811
5889.41+342213901+339008636+335408688+331413870+327056467+322385111+317446049
5882.66+312276865+306900776+301370586+295766354+290153081+284585495+279104631
5875.91+273763797+268638909+263801093+259306896+255195558+251500838+248255021
5869.16+245474880+243167208+241331122+239933294+238940501+238346832+238134390
5862.41+238265755+238685502+239339170+240180162+241164048+242248537+243374112
5855.66+244482622+245538088+246521412+247399585+248131039+248703738+249107328
5848.91+249328998+249370620+249233450+248916152+248426483+247773243+246952474
5842.16+245958825+244804922+243522356+242104011+240504976+238730387+236842061
5835.40+234869903+232779059+230557733+228226602+225786228+223243725+220627623
5828.65+217963893+215244031+212468330+209681835+206908127+204139247+201390616
5821.90+198676799+195979419+193303318+190681826+188121762+185605675+183135167
5815.15+180730904+178393768+176122502+173935160+171860366+169923744+168143364
5808.40+166534392+165110015+163888798+162862114+162001475+161308673+160792228
5801.65+160427090+160186214+160071755+160068478+160155867+160331408+160578235
5794.90+160894129+161305945+161826161+162435720+163120417+163898669+164795071
5788.15+165817783+166972449+168261943+169676890+171228887+172951141+174849605
5781.40+176907561+179131776+181545107+184137135+186885753+189782280+192822222
5774.65+196019837+199376957+202857550+206444458+210151937+213968634+217858328
5767.90+221800290+225815063+229933302+234129488+238365583+242641026+246941908
5761.15+251259053+255608297+259977228+264344715+268715679+273096915+277482672
5754.40+281855402+286194053+290495951+294766098+298988631+303139477+307194802
5747.65+311139974+314963786+318649384+322198349+325608351+328867248+331962013
5740.90+334866778+337569267+340065333+342340585+344377958+346167874+347700651
5734.15+348947801+349886508+350532204+350903910+350992744+350810208+350403006
5727.40+349821668+349098586+348257568+347337746+346377212+345408306+344454193
5720.64+343534532+342665266+341854072+341097233+340364896+339638391+338914560
5713.89+338198727+337490464+336758020+335982724+335163774+334295471+333363345
5707.14+332363677+331306312+330192773+329033039+327844041+326626636+325360093
5700.39+324050483+322724263+321381484+320031002+318691407+317363448+316033295
5693.64+314699317+313364617+312047010+310773271+309528287+308304890+307121777
5686.89+305989835+304910429+303888426+302938565+302070021+301297587+300637874
5680.14+300124639+299773236+299567429+299512085+299624083+299938118+300459351
5673.39+301155416+302027517+303112648+304426484+305944068+307654352+309568036
5666.64+311713529+314092139+316667249+319434791+322397790+325539552+328834267
5659.89+332262673+335819688+339495015+343259658+347087829+350965620+354869144
5653.14+358793559+362754085+366762144+370813108+374892668+379012859+383182403
5646.39+387383537+391613106+395899650+400242100+404618226+409046835+413544456
5639.64+418103975+422717393+427377087+432079125+436822865+441609430+446445856
5632.89+451346104+456301002+461288961+466313085+471388139+476502996+481631548
5626.14+486781447+491972378+497198511+502422344+507600650+512733321+517840635
5619.39+522924303+527967525+532930822+537797447+542591475+547319326+551962436
5612.64+556499137+560914987+565201584+569355560+573386596+577296032+581071454
5605.88+584705320+588190140+591523506+594704296+597725714+600595144+603322911
5599.13+605906179+608352117+610664898+612837193+614873228+616782205+618562197
5592.38+620211547+621755077+623224620+624619746+625923177+627135446+628269020
5585.63+629335185+630346569+631301512+632183430+633002167+633801697+634599677
5578.88+635361331+636053812+636694881+637331456+637964500+638568548+639133383
5572.13+639659858+640167343+640668086+641166743+641650206+642118743+642610927
5565.38+643117127+643620973+644146004+644693666+645253524+645840132+646456646
5558.63+647089048+647744936+648435705+649169968+649949704+650758811+651572679
5551.88+652369428+653168210+653988070+654816008+655626346+656407794+657185230
5545.13+657961168+658697946+659388287+660059743+660715417+661337280+661916291
5538.38+662450845+662940407+663355714+663703987+664034071+664326653+664548617
5531.63+664734149+664913742+665057866+665138060+665161225+665149990+665140468
5524.88+665142233+665127521+665055459+664891219+664667757+664473131+664325048
5518.13+664182101+663992503+663718592+663435105+663209771+663008510+662805538
5511.38+662604545+662467911+662430516+662335289+662084329+661854340+661741887
5504.63+661667150+661604236+661591236+661653026+661767191+661875525+661945822
5497.88+662025160+662174634+662440359+662881024+663308689+663437620+663500373
5491.12+663788086+664195315+664540004+664805676+665084348+665443160+665861944
5484.37+666310634+666793455+667310141+667865666+668452007+669060228+669747038
5477.62+670653458+671702612+672403492+672785843+673381064+674210447+675113871
5470.87+676073148+677058371+678047071+678989549+679894953+680924794+682057244
5464.12+683098640+684171546+685459462+686661888+687594950+688638005+689936621
5457.37+691264660+692452374+693603816+694861184+696206290+697601898+699103753
5450.62+700702868+702158554+703460647+705005729+706820228+708386388+709684950
5443.87+711257155+713179560+715060236+716611363+718068280+719738173+721578833
5437.12+723567361+725750570+727752419+729365444+731031110+732988235+735149510
5430.37+737385039+739449535+741218347+742935318+744808612+746823996+748892183
5423.62+750945070+752979768+755052556+757156694+759274902+761406431+763552298
5416.87+765746795+768099860+770615292+772791011+774680996+776878756+779167730
5410.12+781178193+783117824+785150809+787283409+789497967+791758213+793977051
5403.37+796096490+798204319+800368482+802561000+804787114+807115623+809504051
5396.62+811728399+813928567+816362949+818562956+820392114+822376844+824540472
5389.87+826705277+828873827+831139851+833486978+835534087+837254857+839026289
5383.12+840859031+842654431+844459514+846278560+848192298+850235716+852012017
5376.36+853422069+854878611+856327931+857646234+859024134+860465323+861874626
5369.61+863257715+864602232+865903309+867220007+868605236+869912358+870979700
5362.86+871959895+872990270+874021716+875035828+876060853+877085398+878130967
5356.11+879294071+880521053+881445181+881863804+882184687+882809974+883682690
5349.36+884445200+884933639+885531160+886513280+887343091+887439067+887396696
5342.61+887629306+888070132+888831839+889678716+889934705+889838729+889900733
5335.86+890034318+890290254+890762857+891165057+891289547+891410025+891798796
5329.11+892428738+892898827+892904497+892907172+893211577+893595480+893936478
5322.36+894298607+894686095+895072887+895499321+895999101+896508886+896957736
5315.61+897366569+897794020+898246080+898720716+899216109+899733009+900367819
5308.86+901075600+901510113+901657768+901914880+902333771+902737468+903094516
5302.11+903484517+903908544+904214233+904391205+904593856+904850969+905113110
5295.36+905359309+905601549+905900497+906360153+906831687+906929588+906834789
5288.61+906983300+907364850+907855642+908286303+908477826+908618313+908934915
5281.86+909365790+909719092+909925916+910141942+910436289+910744760+911044136
5275.11+911340623+911643209+911943868+912267854+912687708+913125430+913373876
5268.35+913564543+913942241+914480005+915055324+915389153+915519689+915785147
5261.60+916043757+916228647+916536690+916948626+917449155+918136393+918781689
5254.85+918977813+919025320+919339033+919806072+920350470+921072268+921714033
5248.10+921876667+921967721+922461296+923041002+923229637+923282386+923557688
5241.35+923955394+924358984+924727587+925008987+925266849+925591155+925972597
5234.60+926305463+926593818+926939203+927203805+927277526+927388053+927691602
5227.85+928187102+928725722+928912110+928799978+928851336+929077847+929327042
5221.10+929645035+930046593+930385986+930602974+930807872+931056532+931342748
5214.35+931664593+932022068+932402119+932863381+933468873+934019691+934467364
5207.60+935011655+935352866+935367204+935534118+935933322+936385168+936843969
5200.85+937304481+937816780+938439927+939016638+939349825+939609291+939995548
5194.10+940467295+940957981+941447704+941953476+942444161+942836624+943184469
5187.35+943668200+944282467+944714946+944899408+945158660+945585576+946013134
5180.60+946351028+946660355+946990867+947333363+947667084+947984436+948307779
5173.85+948630480+948981963+949376887+949696593+949933376+950221731+950576638
5167.10+950940533+951345514+951799286+952161148+952408310+952725554+953153326
5160.35+953572110+953966927+954399941+954843548+955234834+955585034+955958451
5153.59+956381729+956812069+957219297+957602023+957973836+958359023+958745601
5146.84+959128541+959509983+959880833+960283674+960700318+961032007+961307095
5140.09+961616315+961947041+962279158+962625184+962960297+963276043+963596177
5133.34+963897158+964154163+964395547+964643351+964884307+965101295+965294424
5126.59+965470326+965634244+965792492+965939933+966062016+966173934+966288100
5119.84+966372092+966433080+966505195+966568216+966631344+966727962+966836349
5113.09+966925263+966987749+967047453+967125561+967213833+967304780+967392517
5106.34+967491916+967623629+967759514+967880741+968016413+968179689+968354842
5099.59+968541337+968758861+968998533+969229859+969463967+969728997+970000233
5092.84+970246753+970492417+970762476+971047942+971327738+971587739+971839609
5086.09+972104639+972387431+972675786+972957935+973232274+973498909+973773141
5079.34+974064813+974363012+974659607+974951065+975243914+975553027+975873160
5072.59+976183771+976485393+976798037+977119561+977441513+977769671+978099541
5065.84+978422778+978753504+979105201+979458931+979784200+980073732+980347322
5059.09+980624122+980900708+981163170+981391393+981578637+981750687+981924342
5052.34+982089973+982229924+982341415+982451300+982566963+982667540+982752174
5045.59+982833705+982923582+983034644+983162184+983293683+983423362+983555717
5038.83+983691709+983822352+983944970+984064057+984190099+984319671+984436939
5032.08+984542331+984641410+984741237+984849304+984958119+985058696+985148787
5025.33+985233956+985332285+985454154+985586081+985704098+985797506+985882782
5018.58+985981968+986090783+986181302+986234693+986270002+986312480+986347468
5011.83+986349286+986313122+986249566+986171137+986083614+985991062+985889202
5005.08+985770757+985647925+985534402+985416920+985269158+985097214+984940786
4998.33+984812497+984689451+984553994+984409120+984271309+984156609+984078929
4991.58+984035275+984000715+983956205+983923571+983937587+983979744+984019118
4984.83+984068230+984144946+984241885+984345244+984456092+984581920+984723476
4978.08+984889213+985096786+985349512+985641719+985979828+986371114+986816433
4971.33+987319209+987882010+988511684+989220107+989997222+990817564+991667223
4964.58+992545556+993460162+994412858+995393480+996376456+997334823+998271791
4957.83+999196882+1000099503+1000975376+1001840870+1002694488+1003523389
4952.04+1004345121+1005167496+1005961623+1006727397+1007503335+1008301956
4946.26+1009101968+1009886038+1010665935+1011460811+1012266066+1013068968
4940.47+1013862881+1014644383+1015429095+1016234778+1017041424+1017817362
4934.68+1018568798+1019320555+1020072097+1020814653+1021563520+1022323623
4928.90+1023073026+1023804454+1024535239+1025279078+1026021098+1026735727
4923.11+1027424891+1028106994+1028787919+1029446910+1030060427+1030640776
4917.32+1031213956+1031780609+1032327253+1032847042+1033341579+1033821672
4911.54+1034288391+1034733710+1035154955+1035546455+1035917839+1036290080
4905.75+1036671736+1037056388+1037421888+1037751865+1038063225+1038389778
4899.97+1038740298+1039085361+1039405602+1039721776+1040052609+1040381516
4894.18+1040689452+1040985190+1041284673+1041591752+1041899688+1042205912
4888.39+1042515132+1042829166+1043148015+1043471787+1043795986+1044110341
4882.61+1044412606+1044723859+1045056939+1045402858+1045752950+1046096088
4876.82+1046436550+1046794025+1047163270+1047525132+1047872335+1048223712
4871.03+1048607401+1049021905+1049446360+1049873489+1050311640+1050775897
4865.25+1051276213+1051794717+1052315255+1052858155+1053436791+1054039609
4859.46+1054665966+1055323887+1055987907+1056619828+1057230777+1057849431
4853.68+1058492586+1059171585+1059866955+1060545847+1061208155+1061866718
4847.89+1062519289+1063155062+1063777995+1064393439+1064996150+1065575749
4842.10+1066111908+1066602166+1067076802+1067553899+1068007992+1068411582
4836.32+1068780934+1069149965+1069528411+1069892092+1070218324+1070520482
4830.53+1070819644+1071105003+1071360725+1071599434+1071832365+1072048926
4824.74+1072244301+1072420952+1072577060+1072715834+1072847119+1072967704
4818.96+1073066890+1073148956+1073221499+1073278315+1073327854+1073384455
4813.17+1073444159+1073498513+1073539493+1073576193+1073622308+1073670242
4807.39+1073692819+1073684152+1073674843+1073677090+1073680728+1073677732
4801.60+1073655798+1073618028+1073586036+1073567847+1073543666+1073497336
4795.81+1073443303+1073400290+1073365945+1073334274+1073298858+1073250281
4790.03+1073199565+1073158693+1073122207+1073088717+1073062610+1073042708
4784.24+1073027622+1073026124+1073040782+1073056618+1073062396+1073068067
4778.45+1073085828+1073106585+1073102840+1073062075+1073009753+1072977976
4772.67+1072963424+1072930683+1072870551+1072826683+1072820477+1072829251
4766.88+1072833637+1072836098+1072849794+1072882214+1072932074+1072985572
4761.10+1073037680+1073101235+1073175705+1073251030+1073320364+1073385525
4755.31+1073450258+1073505468+1073550620+1073602086+1073665321+1073717749
4749.52+1073736901+1073732621+1073733905+1073741823+1073728127+1073678374
4743.74+1073604226+1073517559+1073424472+1073319187+1073190256+1073050626
4737.95+1072911531+1072763769+1072602525+1072418919+1072212309+1071994357
4732.17+1071769986+1071525499+1071243564+1070931241+1070603190+1070261764
4726.38+1069888775+1069460575+1068982515+1068471072+1067924642+1067330918
4720.59+1066689475+1066000418+1065259468+1064478715+1063662867+1062795554
4714.81+1061870998+1060891981+1059862782+1058777732+1057623454+1056398238
4709.02+1055105400+1053751147+1052339329+1050852828+1049273775+1047616079
4703.23+1045894186+1044100177+1042241863+1040319886+1038304608+1036192606
4697.45+1033999179+1031718979+1029346547+1026884880+1024343501+1021736855
4691.66+1019060446+1016284531+1013386426+1010357357+1007191975+1003888140
4685.88+1000437505+996814606+992989056+988951225+984715451+980291684+975676394
4679.12+970872254+965889966+960774574+955612211+950485584+945460818+940605428
4672.37+935985857+931643621+927600120+923842940+920331532+917055302+914035328
4665.62+911270540+908708190+906291141+903989648+901779530+899639280+897535623
4658.87+895421214+893268927+891079887+888869502+886641301+884378488+882075015
4652.12+879751106+877440733+875174869+872962718+870796843+868673392+866606543
4645.37+864608973+862667202+860756567+858861125+856985959+855132942+853286986
4638.62+851445364+849604009+847740131+845827677+843867021+841872448+839827960
4631.87+837704188+835509745+833287643+831059550+828832419+826634766+824494463
4625.12+822433873+820455669+818526738+816598235+814639505+812651030+810638587
4618.37+808602873+806549719+804499186+802483374+800538607+798688104+796923786
4611.62+795249399+793695544+792287257+791037806+789948315+789010117+788226636
4604.87+787606859+787136235+786789781+786556368+786439742+786457878+786628216
4598.12+786962473+787470171+788153397+789016965+790072645+791309470+792678864
4591.37+794132838+795644858+797195825+798757116+800314235+801880395+803449391
4584.62+804990621+806476962+807875030+809144810+810259553+811221022+812059928
4577.87+812824043+813568791+814357355+815257623+816338661+817645783+819146675
4571.12+820755099+822390379+823982646+825472304+826811578+827966123+828923206
4564.36+829693473+830307204+830787030+831144665+831403704+831583779+831683981
4557.61+831714261+831691310+831601219+831413815+831129151+830782429+830388201
4550.86+829920894+829361838+828727777+828050168+827341799+826594322+825788478
4544.11+824924749+824024161+823085855+822100311+821069615+819988470+818855057
4537.36+817682857+816478024+815238952+813976127+812693400+811378414+810020951
4530.61+808624005+807187632+805699151+804161078+802594703+801004041+799373576
4523.86+797705502+796016082+794318316+792609369+790870357+789103792+787321071
4517.11+785525136+783721070+781909139+780069335+778173894+776223617+774235623
4510.36+772217136+770160183+768051551+765889421+763678233+761444041+759200914
4503.61+756910067+754550475+752149368+749718035+747229834+744656944+741993910
4496.86+739253785+736440903+733548950+730581030+727533772+724401238+721188082
4490.11+717899814+714538522+711098801+707575462+703972465+700286010+696502188
4483.36+692620305+688636133+684544269+680357873+676074860+671675702+667155959
4476.61+662520446+657766007+652892480+647894785+642761150+637491255+632082532
4469.86+626527813+620827097+614985307+608994524+602836612+596514515+590033742
4463.11+583380704+576540530+569512952+562305245+554903981+547280540+539423311
4456.36+531334917+523015998+514465273+505674286+496625545+487309688+477719920
4449.60+467852977+457721593+447329084+436648782+425668087+414414685+402896627
4442.85+391091926+379001999+366648888+354049418+341214876+328171477+314960362
4436.10+301608894+288142859+274633384+261177782+247841106+234667171+221719869
4429.35+209076155+196794157+184901170+173409393+162334542+151692263+141480752
4422.60+131688627+122306498+113326650+104744407+96557623+88772897+81397928
4415.85+74432856+67878014+61737597+56023135+50740755+45878928+41420471+37353400
4408.14+33667748+30344927+27361723+24699363+22333304+20232617+18381136+16771246
4400.42+15378890+14179405+13163536+12315914+11610855+11026340+10547609+10164081
4392.71+9859696+9612351+9403212+9228687+9091458+8972224+8849057+8724138+8601101
4384.03+8477054+8354814+8236927+8123485+8016097+7913924+7819310+7742674+7684561
4375.35+7631149+7575809+7522527+7475834+7440162+7412818+7377816+7312046+7207672
4366.67+7075993+6915271+6712982+6469125+6192947+5892958+5567098+5214365+4844789
4357.99+4463641+4075626+3694644+3328749+2973460+2626033+2296681+2002548+1747262
4349.31+1515517+1292747+1081634+898193+751827+635012+537564+453983+377728
4340.63+306800+248662+208492+182882+166389+152671+138958+123353+108106+102079
4330.99+105002+105005+99666+103126+119066+132235+136911+144828+166248+197822
4321.34+233857+280680+342275+408047+470438+537637+617609+704486+795125+890093
4311.70+985286+1085371+1200757+1326413+1443533+1545135+1645684+1762928+1894411
4303.02+2024875+2155110+2288308+2416096+2540454+2671824+2813513+2957493+3089645
4294.34+3208432+3317128+3407326+3472424+3510099+3521449+3514711+3489138+3434087
4285.66+3351704+3250441+3128517+2986306+2827130+2652200+2468468+2284387+2102672
4276.98+1924246+1755491+1596646+1442354+1298776+1167356+1042042+928483+829127
4268.30+737237+660514+605299+556785+507359+463321+428619+402741+378900+351423
4258.66+330819+331102+349385+381232+422556+460117+499897+560589+638606+728519
4249.02+840435+971501+1107616+1245277+1389052+1544282+1710495+1879620+2046685
4240.34+2219114+2400584+2579195+2741751+2886114+3025499+3166397+3295739+3405477
4231.66+3501690+3590067+3671163+3750162+3832735+3916596+3996089+4065673+4126156
4222.98+4183102+4238680+4294487+4351791+4406612+4454857+4493186+4521121+4543684
4214.30+4560618+4570582+4579818+4590968+4598768+4603480+4607326+4604404+4600092
4205.62+4605771+4613707+4618002+4631888+4655394+4667433+4665104+4666479+4678408
4196.94+4692263+4700354+4699687+4693640+4691419+4693816+4696685+4698057+4701518
4188.26+4710071+4712620+4703985+4691102+4668436+4626533+4571636+4512242+4448646
4179.58+4378117+4296347+4206670+4115329+4020123+3925409+3844724+3781270+3724354
4170.90+3670108+3626880+3599244+3584304+3579723+3589777+3618143+3659209+3710826
4162.22+3781268+3863871+3938365+4007875+4092682+4197647+4309883+4422622+4538316
4153.54+4649590+4753805+4861374+4969806+5066298+5150451+5230172+5309048+5383817
4144.86+5444876+5495964+5555660+5617002+5655717+5671805+5678624+5679627+5678079
4136.18+5683140+5694024+5706640+5722293+5735409+5739709+5739932+5749415+5772588
4127.50+5794934+5808066+5822200+5839666+5856791+5878930+5904969+5929505+5946676
4118.83+5956200+5976030+6013324+6054209+6092232+6133060+6173994+6212619+6257885
4110.15+6308696+6359644+6410192+6461408+6517977+6581980+6646386+6703226+6750927
4101.47+6784765+6816437+6861438+6902699+6929374+6951617+6971527+6984538+6988800
4092.79+6984613+6981531+6985053+6983862+6970978+6945284+6911600+6865915+6790197
4084.11+6685818+6565562+6433293+6287671+6131593+5968159+5793942+5605581+5409000
4075.43+5213928+5017722+4830466+4673908+4549384+4443102+4350888+4288895+4271489
4066.75+4302332+4364366+4436054+4523726+4636723+4773537+4928099+5100025+5297654
4058.07+5532619+5811506+6126633+6473249+6865092+7322517+7837727+8393339+8991486
4049.39+9627265+10287550+10961596+11648768+12351783+13056931+13745212+14417821
4041.68+15089057+15755228+16405888+17050577+17707710+18375238+19047627+19739693
4033.96+20456407+21188628+21927308+22668991+23410558+24137160+24838987+25527398
4026.25+26215111+26883048+27513478+28121254+28713038+29278969+29815278+30325698
4018.53+30820383+31314512+31808284+32298097+32796680+33309460+33836939+34387229
4010.82+34965715+35584311+36254149+36958898+37685296+38445178+39243198+40073326
4003.10+40922396+41773543+42624736+43481817+44341336+45191637+46028737+46870160
3995.39+47731628+48605585+49494040+50417753+51391341+52410361+53462156+54561768
3987.67+55734292+56973588+58253619+59566566+60923468+62311278+63695839+65063480
3979.96+66413253+67719686+68954144+70115717+71200862+72194431+73095889+73916257
3972.24+74644441+75268210+75807900+76280049+76697495+77089350+77463028+77805390
3964.53+78123631+78438922+78760580+79080346+79399228+79731058+80078542+80444410
3956.81+80824494+81206759+81580437+81938254+82285317+82635456+82990724+83310824
3949.10+83593114+83873398+84137231+84382473+84622827+84858473+85067003+85219279
3941.38+85344832+85475134+85603449+85718584+85834227+85962262+86101738+86254115
3933.67+86418762+86568985+86692018+86833373+86988752+87127219+87267605+87439428
3925.95+87642413+87824020+87959029+88084382+88230940+88393167+88529755+88646461
3918.24+88761944+88832260+88854649+88892794+88943918+88984122+89027288+89082719
3910.52+89155517+89238666+89332723+89454759+89603631+89766466+89916087+90054400
3902.81+90219743+90401176+90602964+90878834+91143570+91341480+91563959+91814725
3895.09+92062369+92292732+92523483+92737289+92828697+92871355+92966435+93112819
3887.38+93296606+93475370+93586085+93723669+93946014+94219383+94567422+94945708
3879.66+95252387+95605154+96066850+96572014+97115489+97780344+98404902+98914520
3871.95+99474526+100194732+100949438+101421058+101818289+102306848+102920860
3865.20+103564002+104017232+104426059+104915808+105364491+105740229+106133294
3858.45+106544655+106913913+107207271+107513521+107921030+108176645+108264302
3851.69+108345498+108462874+108606844+108739606+108869199+109002303+109157147
3844.94+109340405+109488936+109614750+109829225+110106887+110309177+110504359
3838.19+110729205+110905174+111111764+111338576+111517314+111739759+112027399
3831.44+112211065+112318490+112466292+112642274+112801217+112909351+113033694
3824.69+113241615+113553456+114032358+114809941+115619169+116266604+116991893
3817.94+117889700+119260926+120940114+122087798+123111647+124314273+125583050
3811.19+126818431+127983060+129050028+130184926+131510491+132508433+133252085
3804.44+134085855+135011120+136073781+137176727+137908396+138520736
##END=
