##TITLE=ֽופע_2_2,1לל
##JCAMP-DX=4.24
##DATA TYPE=INFRARED SPECTRUM
##DATE=7/4/2017
##SAMPLING PROCEDURE=Instrument type and / or accessory
##ORIGIN=Default
##XUNITS=1/CM
##YUNITS=TRANSMITTANCE
##RESOLUTION=2
##FIRSTX=7998.4873
##LASTX=3799.619
##DELTAX=-0.96437031
##MAXY=0.57715815
##MINY=2.7548513e-005
##XFACTOR=1
##YFACTOR=5.3752042e-010
##NPOINTS=4355
##FIRSTY=0.13446233
##XYDATA=(X++(Y..Y))
7998.49+250152966+250588618+250975784+251265535+251523377+251860588+252260783
7991.74+252650805+253005176+253319377+253609516+253915456+254273487+254645821
7984.99+254954562+255226265+255566886+255946317+256224508+256426047+256665455
7978.24+256982928+257373697+257782681+258151107+258431709+258674055+259034885
7971.48+259501613+259914949+260222331+260470471+260736935+261083100+261446591
7964.73+261742136+262010430+262313986+262672737+263044240+263348323+263632585
7957.98+263973427+264309030+264616551+264980929+265404328+265771257+266068631
7951.23+266410638+266806731+267171497+267485366+267786677+268118316+268479367
7944.48+268790242+269017868+269244274+269507273+269825799+270217345+270563538
7937.73+270832885+271134362+271466140+271779787+272075332+272371819+272698828
7930.98+273062985+273424120+273763825+274091971+274425273+274907997+275534377
7924.23+275960520+276083522+276170292+276399609+276772082+277192737+277578073
7917.48+277922713+278236943+278580030+278961430+279258195+279485044+279740087
7910.73+279958564+280155252+280542889+281109251+281525441+281682431+281826364
7903.98+282146803+282659301+283324519+283957440+284254205+284319684+284620053
7897.23+285202908+285708364+285892660+285832614+285808829+286021346+286477845
7890.48+287020504+287462532+287909245+288700237+289569933+289729141+289263300
7883.73+288991347+289170348+289518481+289869220+290254307+290683472+291089794
7876.98+291412977+291684764+291999132+292361099+292696397+292988116+293299129
7870.23+293680502+294070634+294433183+295050525+296008820+296601157+296469338
7863.48+296340403+296661424+297096023+297438418+297672225+297777126+297962863
7856.72+298291563+298513866+298622648+298889251+299540247+300481632+301193894
7849.97+301413758+301486445+301580839+301572439+301576403+301748391+302090786
7843.22+302678604+303605435+304452398+304564423+304216622+304143963+304588929
7836.47+305513986+306430671+306788728+306725383+306554616+306464935+306646182
7829.72+307037090+307369949+307555520+307738569+308027848+308357214+308656445
7822.97+308979407+309320942+309611109+309874746+310143067+310435341+310780979
7816.22+311155615+311643578+312460574+313425467+313998537+314328568+315084271
7809.47+315930846+315940355+315441580+315639682+316748951+317611523+317354928
7802.72+316679452+316753526+317847548+319079294+319349417+318878558+318500513
7795.97+318343384+318358049+318573699+318859125+319137787+319525508+320124609
7789.22+320718609+321060338+321333678+321837304+322730258+323917177+324605405
7782.47+324208176+323467637+323234467+323398304+323637407+323925161+324256246
7775.72+324661708+325444967+326813992+328117925+328340312+327677755+327244598
7768.97+327498005+328042993+328294487+328212957+328379926+329154452+330361276
7762.22+331516758+331946339+331445318+330713845+330397259+330468255+330746723
7755.47+331102452+331430349+331756443+332184499+332954839+334244357+335511864
7748.72+335847911+335312376+334780723+334760569+335281577+336120806+337091909
7741.96+338232339+339224067+339539848+339139348+338409150+337880823+337765888
7735.21+337944695+338399253+339240256+340549762+341827720+342209370+341766178
7728.46+341347852+341347575+341762906+342640586+343432466+343347553+342757130
7721.71+342509322+342671080+342976938+343355593+343866565+344708761+345784016
7714.96+346370503+346233390+346163835+346831548+348204704+349738121+350680892
7708.21+350714990+350395078+350589298+351172099+351159485+350413873+349812582
7701.46+349909914+350423188+350733591+350686658+350661015+350846531+351140385
7694.71+351501547+351875712+352177771+352516007+353115718+354124717+355279784
7687.96+355792198+355478412+355145803+355419032+356351102+357460039+358142417
7681.21+358404418+358413843+358444448+359102736+360285413+360967625+360636374
7674.46+359936864+359700090+360276099+361396208+362057046+361707304+361076490
7667.71+360895354+361306666+362393231+363735310+364292135+363869041+363391668
7660.96+363349558+363538206+363885924+364412670+364956189+365557757+366385232
7654.21+366970638+366915915+366728985+366828286+367122721+367508058+367957349
7647.46+368479937+369237885+370437612+371717372+372481086+372690665+372502460
7640.71+372065367+371717566+371694529+371866101+372056024+372495779+373553458
7633.96+374999273+375910774+375732493+374989598+374434963+374309022+374530410
7627.20+374916495+375309510+375669315+375992193+376280447+376582728+376929254
7620.45+377309794+377718140+378192297+378907886+380075705+381410188+382074713
7613.70+381781664+381226557+381011185+381119190+381388260+381887201+382757036
7606.95+383715636+384445058+385238463+386128645+386487757+386147164+385578280
7600.20+385227180+385253239+385613154+386245937+386937630+387599882+388353644
7593.45+388763819+388489870+388123773+388122747+388341224+388646915+389024379
7586.70+389426902+389785847+390075127+390343116+390673895+391104585+391571978
7579.95+391983678+392318062+392624362+392944413+393310649+393751513+394221595
7573.20+394661322+395161012+395818662+396393035+396576832+396531201+396594158
7566.45+396810750+397120461+397516332+397954423+398483110+399329325+400397123
7559.70+400991705+400853067+400634174+400714984+400888718+401096744+401425915
7552.95+401815742+402158248+402471979+402819724+403189841+403561344+403929880
7546.20+404288659+404673441+405118657+405653886+406429743+407381219+407943976
7539.45+407880215+407707701+407795026+408020655+408300509+408780211+409582044
7532.70+410393440+410691479+410575407+410554560+410744262+411023534+411389631
7525.95+411779653+412097652+412427295+412921662+413668133+414530899+415116748
7519.20+415251921+415206568+415280613+415591017+416166831+416763604+416999962
7512.44+416985685+417123768+417520138+418066817+418632014+419229784+420012266
7505.69+420773901+421080452+421045300+421126027+421510919+422168098+422828576
7498.94+423079266+422961974+422971427+423280944+423617988+423888722+424288501
7492.19+424933926+425722119+426383816+426688564+426643766+426492625+426497255
7485.44+426735692+427178551+427691964+428045503+428208259+428345899+428632766
7478.69+429161038+429739291+430141926+430548830+431071169+431443476+431695553
7471.94+432105229+432589228+432871799+432895584+432933840+433287491+433891748
7465.19+434407572+434621586+434666191+434768402+434951229+435148998+435417014
7458.44+435829019+436290647+436718037+437177419+437635858+437946179+438156977
7451.69+438441710+438762926+438965795+439098529+439381099+439890630+440447012
7444.94+440819790+440946590+440976087+441108016+441418309+441862970+442301450
7438.19+442572044+442701534+442866813+443126319+443418038+443708897+444020992
7431.44+444373145+444701596+444937067+445175698+445579830+446124152+446606543
7424.69+446887894+447028695+447180140+447446882+447825953+448149940+448285806
7417.94+448326391+448392536+448541070+448802739+449095040+449344039+449602547
7411.19+449846058+449991266+450119730+450332940+450590228+450854863+451146692
7404.44+451386294+451456514+451436748+451488450+451644220+451809388+451879136
7397.68+451892221+451950160+452093788+452270710+452365520+452409903+452476990
7390.93+452472083+452379186+452366656+452430167+452426259+452387725+452410845
7384.18+452489326+452530188+452430666+452175346+451877418+451718931+451796525
7377.43+451955317+451777119+451204631+450709128+450410617+450146537+449951429
7370.68+449906547+449793857+449399955+448970069+448698393+448456019+448182597
7363.93+448000213+447910976+447761582+447545018+447320247+447057415+446852521
7357.18+446798380+446681033+446368799+446146469+446129198+446101614+446032309
7350.43+446078633+446122766+445949503+445686338+445622494+445839447+446120465
7343.68+446273768+446448223+446715768+446803758+446687575+446707618+446872398
7336.93+447068670+447324766+447581666+447753570+447910588+448138158+448396999
7330.18+448743608+449215381+449436853+449331675+449387840+449707087+449944415
7323.43+449964292+450019348+450177946+450288973+450339288+450439503+450581523
7316.68+450636247+450636746+450782148+451031202+451101311+450914465+450660115
7309.93+450555298+450686479+450786195+450521533+450181162+450090621+450119147
7303.18+450118288+450125329+450133923+449985915+449664534+449409047+449342792
7296.43+449465323+449555919+449242881+448730689+448410666+448264765+448156704
7289.68+448014768+447783871+447491486+447254075+447050955+446798879+446560941
7282.92+446387040+446201996+445972485+445745053+445531815+445338343+445147699
7276.17+444909012+444667082+444417306+444068341+443700914+443428933+443235571
7269.42+443059342+442787500+442405823+442062347+441810104+441601801+441360785
7262.67+441001203+440626567+440353450+440092253+439808712+439542913+439254437
7255.92+438973946+438757076+438482157+438049943+437588371+437240265+437035732
7249.17+436933604+436865130+436787952+436699048+436719645+436840070+436653279
7242.42+436206067+435939935+435790125+435628145+435529788+435502509+435488703
7235.67+435523716+435684892+435824584+435656089+435244223+434914026+434796872
7228.92+434809292+434854728+434809375+434578700+434314453+434171435+434165725
7222.17+434264776+434304141+434083252+433684692+433365528+433203465+433045754
7215.42+432805016+432553827+432254346+431889191+431569861+431293749+431013396
7208.67+430773518+430617498+430449724+430100232+429645951+429240932+428831644
7201.92+428429037+428099782+427797113+427492892+427210459+426987768+426798205
7195.17+426520624+426172047+425895437+425740914+425663708+425594875+425508465
7188.42+425457789+425474173+425526956+425669890+425966073+426360724+426758369
7181.67+427001047+427131479+427421757+427905811+428463163+429076957+429761525
7174.92+430511849+431273318+432022673+432865062+433870346+434994225+436063853
7168.16+437000885+438014652+439106734+440111076+441155060+442400362+443744382
7161.41+444910759+445904705+446969591+448142816+449318978+450462817+451633547
7154.66+452829060+453985679+455078454+456121440+457140502+458131426+459101753
7147.91+460087493+461110908+462045584+462776143+463477732+464277818+465165533
7141.16+466106252+466853084+467266087+467705537+468359555+469008472+469540902
7134.41+470014893+470469978+470952342+471456550+471901101+472255555+472599197
7127.66+472957255+473297571+473619424+473930298+474242171+474519004+474724646
7120.91+474918035+475264283+475713546+475853653+475681555+475602547+475704398
7114.16+475865463+475972193+475980343+475973468+476016548+476033015+476005626
7107.41+475992264+475913367+475704897+475479129+475311189+475172135+475029422
7100.66+474854551+474659665+474478308+474318185+474173365+473955470+473605840
7093.91+473236638+472915450+472620266+472371876+472162908+471934145+471683705
7087.16+471456938+471281513+471161643+471084465+471028522+471015215+471058739
7080.41+471120615+471203448+471350042+471595160+471932371+472310056+472721396
7073.66+473251996+473914497+474572064+475220205+475951845+476718082+477508049
7066.91+478374030+479283646+480211391+481205116+482301411+483452763+484560979
7060.16+485602274+486667410+487798580+488932412+490028375+491097004+492156318
7053.40+493241414+494355508+495445205+496511118+497572761+498580402+499524559
7046.65+500453136+501355877+502224020+503115283+504011592+504828228+505600231
7039.90+506387704+507166416+507921841+508670613+509416004+510146535+510840029
7033.15+511492329+512141412+512809236+513463754+514078906+514664340+515232752
7026.40+515782092+516337919+516935440+517503520+517989654+518498464+519061997
7019.65+519597753+520103126+520594028+521046064+521481355+521921581+522332865
7012.90+522713821+523123054+523570765+523988314+524336725+524652423+524976550
7006.15+525319416+525687509+526065028+526391815+526649630+526908886+527211556
6999.40+527504578+527732065+527935822+528187815+528473962+528733606+528985655
6992.65+529301409+529636180+529888784+530110172+530400754+530724381+531023391
6985.90+531323510+531645474+531995270+532385209+532781357+533138084+533474629
6979.15+533836346+534227671+534630028+535050793+535517411+536063036+536649357
6972.40+537151736+537577047+538081145+538711045+539378813+540006607+540603129
6965.65+541216396+541852174+542485289+543118294+543784122+544477395+545152149
6958.90+545796909+546456638+547175304+547904061+548562625+549200620+549919952
6952.15+550695393+551435017+552129287+552824667+553530026+554204171+554842665
6945.39+555488256+556146599+556790914+557426137+558108654+558845505+559563562
6938.64+560216416+560812162+561409794+562049785+562691328+563308254+563935105
6931.89+564562621+565140515+565698005+566293585+566911177+567509806+568075281
6925.14+568616193+569148068+569686818+570252292+570853694+571487198+572156242
6918.39+572805325+573344297+573837971+574400285+575001299+575608578+576255056
6911.64+576914951+577535592+578144756+578798608+579498756+580208939+580891844
6904.89+581527399+582140056+582778439+583456188+584161658+584891746+585649112
6898.14+586431705+587221728+588011362+588780316+589490222+590188873+590928552
6891.39+591656644+592363057+593098910+593853116+594598395+595335247+596070879
6884.64+596812943+597532219+598215234+598906899+599615585+600302981+600964207
6877.89+601618890+602277455+602951655+603625301+604262242+604865363+605448801
6871.14+606020706+606611574+607223067+607801903+608336772+608898199+609493003
6864.39+610042620+610555256+611081087+611583577+612009997+612373988+612733820
6857.64+613139393+613593535+614031655+614412943+614797282+615200138+615551321
6850.89+615822665+616075767+616395679+616755899+617066386+617327084+617590499
6844.14+617852250+618077187+618306670+618579455+618850743+619120700+619427694
6837.39+619762354+620103834+620414931+620694813+621029917+621435767+621841618
6830.63+622245195+622675940+623140229+623644216+624186348+624742286+625277931
6823.88+625815295+626402115+627013774+627620443+628241638+628880798+629530214
6817.13+630180684+630817237+631471034+632185265+632924334+633609179+634236917
6810.38+634880290+635550609+636205459+636856816+637522367+638168124+638783553
6803.63+639409018+640085657+640822065+641575439+642280466+642933708+643581073
6796.88+644216462+644836050+645497775+646221098+646952461+647629822+648250185
6790.13+648885186+649564044+650227376+650851233+651479137+652134154+652794992
6783.38+653437588+654072922+654712081+655333388+655941498+656548555+657146187
6776.63+657756072+658389410+658998629+659578796+660196221+660845527+661457962
6769.88+662044616+662669360+663332415+663961983+664522855+665055728+665604292
6763.13+666181742+666772110+667349893+667921410+668493871+669052580+669613675
6756.38+670206261+670813872+671382174+671892759+672424190+673039952+673692141
6749.63+674301249+674837283+675349641+675891219+676440115+676983966+677562137
6742.88+678168196+678742320+679273529+679791543+680330903+680913232+681495783
6736.13+682056212+682612871+683144357+683677286+684262720+684854585+685415014
6729.38+685959475+686471667+686945603+687423088+687951913+688527312+689089293
6722.63+689610190+690116450+690626369+691141999+691678310+692225986+692745719
6715.87+693239836+693744987+694272316+694795431+695300914+695818097+696355904
6709.12+696890163+697409730+697915324+698409996+698916090+699444527+699982335
6702.37+700540823+701113061+701661292+702188288+702713787+703246383+703786686
6695.62+704320778+704851655+705410421+705998239+706580901+707151864+707718280
6688.87+708285861+708869688+709461276+710039890+710611186+711182371+711735204
6682.12+712268964+712831610+713444156+714057534+714620292+715157157+715722464
6675.37+716308730+716899764+717521846+718162004+718752816+719280033+719822498
6668.62+720427005+721058679+721702052+722358898+722987412+723562090+724117751
6661.87+724695145+725300706+725901331+726448287+726954325+727491024+728097305
6655.12+728723878+729294841+729834977+730411984+731010503+731603865+732202938
6648.37+732803564+733378519+733922148+734455687+734990944+735543888+736138470
6641.62+736762548+737368219+737938517+738496395+739052832+739610211+740179345
6634.87+740769325+741349769+741886745+742414628+742992300+743633899+744259419
6628.12+744794454+745303708+745831591+746355926+746910366+747500957+748073860
6621.37+748621592+749160786+749688225+750220322+750774098+751328594+751854536
6614.62+752348709+752844989+753383351+753947661+754486744+754992227+755507026
6607.87+756045942+756573271+757072378+757581909+758120937+758632020+759092760
6601.11+759575124+760110991+760641036+761137261+761638032+762151444+762652991
6594.36+763153041+763673827+764207255+764709134+765150580+765570957+766030089
6587.61+766540175+767075155+767599711+768086177+768561167+769078349+769594423
6580.86+770041690+770480752+770978140+771506855+772040393+772576649+773092112
6574.11+773556124+773965467+774365884+774833222+775367814+775883333+776362647
6567.36+776869295+777399119+777885751+778309621+778719298+779170003+779673712
6560.61+780200874+780699538+781147748+781611593+782138090+782664144+783136693
6553.86+783590226+784077968+784593043+785083335+785534372+785967668+786416266
6547.11+786909386+787417475+787899617+788366955+788834348+789297362+789767250
6540.36+790261479+790772618+791263409+791707571+792123956+792544721+792998864
6533.61+793495199+793996746+794484543+794981932+795479709+795946548+796389712
6526.86+796847514+797340745+797825603+798263445+798707164+799193852+799689356
6520.11+800165898+800619319+801067141+801537030+802025159+802495713+802927678
6513.36+803355152+803810736+804275967+804742917+805216298+805694282+806188510
6506.61+806667048+807109325+807583705+808116301+808644184+809129153+809599707
6499.86+810075916+810528173+810972280+811474770+812027880+812558535+813061191
6493.11+813601716+814185764+814755562+815277457+815770466+816287870+816854620
6486.35+817435396+817990558+818536460+819114298+819723296+820339058+820935636
6479.60+821489190+822030213+822611212+823223203+823831924+824419021+824980891
6472.85+825542207+826115832+826690121+827246059+827767788+828302879+828893413
6466.10+829489548+830043268+830547754+831025238+831526508+832052783+832578504
6459.35+833114094+833640923+834123176+834591013+835086461+835596547+836082070
6452.60+836526177+836959695+837425979+837915218+838395419+838853387+839285352
6445.85+839716430+840191585+840714922+841226005+841682255+842119653+842572243
6439.10+843022504+843453582+843872074+844284190+844714990+845192419+845683875
6432.35+846156037+846614393+847044362+847448383+847888276+848383226+848857993
6425.60+849277483+849686882+850101659+850534400+851017152+851517535+851984984
6418.85+852422604+852840652+853267128+853731195+854209788+854670417+855095452
6412.10+855500138+855931493+856400328+856885020+857350806+857781994+858212129
6405.35+858633615+859019728+859404842+859827326+860296272+860791221+861268595
6398.60+861698065+862079686+862456318+862872426+863300842+863698487+864089867
6391.85+864505365+864927904+865364471+865826431+866279298+866717694+867164629
6385.10+867597813+867993739+868381404+868802225+869246166+869680625+870101446
6378.35+870498647+870884926+871312400+871769536+872200392+872607130+873028782
6371.59+873471392+873909733+874322126+874721545+875128616+875541120+875970423
6364.84+876414863+876836071+877242366+877654648+878035382+878375532+878738080
6358.09+879150141+879570850+879983576+880394971+880798937+881203512+881610527
6351.34+882001352+882375489+882747741+883126590+883501724+883868432+884246837
6344.59+884644094+885047394+885441435+885824055+886215601+886625056+887038724
6337.84+887436369+887795702+888131970+888495739+888880077+889228598+889557714
6331.09+889915772+890293845+890661107+891002809+891343790+891724857+892130708
6324.34+892530016+892915907+893279731+893625314+893983261+894369817+894762749
6317.59+895138604+895487680+895824170+896188382+896562741+896906161+897233448
6310.84+897566001+897922507+898322591+898728220+899082840+899416558+899779550
6304.09+900142820+900493504+900854777+901201137+901515560+901839797+902213878
6297.34+902615127+902985937+903320209+903649048+903989142+904334780+904666169
6290.59+905000165+905352955+905686340+906000043+906329436+906675629+907040507
6283.84+907400616+907731672+908069382+908409975+908719076+909038101+909397490
6277.09+909749061+910070359+910392766+910718833+911025549+911326278+911646689
6270.34+911979964+912315123+912647843+912953007+913229673+913523582+913842330
6263.59+914144168+914422497+914710030+915029998+915359058+915649641+915913388
6256.83+916206299+916523162+916818291+917097119+917393690+917700850+917987607
6250.08+918248748+918515933+918821264+919132139+919407696+919669503+919948386
6243.33+920251610+920556386+920834272+921099572+921361545+921607827+921859377
6236.58+922120242+922370461+922626002+922890970+923136476+923359472+923584353
6229.83+923832632+924116505+924411801+924672499+924909023+925155583+925400202
6223.08+925637004+925883120+926126298+926336985+926524774+926718773+926918815
6216.33+927121907+927333149+927543504+927750865+927956784+928149175+928342287
6209.58+928564007+928790995+928979838+929125046+929259110+929407090+929556124
6202.83+929700167+929865890+930041370+930191457+930320309+930431863+930539868
6196.08+930667389+930780384+930848026+930915779+931031213+931151749+931232808
6189.33+931320188+931419654+931477760+931513244+931570462+931631894+931669264
6182.58+931686230+931681240+931661391+931653518+931649082+931609273+931530875
6175.83+931448707+931391711+931354009+931321297+931265631+931165277+931052947
6169.08+930943612+930806332+930647762+930499615+930364776+930208645+930016864
6162.33+929823253+929630252+929405094+929150772+928917741+928729120+928527248
6155.58+928280910+928029915+927783743+927513564+927219156+926906895+926578444
6148.83+926263466+925975157+925678365+925347530+924991468+924649212+924345101
6142.07+924059232+923752959+923407154+923056359+922742823+922447916+922141255
6135.32+921847401+921569405+921252542+920888496+920532711+920228822+919955705
6128.57+919669225+919362121+919036331+918716973+918446184+918210880+917963599
6121.82+917703622+917476190+917301486+917149680+916987118+916832540+916716995
6115.07+916619746+916499210+916356109+916242892+916194601+916177357+916129676
6108.32+916036751+915925475+915797344+915656627+915548400+915475768+915405687
6101.57+915332113+915243069+915120483+915001721+914916005+914806614+914639394
6094.82+914497735+914434861+914386292+914315545+914251674+914196840+914129586
6088.07+914064328+914019696+913974620+913924776+913913798+913932593+913906202
6081.32+913830410+913762934+913714643+913675943+913658422+913666351+913674612
6074.57+913662691+913670066+913722127+913763156+913768202+913762214+913737707
6067.82+913686033+913614067+913516430+913387855+913235273+913050977+912821771
6061.07+912588462+912366076+912096895+911767558+911412383+911041185+910646201
6054.32+910222497+909773789+909296360+908773966+908195739+907580698+906960168
6047.57+906332707+905663553+904922321+904133851+903351313+902555580+901682613
6040.82+900727589+899721833+898682479+897625548+896544278+895410003+894220118
6034.06+892979889+891699297+890393867+889046409+887647333+886213217+884742286
6027.31+883216187+881649172+880073285+878463632+876786394+875072395+873336109
6020.56+871552695+869735349+867901924+866030409+864110603+862153150+860148625
6013.81+858107506+856068329+854027654+851949610+849816621+847639554+845437870
6007.06+843208741+840955272+838697146+836426600+834120126+831768965+829376830
6000.31+826951263+824485110+821953700+819342950+816663892+813940479+811183467
5993.56+808377830+805518413+802607710+799647773+796654014+793614792+790503936
5986.81+787362863+784262042+781207572+778181712+775172263+772152280+769132684
5980.06+766155559+763222235+760291184+757325481+754316364+751270100+748206039
5973.31+745133938+742025799+738857004+735624891+732345263+729061255+725796764
5966.56+722530886+719247266+715953278+712658902+709348780+705984600+702562259
5959.81+699104822+695619219+692100627+688536848+684908699+681202096+677420588
5953.06+673587019+669700112+665733310+661694320+657593953+653398999+649093656
5946.31+644688513+640171984+635508250+630664378+625637874+620432285+615029260
5939.56+609406676+603537921+597392111+590971244+584303373+577369537+570122276
5932.81+562569518+554733884+546611049+538223359+529601195+520734911+511620016
5926.06+502301475+492845655+483294470+473666828+464019088+454444090+444996891
5919.30+435715082+426661896+417897075+409466637+401429325+393840445+386715632
5912.55+380071297+373949938+368377864+363361007+358903248+355004448+351648834
5905.80+348809044+346457855+344552603+343009372+341730028+340669910+339796333
5899.05+339021696+338272314+337509459+336681263+335734195+334610011+333243425
5892.30+331594907+329629885+327314264+324652310+321638398+318250571+314510342
5885.55+310448453+306075219+301415061+296514941+291433741+286236358+280970945
5878.80+275671545+270396734+265219284+260192419+255360773+250777072+246492687
5872.05+242566276+239054171+235976997+233335170+231126251+229353967+228018721
5865.30+227099375+226559932+226355357+226448489+226811870+227410001+228183168
5858.55+229072727+230050012+231094329+232161114+233168616+234058965+234843526
5851.80+235539876+236114166+236514805+236731231+236778109+236654940+236348473
5845.05+235860287+235207655+234409399+233481127+232414743+231190690+229806626
5838.30+228281983+226640062+224894184+223034410+221034916+218914776+216708116
5831.55+214413604+212025559+209551991+207009062+204413087+201794519+199176436
5824.80+196553890+193929125+191320260+188733406+186163282+183618246+181110649
5818.05+178661685+176273653+173922076+171624196+169395871+167229075+165147607
5811.30+163184471+161347110+159649052+158123702+156779599+155597365+154563098
5804.54+153686984+152984522+152458011+152094312+151851203+151694671+151629385
5797.79+151660628+151764059+151931569+152197188+152561040+152985894+153478293
5791.04+154079140+154788602+155583573+156472342+157474993+158606412+159884052
5784.29+161331197+162951204+164713813+166608974+168672256+170924325+173347883
5777.54+175939893+178706400+181634055+184708637+187919778+191250096+194686422
5770.79+198238807+201904991+205655270+209485222+213400821+217378296+221401207
5764.04+225480644+229622385+233810686+238032115+242270232+246497954+250725537
5757.29+254977294+259232654+263469275+267700988+271925633+276105478+280227385
5750.54+284309316+288348306+292308288+296154582+299877708+303476194+306939841
5743.79+310264185+313448698+316470789+319312990+321968484+324419667+326668562
5737.04+328703526+330480980+331985316+333227568+334201527+334889809+335297739
5730.29+335443252+335340819+335022681+334540373+333908255+333134561+332284963
5723.54+331411359+330526860+329647489+328800747+328003849+327251861+326544118
5716.79+325875213+325226351+324569671+323898354+323221382+322521151+321781860
5710.04+320999377+320171986+319293696+318355250+317359640+316315933+315230200
5703.29+314100083+312925279+311708808+310469965+309225773+307960844+306665726
5696.54+305356275+304062737+302791793+301519185+300227726+298940592+297694264
5689.78+296488688+295310003+294149309+293030642+291983580+290999670+290071896
5683.03+289215424+288458058+287816376+287302520+286918376+286679107+286618728
5676.28+286726650+286997744+287451803+288096618+288933851+289968271+291196413
5669.53+292616225+294258977+296122952+298182255+300440798+302906007+305576277
5662.78+308432035+311458921+314646651+317973573+321426630+324997228+328655040
5656.03+332368130+336123163+339909023+343727623+347578075+351453727+355347869
5649.28+359257480+363200691+367186427+371213025+375279875+379393271+383561890
5642.53+387785869+392063241+396383387+400737688+405128942+409573533+414079362
5635.78+418636976+423243464+427894002+432582408+437316362+442113661+446964574
5629.03+451844207+456756191+461704298+466681817+471676608+476672341+481664248
5622.28+486644956+491599549+496516108+501396018+506247985+511052047+515780651
5615.53+520430413+524988415+529444233+533813559+538109144+542301991+546345805
5608.78+550239088+554005127+557647636+561157634+564532127+567769506+570855967
5602.03+573784135+576570034+579218597+581729327+584114531+586366614+588476649
5595.28+590456446+592315264+594054933+595669353+597174937+598614542+599987781
5588.53+601257340+602432588+603553778+604626565+605635038+606574371+607452938
5581.78+608280662+609077671+609853611+610582479+611262112+611920067+612563884
5575.02+613176707+613760588+614328779+614864314+615366471+615863028+616369454
5568.27+616865069+617340557+617828797+618335168+618850964+619387996+619944266
5561.52+620511182+621101994+621725185+622373437+623050465+623751666+624477928
5554.77+625235738+626019218+626822880+627627263+628433863+629251940+630066746
5548.02+630865806+631638087+632402051+633184367+633952600+634667939+635342694
5541.27+635978914+636576435+637166083+637757616+638309839+638753724+639109232
5534.52+639457587+639790085+640069357+640316526+640548005+640736848+640867807
5527.77+640946925+640983907+641010353+641043509+641067405+641046780+640939551
5521.02+640768839+640622966+640529764+640456024+640346078+640136777+639893211
5514.27+639708360+639550899+639393161+639251224+639156747+639142221+639113722
5507.52+638957204+638789208+638738144+638755886+638771189+638783331+638848589
5500.77+638996292+639173879+639316814+639457088+639661122+639963736+640436507
5494.02+640939496+641135269+641186222+641459118+641914369+642346167+642690420
5487.27+643008392+643369000+643771746+644215742+644725051+645286699+645875294
5480.52+646473813+647097115+647792106+648692019+649812267+650649250+651037692
5473.77+651545615+652334196+653248857+654234264+655244954+656254258+657190709
5467.02+658040777+659025131+660182970+661259195+662296498+663546374+664771078
5460.26+665698768+666680295+667940594+669286055+670496455+671630453+672859426
5453.51+674190749+675560606+677021557+678623059+680122988+681403358+682881164
5446.76+684721686+686361056+687606829+689069000+690963358+692895695+694457832
5440.01+695832346+697418712+699219480+701172941+703359489+705401550+706975108
5433.26+708538853+710414858+712534707+714792390+716928927+718712120+720358088
5426.51+722141502+724090860+726124826+728164891+730172743+732188190+734232469
5419.76+736310568+738413506+740537403+742700498+745026709+747611956+749871690
5413.01+751695079+753815704+756107374+758082181+759919210+761854762+763933139
5406.26+766119964+768368000+770587703+772689921+774761422+776887481+779044976
5399.51+781244276+783566440+785979533+788198128+790348914+792816397+795085058
5392.76+796853502+798732835+800838490+802977577+805124483+807369691+809757556
5386.01+811857168+813527143+815226560+817046733+818852602+820652594+822438559
5379.26+824326707+826470341+828417204+829826981+831199388+832624689+833915593
5372.51+835249356+836675433+838096132+839507849+840886244+842191730+843473930
5365.76+844844286+846195513+847305060+848279767+849303431+850360029+851401878
5359.01+852426817+853442331+854497986+855687650+856976170+858012198+858505151
5352.26+858789968+859344852+860211997+861040165+861572373+862121768+863098915
5345.50+864118919+864365313+864252817+864396694+864804042+865569503+866562672
5338.75+867009663+866912247+866901547+867011936+867255058+867746570+868232759
5332.00+868422544+868534486+868903799+869586260+870210172+870327824+870303872
5325.25+870559192+870943808+871323267+871735106+872165130+872595819+873065819
5318.50+873608894+874173592+874670204+875099452+875547163+876047047+876578811
5311.75+877117783+877662521+878328349+879130403+879708130+879905899+880128063
5305.00+880548884+880998923+881384038+881779853+882243477+882619387+882842162
5298.25+883077522+883373593+883677649+883972389+884263526+884591090+885081770
5291.50+885678126+885949858+885898239+886002252+886374947+886911646+887446349
5284.75+887741089+887914241+888242747+888722893+889160236+889442169+889707968
5278.00+890050058+890411054+890769001+891129277+891496427+891858034+892242760
5271.25+892735991+893278178+893624371+893848531+894234866+894784649+895434953
5264.50+895927352+896109984+896336363+896603769+896801150+897103376+897530129
5257.75+898050527+898770025+899520682+899820136+899844586+900098576+900560979
5251.00+901123404+901896017+902679331+902951839+902994198+903432428+904087278
5244.25+904361005+904382240+904612112+905030049+905483914+905909614+906238453
5237.50+906519166+906853494+907251305+907623501+907963151+908371885+908723179
5230.74+908853583+908956099+909233098+909732427+910360442+910704140+910663999
5223.99+910689170+910905735+911184840+911535191+911981627+912387921+912648176
5217.24+912866126+913136527+913457604+913809729+914188079+914600583+915098859
5210.49+915756592+916397526+916903398+917506685+917957223+917980621+918073157
5203.74+918444854+918899551+919362398+919848088+920393214+921059652+921726478
5196.99+922142530+922407830+922783963+923269874+923772420+924281673+924837722
5190.24+925397541+925841703+926205694+926690829+927340357+927847171+928071719
5183.49+928326152+928762165+929239815+929646276+930006718+930370542+930751332
5176.74+931135226+931506036+931883943+932264844+932669142+933120457+933502467
5169.99+933779022+934084297+934465530+934872601+935310941+935801178+936234972
5163.24+936554774+936909616+937359156+937799382+938210999+938667193+939156432
5156.49+939604642+939994857+940380082+940808776+941266966+941725266+942153073
5149.74+942542623+942948806+943380827+943798431+944205058+944615899+945056125
5142.99+945502339+945866939+946174654+946522288+946897312+947265571+947640817
5136.24+948006526+948356156+948716764+949062181+949360359+949637690+949911473
5129.49+950182927+950452607+950701108+950920666+951133128+951350469+951552063
5122.74+951715291+951864324+952028993+952170487+952273613+952382616+952491175
5115.98+952601065+952748214+952904677+953028983+953131222+953240336+953363865
5109.23+953491275+953623232+953764282+953920634+954090959+954259287+954427837
5102.48+954614351+954820492+955035393+955271917+955545700+955833233+956104355
5095.73+956371928+956659793+956955865+957245616+957542020+957848736+958162661
5088.98+958476918+958780197+959084141+959400838+959720861+960036670+960356472
5082.23+960683481+961007496+961326189+961642442+961967011+962308214+962651191
5075.48+962999934+963369635+963739226+964086084+964424625+964775364+965141184
5068.73+965518759+965899216+966272909+966639727+967006878+967383454+967762469
5061.98+968121858+968455299+968776874+969096343+969410933+969709887+969977349
5055.23+970215648+970444632+970667628+970869445+971039769+971189135+971338169
5048.48+971490862+971631468+971747900+971844484+971953265+972105404+972281605
5041.73+972448270+972597858+972744120+972898809+973060040+973223267+973385608
5034.98+973547061+973699088+973837699+973976641+974109485+974234456+974368631
5028.23+974505578+974634873+974765167+974898122+975028859+975165362+975315948
5021.48+975468531+975599600+975719692+975856196+975997800+976123103+976224899
5014.73+976299415+976359295+976413076+976440133+976421614+976375928+976324033
5007.97+976268145+976217913+976162801+976072206+975965642+975882032+975800751
5001.22+975683654+975548924+975432935+975337461+975247420+975158709+975069888
4994.47+974975300+974881045+974810520+974775480+974758514+974744209+974745762
4987.72+974782022+974841791+974901670+974965431+975047710+975141632+975243095
4980.97+975369064+975518985+975677555+975853091+976064554+976319930+976621878
4974.22+976972617+977374143+977831668+978351622+978935559+979580818+980288395
4967.47+981060509+981891283+982769185+983684788+984629666+985596611+986587175
4960.72+987594593+988588262+989555983+990509621+991442523+992347370+993240796
4953.97+994126682+994996599+995858644+996718359+997564103+998396097+999230974
4947.22+1000072393+1000918026+1001759446+1002586228+1003417223+1004265407
4941.43+1005116141+1005959002+1006794322+1007627979+1008467181+1009307491
4935.65+1010137267+1010941761+1011720861+1012495636+1013280059+1014071579
4929.86+1014860215+1015633993+1016391026+1017141961+1017896333+1018645050
4924.07+1019372032+1020079610+1020782086+1021484784+1022165970+1022805129
4918.29+1023419782+1024035212+1024639552+1025210293+1025750984+1026267612
4912.50+1026762617+1027244537+1027714924+1028164908+1028583400+1028984261
4906.72+1029387783+1029799510+1030212347+1030603117+1030960731+1031308698
4900.93+1031677623+1032063403+1032431884+1032778521+1033132476+1033498185
4895.14+1033861676+1034223726+1034584889+1034940618+1035296014+1035650745
4889.36+1035998602+1036346014+1036698417+1037055477+1037426952+1037814506
4883.57+1038197514+1038566217+1038938801+1039324470+1039718345+1040113883
4877.79+1040507203+1040904182+1041308813+1041716993+1042128166+1042537232
4872.00+1042948516+1043384639+1043849593+1044321201+1044797022+1045297571
4866.21+1045827949+1046373297+1046921195+1047482178+1048084966+1048727452
4860.43+1049377811+1050031164+1050717340+1051440996+1052157112+1052838520
4854.64+1053511056+1054201889+1054913015+1055640552+1056373079+1057093852
4848.85+1057799212+1058499914+1059195848+1059873818+1060527171+1061170323
4843.07+1061806931+1062404175+1062946640+1063464820+1063985662+1064493530
4837.28+1064955268+1065374758+1065785598+1066198878+1066602844+1066986406
4831.50+1067346127+1067685888+1068013230+1068331590+1068629214+1068899670
4825.71+1069152828+1069390461+1069614344+1069828580+1070024963+1070203826
4819.92+1070373928+1070533274+1070673548+1070795303+1070906191+1071017856
4814.14+1071131627+1071239188+1071338766+1071432023+1071522064+1071610442
4808.35+1071700705+1071782762+1071835323+1071870807+1071915384+1071969054
4802.56+1072017845+1072041021+1072035143+1072029821+1072046343+1072060537
4796.78+1072045789+1072014629+1071995889+1071997885+1072006534+1072000657
4790.99+1071975818+1071947431+1071930687+1071931130+1071938005+1071940112
4785.21+1071948540+1071974599+1072003651+1072028490+1072068077+1072119640
4779.42+1072156344+1072183401+1072216778+1072240952+1072237625+1072222988
4773.63+1072218442+1072222877+1072222101+1072208129+1072190830+1072183290
4767.85+1072195266+1072229087+1072273553+1072319350+1072370802+1072447537
4762.06+1072546005+1072640815+1072726309+1072811471+1072902732+1072994215
4756.27+1073085032+1073186052+1073285075+1073364471+1073432223+1073502970
4750.49+1073576156+1073637145+1073682054+1073714766+1073734061+1073741823
4744.70+1073732176+1073700462+1073656883+1073612306+1073548656+1073444199
4738.92+1073328099+1073231959+1073137926+1073018278+1072866694+1072698920
4733.13+1072530148+1072361155+1072173975+1071948096+1071687620+1071406075
4727.34+1071108229+1070786321+1070419503+1069998793+1069534061+1069032625
4721.56+1068489495+1067904893+1067278153+1066601070+1065877968+1065115279
4715.77+1064306572+1063445526+1062527593+1061554217+1060522070+1059422171
4709.98+1058252966+1057009688+1055698769+1054336064+1052908712+1051395421
4704.20+1049800960+1048127215+1046368640+1044546193+1042666195+1040700148
4698.41+1038634413+1036474090+1034234149+1031928008+1029547240+1027076541
4692.63+1024512142+1021859364+1019118542+1016269604+1013284938+1010158779
4686.84+1006898890+1003491629+999899519+996102819+992104525+987910181+983519343
4680.09+978929682+974153286+969218542+964172244+959076822+953996038+948993763
4673.34+944151721+939555629+935238199+931198987+927431396+923914356+920635227
4666.59+917598445+914807168+912228520+909808718+907503853+905276775+903112128
4659.84+900989008+898860620+896696749+894494399+892268930+890027159+887751956
4653.09+885436667+883107628+880800711+878534656+876311570+874138994+872022860
4646.34+869962836+867959974+866004517+864074952+862160191+860274205+858424647
4639.59+856593772+854759461+852907739+851033674+849124679+847176762+845189037
4632.83+843138105+841010827+838829934+836626032+834411762+832199100+830012053
4626.08+827879286+825828742+823859258+821937400+820019922+818074334+816098473
4619.33+814104316+812091918+810053738+808007852+806008151+804096494+802276321
4612.58+800537262+798889131+797354994+795953977+794707706+793632257+792719869
4605.83+791963446+791369362+790930911+790617873+790401475+790287039+790306721
4599.08+790487358+790846026+791385108+792096179+792981011+794047089+795276007
4592.33+796634221+798104154+799661079+801261084+802861145+804446901+806033045
4585.58+807620686+809179164+810679536+812101510+813403836+814549200+815550021
4578.83+816438235+817251544+818049717+818902557+819867118+820992744+822316305
4572.08+823827655+825464308+827141547+828776925+830304853+831681419+832879732
4565.33+833882438+834686931+835319049+835819986+836221346+836537987+836766084
4558.58+836900979+836961746+836969065+836909740+836755383+836513370+836215524
4551.83+835854861+835409257+834888415+834307527+833678625+833016068+832318083
4545.08+831559774+830735654+829868508+828961998+828011631+827027110+826000120
4538.33+824904046+823745708+822559260+821355015+820126042+818862915+817556098
4531.58+816203373+814816107+813396351+811930299+810419614+808875386+807294121
4524.83+805671439+804021146+802353000+800665393+798952837+797209453+795448993
4518.07+793679994+791890149+790085167+788271147+786427965+784538541+782602213
4511.32+780617758+778592552+776530366+774423879+772275476+770086766+767864623
4504.57+765614869+763317266+760958786+758558612+756123287+753624367+751043334
4497.82+748386454+745654503+742837888+739939605+736966416+733906180+730754628
4491.07+727530666+724246159+720887856+717438458+713900849+710284288+706589994
4484.32+702803052+698910823+694910034+690800962+686590872+682280262+677862422
4477.57+673330424+668679497+663903212+659000681+653976117+648819485+643517978
4470.82+638075421+632497747+626772204+620897627+614881390+608702980+602352138
4464.07+595832525+589131831+582243127+575169128+567904346+560436806+552757136
4457.32+544852696+536709846+528325150+519697996+510825447+501704065+492322762
4450.57+482661798+472716018+462497176+452010677+441241220+430175221+418826096
4443.82+407202800+395299899+383121719+370675661+357973368+345036435+331890534
4437.07+318561890+305086678+291519707+277931335+264388898+250943654+237654180
4430.32+224598542+211850744+199458896+187450887+175848632+164663622+153903590
4423.57+143571961+133660861+124166147+115088517+106421790+98157761+90295313
4416.82+82833968+75776055+69133224+62913231+57120953+51763191+46833766+42312032
4409.10+38181562+34437143+31064362+28033023+25320491+22909305+20773769+18890051
4401.39+17238713+15804573+14577741+13545502+12681206+11951485+11340754+10843567
4393.67+10446862+10133833+9887591+9691606+9526238+9374263+9229464+9092892
4385.96+8965372+8842733+8720210+8593483+8462485+8340590+8236640+8136910+8032216
4377.28+7938793+7865916+7802127+7746338+7703787+7664871+7624271+7584044+7534025
4368.60+7463187+7366037+7231469+7052785+6837830+6598369+6333522+6030935+5686065
4359.92+5308443+4917055+4526176+4133329+3741556+3363058+2999344+2648929+2315245
4351.24+2003976+1723448+1478486+1262413+1066622+892721+745736+626475+523287
4342.56+425377+343407+283211+232909+189034+152625+125976+114032+108575+98197
4332.92+88636+79709+64361+51794+51251+62756+82377+104475+124614+140666+157854
4322.31+183571+222925+275478+333601+395260+464169+537874+610925+686561+772952
4312.66+870556+973777+1082374+1198991+1314068+1418651+1526399+1651039+1782919
4303.98+1910135+2038350+2169475+2298542+2434610+2578307+2716890+2855354+3002979
4295.31+3150310+3283632+3395423+3482240+3543790+3580888+3596043+3585634+3546512
4286.63+3487319+3407567+3299265+3166913+3019084+2859455+2688474+2505096+2316217
4277.95+2133818+1956352+1782452+1618544+1460597+1306989+1166938+1043084+929422
4269.27+824277+732616+656891+594670+537628+477722+423141+386258+360409+338841
4259.62+327737+325321+327466+339503+362568+390553+428542+489237+567613+650225
4249.98+734975+831205+946891+1078939+1218826+1367549+1533198+1709070+1884590
4241.30+2062567+2245270+2429051+2606413+2765557+2905958+3038543+3167605+3293329
4232.62+3415766+3524513+3608459+3674523+3741782+3816147+3891211+3966447+4042629
4223.94+4117269+4185405+4241443+4293792+4355525+4418904+4467513+4497810+4520975
4215.26+4546393+4568278+4579812+4587286+4598609+4606756+4605412+4602850+4605357
4206.58+4612393+4617625+4616746+4616346+4622494+4633150+4639933+4641525+4647085
4197.90+4658638+4666777+4666413+4667533+4677775+4689787+4696189+4698260+4701248
4189.22+4706382+4708401+4704843+4694835+4675172+4646474+4610388+4564702+4506601
4180.55+4439326+4367650+4289057+4201144+4109091+4022971+3944130+3865428+3788366
4171.87+3719563+3661996+3617089+3587244+3577440+3586124+3602388+3630001+3681450
4163.19+3741567+3794559+3858260+3944814+4036851+4122625+4209059+4303476+4411875
4154.51+4532416+4655360+4775221+4885781+4983492+5076382+5171512+5261460+5336290
4145.83+5404018+5471703+5527648+5570242+5613069+5656871+5692621+5718788+5738726
4137.15+5754032+5767010+5780750+5795276+5806380+5809172+5808862+5817356+5837053
4128.47+5859524+5878698+5897188+5917595+5937278+5958073+5983871+6007645+6024448
4119.79+6042047+6074141+6122933+6169666+6205608+6239979+6276777+6316619+6364611
4111.11+6417196+6464363+6513840+6573264+6636584+6696627+6752508+6808298+6859213
4102.43+6903754+6947940+6992386+7037806+7083970+7120196+7140131+7157157+7178039
4093.75+7195664+7199203+7183198+7161155+7142635+7123069+7097617+7063952+7014537
4085.07+6941857+6848479+6737645+6607758+6456910+6292391+6114455+5920567+5721669
4076.39+5519418+5313571+5115607+4937317+4774561+4627205+4514627+4440986+4394391
4067.71+4373229+4387610+4435048+4508295+4610963+4740930+4891045+5054298+5233789
4059.03+5439570+5678541+5949758+6257743+6625154+7051270+7521589+8039807+8606446
4050.36+9213199+9857147+10535781+11231804+11935843+12651951+13371914+14077640
4042.64+14764177+15440763+16112041+16778377+17442585+18118063+18811346+19513336
4034.93+20219934+20933420+21664557+22414744+23172609+23926404+24664312+25382972
4027.21+26085640+26779944+27457805+28105057+28726844+29324756+29897836+30450732
4019.50+30979294+31486614+31993109+32496871+32985125+33473771+33982304+34518701
4011.78+35082453+35671751+36298948+36970106+37665170+38377879+39131198+39928466
4004.07+40752064+41587329+42424313+43266681+44114248+44954035+45783711+46610961
3996.35+47446163+48294492+49153681+50035447+50956016+51925847+52946222+54007086
3988.64+55118119+56289538+57513501+58790305+60113076+61471123+62862153+64262400
3980.92+65644454+67001240+68321606+69595905+70814406+71943968+72956814+73868661
3973.21+74706913+75458596+76108768+76681228+77195195+77647189+78046164+78419109
3965.49+78780583+79134185+79484259+79830382+80163837+80493327+80841571+81206421
3957.78+81577938+81947985+82318525+82699890+83084249+83454713+83810082+84172430
3950.06+84524874+84840842+85133698+85397480+85642349+85887031+86130382+86348734
3942.35+86507401+86634777+86762028+86876652+86979840+87096841+87236636+87396551
3934.63+87562287+87724406+87877050+88013886+88163218+88323077+88475929+88630951
3926.92+88805274+89018574+89232824+89390070+89521064+89683945+89874964+90025196
3919.20+90137443+90275693+90406243+90465720+90520152+90606825+90687684+90748284
3911.49+90806216+90879825+90969935+91088406+91249672+91435700+91622422+91798097
3903.77+91968012+92161865+92368526+92588521+92896167+93197290+93412067+93651966
3896.06+93927828+94208008+94465497+94706929+94949482+95086769+95145020+95250551
3888.34+95417964+95626919+95852777+96000127+96140886+96367257+96650507+97037985
3880.63+97492300+97828485+98170555+98627185+99144991+99732151+100482572
3873.88+101159066+101650952+102184262+102921065+103747743+104266839+104680964
3867.12+105190211+105856385+106574504+107053056+107459433+107971681+108453331
3860.37+108840205+109232403+109666731+110096679+110422510+110727584+111219782
3853.62+111604897+111713920+111783918+111888105+112014829+112132239+112270835
3846.87+112441187+112636129+112860594+113057088+113208110+113437552+113755801
3840.12+113999838+114240722+114542012+114743121+114950572+115225249+115433975
3833.37+115634655+115922777+116141199+116257652+116401578+116590961+116782354
3826.62+116916363+117048264+117259340+117571809+118061297+118892140+119742001
3819.87+120385831+121113174+122027558+123457142+125233639+126427697+127475742
3813.12+128704882+129996341+131269753+132486293+133588036+134772085+136221712
3806.37+137306905+138066475+138928478+139909520+141062119+142281653+143047737
3799.62+143650123
##END=
