##TITLE=ֽופע_3_2,1לל
##JCAMP-DX=4.24
##DATA TYPE=INFRARED SPECTRUM
##DATE=7/4/2017
##SAMPLING PROCEDURE=Instrument type and / or accessory
##ORIGIN=Default
##XUNITS=1/CM
##YUNITS=TRANSMITTANCE
##RESOLUTION=2
##FIRSTX=7998.4873
##LASTX=3799.619
##DELTAX=-0.96437031
##MAXY=0.39145517
##MINY=2.989331e-005
##XFACTOR=1
##YFACTOR=3.6457104e-010
##NPOINTS=4355
##FIRSTY=0.098411165
##XYDATA=(X++(Y..Y))
7998.49+269936869+270156440+270261402+270415739+270810430+271311269+271701710
7991.74+271984695+272241542+272477257+272672406+272877875+273193947+273583672
7984.99+273939248+274279088+274594465+274830732+275029008+275209299+275403467
7978.24+275706541+276080837+276371711+276570885+276831165+277174377+277489141
7971.48+277773291+278053783+278320971+278646076+279056238+279476209+279828638
7964.73+280023439+280130343+280303563+280510831+280763468+281130059+281493584
7957.98+281761589+282013388+282341252+282766660+283225236+283571656+283784748
7951.23+283974216+284180564+284451512+284804104+285180402+285552144+285820782
7944.48+285942768+286071600+286285878+286535490+286841589+287213534+287540703
7937.73+287754020+287914713+288123513+288430164+288773110+289066068+289314291
7930.98+289559162+289811492+290085219+290388253+290727868+291231833+291872091
7924.23+292228852+292176350+292111607+292250331+292505522+292788466+293109750
7917.48+293495531+293881414+294248250+294623752+294935655+295127125+295248416
7910.73+295383645+295633134+296031484+296429629+296658927+296789129+297013154
7903.98+297363785+297801638+298366055+298877807+298978703+298861560+299097562
7897.23+299718670+300274728+300452036+300377013+300407157+300622518+300892526
7890.48+301213114+301570059+302003662+302780190+303650645+303832816+303411169
7883.73+303144370+303225299+303458623+303724462+303963427+304226609+304617765
7876.98+305056497+305325299+305430363+305572643+305828059+306119301+306438765
7870.23+306890250+307402145+307801475+308292566+309067929+309583953+309426857
7863.48+309202852+309367815+309630344+309901680+310235961+310430292+310496221
7856.72+310609398+310777836+310975662+311242217+311781047+312667074+313387893
7849.97+313517297+313378553+313342421+313361448+313426722+313645863+313966064
7843.22+314383746+315077404+315770510+315866685+315585048+315578304+316067985
7836.47+317005717+317885307+318129197+317890130+317568029+317399979+317515834
7829.72+317778669+317990208+318171460+318420704+318731217+319026178+319258113
7822.97+319422075+319562781+319774238+320066542+320336939+320560392+320813540
7816.22+321108828+321513983+322247778+323154140+323698427+323995002+324650689
7809.47+325362822+325336888+324925398+325146726+326082434+326745437+326444366
7802.72+325813448+325914057+326937030+327987041+328124681+327682086+327381709
7795.97+327203564+327103098+327196043+327389087+327601362+327929880+328485611
7789.22+329042794+329304463+329480422+329900026+330685158+331724276+332326255
7782.47+332014945+331349714+330994098+331036830+331312785+331607522+331781171
7775.72+332003460+332743876+334202986+335595840+335816903+335042827+334430936
7768.97+334583229+335120036+335318373+335103830+335092569+335681040+336750833
7762.22+337854265+338279325+337750999+336999771+336713761+336808321+337041830
7755.47+337305441+337582397+337899184+338265244+338925427+340083240+341169076
7748.72+341344136+340734002+340176615+340172691+340719124+341533399+342412171
7741.96+343363187+344161194+344449677+344117133+343403243+342849963+342706601
7735.21+342850719+343251726+343963491+344998439+346014014+346400469+346104507
7728.46+345702111+345577979+345815493+346549248+347343454+347375335+346840305
7721.71+346510827+346562531+346823302+347158421+347554890+348217526+349079417
7714.96+349533395+349438610+349461499+350109379+351363776+352752359+353571170
7708.21+353546279+353212550+353366273+353845470+353711038+352907677+352301896
7701.46+352344731+352731759+352968006+352934980+352899093+353023511+353237400
7694.71+353494411+353765154+354003894+354318045+354871590+355779628+356829985
7687.96+357256905+356817887+356337178+356568602+357533821+358595214+359154808
7681.21+359270561+359134944+359080215+359688653+360799748+361426047+361089906
7674.46+360386725+360092438+360574496+361615821+362211547+361768237+361085941
7667.71+360973908+361428990+362402424+363529092+363882113+363368624+362865844
7660.96+362772898+362925519+363232885+363656289+364106834+364677423+365492311
7654.21+366054929+365954668+365701131+365717235+365912813+366204116+366584114
7647.46+367053869+367692184+368685770+369817506+370564912+370850084+370743078
7640.71+370240257+369690513+369506216+369622010+369811497+370230202+371174126
7633.96+372438087+373222974+373020038+372258613+371671797+371565323+371778844
7627.20+372016072+372175804+372355360+372631171+372959383+373247906+373457136
7620.45+373685208+374045014+374479495+375028054+376041871+377419255+378196948
7613.70+377868042+377122679+376722777+376747382+376968342+377403192+378188242
7606.95+379041346+379729404+380545559+381377981+381565507+381063953+380478445
7600.20+380222907+380283930+380545314+380967615+381439577+382015398+382737177
7593.45+383075974+382782750+382427031+382371730+382487442+382700432+383003261
7586.70+383319823+383631522+383950904+384237915+384492882+384762931+385087300
7579.95+385458265+385782797+385999670+386195371+386480543+386821261+387125480
7573.20+387427982+387882491+388502700+388968449+389046435+388972823+388990807
7566.45+389122623+389415356+389799850+390134315+390521792+391229347+392200942
7559.70+392784161+392639756+392349761+392350006+392481822+392662645+392920922
7552.95+393160480+393356467+393629254+394008720+394369712+394657336+394936336
7546.20+395212638+395498301+395847684+396280531+396928819+397744770+398184524
7539.45+397994627+397700095+397743462+398012448+398318751+398700220+399313195
7532.70+399997574+400290880+400191967+400116311+400235006+400448487+400672063
7525.95+400916689+401200552+401536407+401981066+402635159+403412157+403928303
7519.20+404005962+403885876+403825180+403973304+404450621+405063105+405342268
7512.44+405288152+405311899+405551702+405948376+406416618+406913309+407553668
7505.69+408191412+408450588+408426023+408495222+408798255+409311622+409824702
7498.94+409987704+409825029+409792576+410022487+410205476+410341952+410694891
7492.19+411283015+411970215+412569701+412887817+412874247+412669636+412505939
7485.44+412567984+412926850+413399957+413663057+413696655+413768387+414067211
7478.69+414554459+414985630+415265570+415651086+416149820+416453793+416624438
7471.94+416912226+417293286+417542122+417502230+417394243+417610503+418160819
7465.19+418625424+418699404+418584837+418626405+418836901+419084552+419390650
7458.44+419754013+420050792+420267502+420546665+420902711+421133604+421240650
7451.69+421476284+421817534+422037186+422154655+422344797+422659847+422988713
7444.94+423177097+423230804+423339118+423593635+423902309+424219811+424502326
7438.19+424628543+424672727+424819625+425057220+425300865+425517574+425732853
7431.44+425978950+426178697+426318606+426536092+426879222+427272094+427621928
7424.69+427803445+427799399+427802914+428005399+428398681+428743895+428861937
7417.94+428873790+428882046+428883027+428955700+429099287+429216143+429322413
7411.19+429472540+429645965+429819921+429978795+430124303+430285017+430474913
7404.44+430665709+430740507+430680137+430653365+430726978+430768628+430699348
7397.68+430635994+430647561+430670450+430660518+430605666+430583963+430639468
7390.93+430620299+430433509+430232781+430107259+430010267+429978632+430006262
7384.18+429986152+429856462+429594097+429248310+428915113+428638279+428487661
7377.43+428418586+428091928+427479934+426988271+426643179+426270989+425927777
7370.68+425735265+425531880+425058365+424481440+424029588+423648487+423280179
7363.93+422969093+422659847+422237301+421824482+421544951+421264398+420987073
7357.18+420807395+420534853+420098573+419801303+419749394+419729979+419666381
7350.43+419685918+419678643+419436265+419096773+418965611+419132904+419352884
7343.68+419447464+419627469+419925721+419979101+419765375+419682035+419773959
7336.93+419911333+420083532+420282175+420479552+420676438+420914524+421179422
7330.18+421450697+421757328+421897645+421797547+421784958+421972852+422146603
7323.43+422153674+422106302+422091179+422063427+422021777+422068209+422218622
7316.68+422273882+422167653+422142884+422276498+422335478+422121139+421696917
7309.93+421370627+421382971+421481516+421205826+420773838+420555371+420465328
7303.18+420332327+420167935+420059866+419883254+419520995+419177906+418996266
7296.43+418981388+418948362+418543023+417901683+417405238+417114466+416947132
7289.68+416797986+416524872+416109682+415713785+415446107+415255761+415042526
7282.92+414789970+414503041+414161342+413823566+413528135+413228576+412932736
7276.17+412667960+412416549+412120219+411709689+411243817+410857117+410627164
7269.42+410466083+410120624+409583264+409121275+408821839+408601083+408360340
7262.67+407957944+407437466+407022808+406717363+406397367+406072099+405779284
7255.92+405515897+405255372+404937134+404525173+404083008+403703460+403399118
7249.17+403129887+402905330+402777111+402731987+402800327+402957975+402844020
7242.42+402498274+402321416+402188415+401957032+401784507+401731862+401669367
7235.67+401557130+401588929+401746250+401621791+401163031+400756221+400569921
7228.92+400536691+400562441+400503420+400259448+399972396+399785279+399694459
7222.17+399697729+399742240+399651501+399380513+399066035+398802485+398563418
7215.42+398295780+398019969+397705041+397323531+396954856+396613892+396262833
7208.67+395918722+395662897+395503287+395271945+394896648+394460205+394021799
7201.92+393659296+393381767+393118912+392854790+392606322+392377514+392132888
7195.17+391826994+391532012+391324867+391182302+391094793+391018442+390876080
7188.42+390730204+390678336+390708623+390829935+391092054+391463836+391803696
7181.67+391942869+392011536+392291272+392764869+393285347+393846127+394478516
7174.92+395146424+395805953+396487594+397263856+398180028+399202674+400134050
7168.16+400930871+401870259+402937742+403892825+404849583+406035109+407364834
7161.41+408453204+409244017+410103252+411149033+412211938+413205850+414228864
7154.66+415307056+416338735+417288136+418206474+419121583+420009960+420869481
7147.91+421738035+422646032+423481029+424116525+424687155+425319993+426049620
7141.16+426914945+427711685+428157243+428475686+428963384+429513046+429964571
7134.41+430344896+430723994+431134320+431576240+432005285+432345636+432608736
7127.66+432841713+433059853+433280813+433504266+433735281+433993027+434261523
7120.91+434495644+434818215+435275095+435442389+435214358+435044816+435046124
7114.16+435048167+435032799+435075634+435152026+435193022+435150759+435053726
7107.41+434979419+434860437+434620512+434383366+434225718+434069665+433839631
7100.66+433543668+433280854+433108574+432962289+432776357+432491757+432081268
7093.91+431659131+431321723+431053636+430844652+430671758+430476916+430257346
7087.16+430023715+429767971+429551507+429452758+429451000+429500293+429598389
7080.41+429755710+429967187+430208543+430498252+430882337+431336151+431815838
7073.66+432389043+433106448+433833459+434538561+435328189+436139766+436943536
7066.91+437818998+438762473+439761371+440818228+441897319+442951519+443969914
7060.16+444998364+446083423+447203429+448289551+449323355+450329365+451334272
7053.40+452376742+453419620+454401801+455348423+456297620+457241176+458118518
7046.65+458920081+459709954+460499787+461279401+462029014+462720342+463401289
7039.90+464103898+464797556+465481936+466157936+466790857+467347753+467848735
7033.15+468363532+468913153+469457829+469971236+470459588+470958036+471458242
7026.40+471902492+472321482+472786823+473236101+473605716+473968016+474367673
7019.65+474782740+475189387+475554466+475888726+476212850+476503458+476776409
7012.90+477063788+477330322+477564034+477825336+478136830+478433937+478646886
7006.15+478797095+478953762+479148359+479383870+479606138+479750420+479842139
6999.40+479923763+479998397+480095389+480238976+480399567+480556438+480716865
6992.65+480874431+481028482+481168840+481274906+481392008+481598539+481888984
6985.90+482184905+482427447+482627235+482849666+483099401+483315129+483542711
6979.15+483855227+484197662+484535969+484926348+485357151+485757953+486140607
6972.40+486542472+486986313+487518604+488106646+488667834+489206951+489769774
6965.65+490373879+491017794+491660156+492260011+492839224+493460414+494132777
6958.90+494774894+495390974+496068365+496727771+497277842+497818471+498427031
6952.15+499068780+499710406+500346678+500985812+501613010+502172481+502706611
6945.39+503319872+503958801+504533886+505103903+505726073+506329402+506855480
6938.64+507352129+507865700+508390266+508905840+509404288+509923540+510482153
6931.89+510996460+511399019+511762790+512191917+512675896+513144588+513599465
6925.14+514066727+514520460+514967775+515469411+516027902+516593382+517159515
6918.39+517694259+518128045+518528316+519012131+519547569+520065391+520585665
6911.64+521132588+521690261+522256027+522823060+523369330+523917725+524519500
6904.89+525138115+525704902+526280233+526942500+527662644+528365090+528998501
6898.14+529602932+530250118+530957673+531696618+532380916+532981097+533570202
6891.39+534198749+534873891+535551935+536193685+536847369+537534119+538202395
6884.64+538820805+539395563+539975226+540597438+541219568+541809735+542396264
6877.89+542969428+543505480+544056858+544650295+545228773+545768543+546292537
6871.14+546824296+547360879+547850703+548292173+548750647+549242433+549735158
6864.39+550216562+550704424+551184193+551608905+551976191+552316746+552670299
6857.64+553066605+553479914+553874830+554256340+554629103+554977669+555304695
6850.89+555639446+555960178+556197119+556378637+556608507+556912317+557255284
6844.14+557592773+557909908+558249073+558602135+558904065+559140230+559357266
6837.39+559637084+559993048+560325183+560593352+560890091+561286601+561743236
6830.63+562160877+562498081+562813744+563169790+563586246+564047173+564503725
6823.88+564947362+565426723+565949776+566447652+566880989+567294257+567731600
6817.13+568170209+568616135+569124679+569655416+570127133+570566683+571053032
6810.38+571599506+572150231+572686691+573238968+573803181+574335186+574822026
6803.63+575284750+575731984+576203456+576732722+577281648+577804170+578303068
6796.88+578824364+579394503+579982422+580538256+581050315+581565398+582112281
6790.13+582649149+583130471+583610363+584165175+584745491+585274431+585779296
6783.38+586317799+586874205+587399221+587884875+588363459+588869632+589402903
6776.63+589933232+590446394+590939079+591421423+591906996+592383291+592852882
6769.88+593310334+593764884+594285771+594817735+595249928+595670145+596171167
6763.13+596671577+597101399+597503305+597922786+598373780+598864462+599370062
6756.38+599868183+600351917+600799846+601215934+601654544+602138645+602602310
6749.63+603004461+603389404+603778434+604187861+604662071+605160968+605609551
6742.88+606042888+606518120+606999278+607442343+607871143+608308404+608728825
6736.13+609132733+609573836+610055608+610502760+610883125+611248776+611656404
6729.38+612097752+612517029+612895310+613272364+613688453+614129433+614567552
6722.63+615006775+615433163+615840628+616232887+616588729+616938889+617342879
6715.87+617784718+618192345+618542015+618906235+619328373+619765838+620206451
6709.12+620648984+621040222+621394061+621793922+622243118+622694562+623132845
6702.37+623563566+623991385+624411724+624824584+625240263+625666161+626103627
6695.62+626556828+627016732+627453094+627870490+628308528+628766184+629213173
6688.87+629677451+630182275+630667480+631109972+631541470+631946605+632327174
6682.12+632748985+633258264+633816346+634340626+634801879+635250830+635735749
6675.37+636239265+636732563+637236937+637763710+638246912+638649104+639051909
6668.62+639538462+640097403+640651724+641144041+641606970+642092543+642599942
6661.87+643118295+643628024+644101008+644548364+645001239+645484645+646006840
6655.12+646526256+647007537+647469608+647925180+648374376+648835302+649324962
6648.37+649837348+650350674+650855212+651344953+651784176+652179542+652622648
6641.62+653153263+653701862+654205542+654673416+655129969+655563960+655983155
6634.87+656440117+656956671+657493376+657994972+658480871+659004497+659519008
6628.12+659973272+660409021+660861037+661327930+661796418+662247780+662688761
6621.37+663138815+663591566+664022778+664446878+664908008+665404699+665888064
6614.62+666341184+666783554+667205937+667621290+668082052+668585773+669101878
6607.87+669599386+670030720+670405322+670784952+671183056+671583082+672005015
6601.11+672470110+672943912+673383543+673799509+674220257+674660788+675128908
6594.36+675596578+676029588+676446739+676880199+677334913+677792569+678225252
6587.61+678641055+679090128+679554733+679941597+680277451+680680787+681130596
6580.86+681553674+681989341+682464532+682941399+683392638+683803658+684178056
6574.11+684542563+684906906+685272516+685672583+686114012+686541872+686948315
6567.36+687375030+687819485+688262713+688702753+689124073+689503540+689857910
6560.61+690227566+690621910+691066855+691568369+692043151+692465207+692885546
6553.86+693306540+693720503+694138144+694541562+694925770+695309405+695700888
6547.11+696125641+696582767+697015368+697414208+697816400+698221534+698623889
6540.36+699026571+699423531+699826459+700227996+700621605+701027393+701448877
6533.61+701900198+702367214+702792622+703170371+703532507+703910666+704316781
6526.86+704734995+705155907+705573712+705987757+706413409+706843558+707256377
6520.11+707654481+708038934+708421180+708844135+709297418+709720455+710114145
6513.36+710525901+710937657+711314098+711703210+712130090+712559421+712983030
6506.61+713402552+713822728+714247808+714669210+715092247+715507028+715913062
6499.86+716340349+716776956+717210293+717667255+718118658+718510795+718872277
6493.11+719289836+719801568+720334390+720812769+721257224+721716720+722212756
6486.35+722728984+723226900+723684679+724112049+724554705+725047635+725552827
6479.60+726029244+726493972+726960416+727422609+727898454+728404382+728913988
6472.85+729412886+729906143+730378391+730845162+731338910+731833475+732290191
6466.10+732714127+733138962+733589139+734062614+734541156+734988554+735395813
6459.35+735811738+736260198+736702936+737121641+737539446+737948422+738305654
6452.60+738642612+739034013+739469720+739904856+740329936+740745943+741143802
6445.85+741493676+741807582+742171435+742619323+743083887+743507496+743902984
6439.10+744286538+744634859+744951380+745282534+745665761+746085364+746497120
6432.35+746907568+747307635+747647781+747982041+748383252+748802774+749203576
6425.60+749611735+750011147+750391186+750769671+751133360+751494433+751877251
6418.85+752246662+752590569+752955403+753367485+753793547+754193205+754576676
6412.10+754967669+755354002+755711069+756062987+756447194+756843582+757221659
6405.35+757576437+757907755+758238909+758607176+759007242+759397662+759761515
6398.60+760117765+760466168+760796341+761158068+761585356+761984932+762280608
6391.85+762563532+762942426+763387044+763809754+764174914+764526096+764908424
6385.10+765300806+765664822+765985431+766294350+766632371+766999657+767387216
6378.35+767761941+768110016+768473460+768863226+769248251+769607036+769957482
6371.59+770320435+770666140+770980373+771301636+771630174+771934679+772256678
6364.84+772645708+773072669+773503063+773909342+774233629+774501921+774815172
6358.09+775171586+775502250+775810760+776136274+776480099+776821962+777149355
6351.34+777464324+777791309+778140938+778482800+778795970+779103663+779434818
6344.59+779772348+780093938+780418062+780755592+781081514+781396156+781730988
6337.84+782079473+782412998+782731318+783055278+783390765+783709657+783999529
6331.09+784275096+784559328+784882552+785245097+785594726+785885824+786151091
6324.34+786451754+786782499+787091337+787364042+787644350+787969292+788322762
6317.59+788667323+788991692+789302818+789613863+789934227+790266443+790610350
6310.84+790924664+791188787+791451029+791740083+792059466+792400675+792717197
6304.09+793014753+793350158+793684664+793949358+794197785+794510873+794877423
6297.34+795226235+795520113+795799440+796107623+796442129+796768215+797059722
6290.59+797333081+797613389+797895250+798166648+798450962+798776312+799115968
6283.84+799426031+799718765+800023024+800323523+800607346+800876210+801125945
6277.09+801394481+801707651+802007088+802251591+802480480+802752941+803085812
6270.34+803422361+803700380+803930659+804170830+804461520+804769540+805048049
6263.59+805316994+805603760+805881289+806126855+806376099+806657224+806947832
6256.83+807233781+807516868+807771998+807991078+808212856+808462999+808725977
6250.08+808978083+809225692+809493411+809765790+810018876+810270328+810528155
6243.33+810782550+811028688+811262155+811485404+811705383+811933783+812187114
6236.58+812459411+812709718+812925855+813146570+813377912+813592414+813808797
6229.83+814055343+814317667+814582362+814833650+815040304+815216958+815427455
6223.08+815681522+815907959+816080362+816253501+816457458+816660434+816843136
6216.33+817040063+817252931+817437105+817599208+817781584+817979982+818158516
6209.58+818328139+818513540+818677768+818803657+818942953+819128599+819326425
6202.83+819480680+819603871+819748644+819908213+820044402+820147975+820252692
6196.08+820381278+820489184+820563736+820657009+820775214+820876906+820953829
6189.33+821036066+821115687+821164408+821210267+821279833+821357165+821423216
6182.58+821452318+821443244+821445533+821468994+821464662+821412262+821346130
6175.83+821299207+821255882+821190567+821130401+821073261+820961922+820808975
6169.08+820672704+820556134+820430326+820281303+820114622+819928322+819731968
6162.33+819557358+819384137+819178382+818960528+818728451+818472258+818225548
6155.58+817997149+817763681+817509369+817224892+816918588+816614574+816337618
6148.83+816080934+815807493+815512716+815212707+814919565+814672119+814471514
6142.07+814246630+813962071+813674815+813443554+813231341+812977928+812690671
6135.32+812420582+812201011+811989288+811720997+811419844+811156457+810927159
6128.57+810663772+810355426+810072093+809855220+809680692+809509188+809309482
6121.82+809095307+808930506+808830858+808730882+808595592+808487033+808445751
6115.07+808428911+808393842+808348800+808333840+808351579+808357302+808330243
6108.32+808295093+808287327+808295501+808277844+808249233+808238769+808228306
6101.57+808211384+808193155+808160783+808126450+808118112+808116068+808082634
6094.82+808055167+808090400+808153590+808182201+808209259+808306864+808434715
6088.07+808527007+808602622+808655921+808678319+808732599+808856199+809003015
6081.32+809117051+809210406+809312343+809420984+809550715+809723445+809923642
6074.57+810126127+810328695+810536003+810739797+810928385+811088444+811215151
6067.82+811326489+811420498+811483034+811535678+811587587+811600666+811563635
6061.07+811513770+811462352+811385429+811261501+811093104+810909175+810726063
6054.32+810530117+810299266+810029340+809729740+809403245+809076832+808761619
6047.57+808399810+807957481+807473951+806980367+806461687+805900581+805300400
6040.82+804675368+804024994+803325900+802581437+801811306+801016814+800192648
6034.06+799334148+798461098+797578238+796638565+795632596+794598178+793528283
6027.31+792401002+791253284+790109409+788933162+787698875+786425595+785142833
6020.56+783846745+782513791+781142906+779738014+778289471+776805857+775293797
6013.81+773742743+772157519+770536409+768867069+767166991+765450565+763694655
6007.06+761880951+760044521+758218554+756380816+754509399+752606019+750658414
6000.31+748663233+746625380+744502103+742247949+739870849+737407671+734890621
5993.56+732314224+729658043+726923467+724125210+721284691+718407794+715498445
5986.81+712609777+709793372+707057407+704411852+701835210+699285462+696764570
5980.06+694274497+691800528+689329829+686835014+684283059+681667792+679000820
5973.31+676277320+673500481+670683300+667826350+664939072+662044641+659163861
5966.56+656280548+653373160+650476931+647610498+644718233+641759631+638758848
5959.81+635719154+632620930+629482731+626319886+623113798+619850282+616542746
5953.06+613193275+609769741+606255592+602669097+599025952+595316919+591505581
5946.31+587537126+583382331+579055910+574555083+569841512+564885562+559668352
5939.56+554162209+548342447+542174569+535619621+528703478+521454873+513832238
5932.81+505823515+497475259+488819964+479859347+470590669+461036124+451216271
5926.06+441158742+430941562+420649911+410335208+400049320+389869293+379864245
5919.30+370088740+360609974+351501641+342821516+334611799+326916287+319786684
5912.55+313261901+307334479+301975500+297213678+293097590+289593107+286631787
5905.80+284187512+282210560+280605575+279305932+278272781+277450046+276769181
5899.05+276167958+275582655+274950879+274224195+273366452+272343724+271109601
5892.30+269604959+267762377+265562095+263045189+260213518+257049611+253581116
5885.55+249842308+245847327+241621903+237215636+232665312+228024167+223360134
5878.80+218710917+214108357+209607101+205288731+201217236+197429706+193962193
5872.05+190853587+188143984+185846321+183959290+182487347+181433760+180780382
5865.30+180483235+180516281+180861066+181485035+182356369+183432763+184657179
5858.55+186001230+187443459+188918285+190367585+191758273+193058856+194248979
5851.80+195313888+196227484+196960115+197506793+197878412+198093976+198161805
5845.05+198064895+197779866+197302530+196676721+195940780+195077049+194047475
5838.30+192841595+191489736+190016403+188410375+186665889+184807653+182843863
5831.55+180778482+178629577+176397474+174091984+171735158+169361348+167010530
5824.80+164683377+162356991+160035662+157747881+155492664+153260368+151065450
5818.05+148910680+146784469+144690794+142662455+140718161+138841072+137043584
5811.30+135381478+133871062+132495406+131272338+130235704+129414327+128805920
5804.54+128369211+128080995+127939982+127937080+128075487+128360853+128755217
5797.79+129221672+129771722+130433121+131218253+132112445+133092593+134153894
5791.04+135308857+136555702+137889791+139323641+140845889+142437193+144108669
5784.29+145876636+147739337+149699715+151781323+153986214+156281761+158648234
5777.54+161097659+163652863+166307134+169020916+171788640+174639766+177574314
5770.79+180562937+183580948+186646965+189798896+193016164+196249719+199490039
5764.04+202750694+206037609+209343040+212664758+216012043+219376270+222740538
5757.29+226119459+229533939+232954080+236353172+239749137+243132840+246470295
5750.54+249747135+252969736+256133174+259198189+262135455+264951512+267652919
5743.79+270214520+272624523+274909229+277075219+279097581+280939774+282574270
5737.04+283998821+285204293+286160969+286867339+287335786+287542992+287487078
5730.29+287209794+286744965+286127045+285413195+284645087+283845322+283047336
5723.54+282288894+281597177+280963562+280386719+279891419+279463130+279056932
5716.79+278657357+278280813+277904678+277496437+277066963+276610083+276097064
5710.04+275508674+274840562+274093013+273278554+272410123+271489864+270534863
5703.29+269562042+268589200+267622039+266654041+265692194+264753277+263852269
5696.54+262982469+262144937+261345357+260585157+259877684+259216622+258567373
5689.78+257915794+257296730+256728756+256192746+255673964+255185796+254761062
5683.03+254420691+254177558+254052465+254075416+254233104+254499209+254899214
5676.28+255441845+256115455+256925581+257894193+259032223+260332357+261792733
5669.53+263415152+265202534+267148320+269254819+271536214+273998228+276607916
5662.78+279326613+282167358+285123793+288174789+291307857+294494470+297722753
5656.03+300976929+304245799+307560549+310948972+314387261+317860497+321400192
5649.28+325018037+328698356+332451327+336305296+340248777+344248989+348303441
5642.53+352431954+356631219+360879532+365172683+369488967+373817228+378187915
5635.78+382613494+387081459+391587191+396146998+400764967+405413060+410075704
5629.03+414769861+419507629+424260889+428999434+433730581+438467573+443205301
5622.28+447915888+452565862+457148476+461670230+466135906+470534754+474844949
5615.53+479078956+483238819+487288856+491234708+495103554+498868542+502494235
5608.78+505999269+509400241+512663389+515768194+518747314+521624415+524371049
5602.03+526964081+529429344+531783024+533999574+536067714+537998928+539792033
5595.28+541449234+543005397+544484309+545869786+547152344+548357570+549513176
5588.53+550609271+551633429+552611728+553575680+554519114+555405938+556230349
5581.78+557016462+557786185+558552515+559301924+560022477+560728601+561429657
5575.02+562098219+562721085+563314195+563874933+564400521+564891366+565376040
5568.27+565880251+566381928+566881684+567393987+567924725+568489469+569088015
5561.52+569701725+570322711+570956817+571624479+572351245+573125586+573925392
5554.77+574733740+575532483+576321416+577115663+577956791+578838833+579692714
5548.02+580498200+581277856+582041611+582782396+583478261+584121972+584727589
5541.27+585281379+585775290+586238751+586671965+587045954+587319232+587503324
5534.52+587673275+587839056+587943446+587967234+587955831+587935394+587869180
5527.77+587736833+587583681+587459263+587348211+587216395+587049633+586820988
5521.02+586545136+586296096+586091485+585909926+585721991+585462897+585161743
5514.27+584899420+584669508+584463262+584285955+584142817+584063605+583970905
5507.52+583736702+583457088+583274631+583150540+583017784+582888216+582823555
5500.77+582865368+582958722+583001843+583013860+583092541+583291838+583676700
5494.02+584112530+584259428+584237397+584389854+584702779+585006303+585231473
5487.27+585426397+585675355+585983130+586336233+586747785+587219011+587752037
5480.52+588318621+588906499+589567867+590452076+591580828+592442843+592847855
5473.77+593357175+594142143+595055903+596049979+597067842+598069030+598992354
5467.02+599835730+600833075+602048438+603219208+604338601+605646541+606933105
5460.26+607927752+608969813+610296882+611731202+613045805+614284751+615607855
5453.51+617019899+618478253+620051542+621791920+623438862+624829815+626392886
5446.76+628346622+630134739+631512818+633064894+635037676+637106347+638872312
5440.01+640440982+642189126+644134933+646220811+648531492+650684362+652363389
5433.26+654042499+656031753+658246668+660594258+662831857+664703316+666409933
5426.51+668254292+670285033+672414523+674540580+676612439+678695375+680823803
5419.76+682975078+685122430+687285600+689501741+691879985+694522025+696837815
5413.01+698699913+700883111+703266423+705316456+707216240+709216979+711358650
5406.26+713612967+715927612+718195826+720346652+722484399+724678714+726907771
5399.51+729184650+731594121+734133651+736485246+738710706+741226284+743557770
5392.76+745380875+747316545+749493775+751680488+753831804+756073042+758472131
5386.01+760571375+762210061+763865995+765641034+767405609+769183672+770955195
5379.26+772804132+774883757+776755665+778092789+779402936+780779217+782035902
5372.51+783327003+784678677+786010160+787335186+788630619+789862126+791066985
5365.76+792343861+793610929+794665128+795583956+796538671+797529599+798522980
5359.01+799527396+800528380+801557810+802731850+804022215+805052709+805512777
5352.26+805760304+806291900+807134459+807930422+808440846+808992634+810002118
5345.50+811090815+811419272+811372594+811569766+812025175+812863074+813996731
5338.75+814589310+814562170+814609665+814793349+815102268+815667053+816235271
5332.00+816495061+816667872+817086168+817802429+818458034+818579754+818514112
5325.25+818729677+819109225+819489263+819869547+820234789+820585562+820973367
5318.50+821428285+821888107+822275994+822609845+822947376+823298476+823670912
5311.75+824069180+824491481+825032314+825683587+826080301+826099594+826175209
5305.00+826461402+826768932+827021283+827292599+827600373+827789534+827836865
5298.25+827917222+828073766+828258921+828448246+828634627+828856241+829253528
5291.50+829795179+830047039+829975675+830063307+830446370+831009601+831553378
5284.75+831837609+832009931+832349014+832842680+833295963+833582892+833848322
5278.00+834198360+834554692+834890751+835222559+835546519+835865003+836229264
5271.25+836699877+837188311+837471317+837647971+837990161+838504508+839152429
5264.50+839658929+839844002+840073056+840354181+840583070+840955425+841466339
5257.75+842029080+842780737+843627629+844041919+844128978+844440268+844979548
5251.00+845607360+846441090+847313241+847684369+847801920+848298774+849019449
5244.25+849384201+849494395+849781569+850231337+850705548+851146160+851480012
5237.50+851758848+852097768+852508134+852867001+853147554+853492605+853795802
5230.74+853861199+853893162+854131207+854603128+855172654+855424678+855298952
5223.99+855275000+855460074+855688637+855980389+856389120+856777415+857018812
5217.24+857209281+857459833+857779870+858139063+858527194+858956444+859477004
5210.49+860162283+860842821+861401393+862067216+862568157+862617042+862743421
5203.74+863170055+863680969+864193927+864726177+865315404+866022591+866724219
5196.99+867173497+867484133+867912483+868447840+868999709+869545120+870110395
5190.24+870666352+871117346+871497057+871994810+872668645+873194600+873381881
5183.49+873564502+873946257+874384499+874738542+875036344+875339050+875651893
5176.74+875950757+876215860+876483661+876767648+877078774+877439847+877745415
5169.99+877950516+878181531+878485791+878815310+879192406+879651411+880069461
5163.24+880369388+880718445+881209250+881733325+882250452+882836573+883471578
5156.49+884057617+884583000+885120482+885722625+886363515+886999174+887604996
5149.74+888182533+888769308+889355347+889911058+890451074+890984795+891544921
5142.99+892131042+892648332+893094340+893574681+894090663+894593566+895101619
5136.24+895611144+896103256+896596513+897075465+897517303+897950886+898387411
5129.49+898808813+899209451+899585974+899940753+900292834+900642954+900970102
5122.74+901268476+901564234+901874379+902154279+902393959+902652767+902930378
5115.98+903208070+903506117+903804245+904066896+904303061+904552878+904828526
5109.23+905103112+905374836+905647215+905911174+906168347+906420453+906673212
5102.48+906948125+907265464+907614929+907970444+908329637+908705261+909096172
5095.73+909496729+909901618+910289913+910663411+911058491+911474334+911881349
5088.98+912272423+912654178+913031764+913406162+913787672+914181362+914564752
5082.23+914924436+915263846+915601622+915950678+916301615+916652306+916999074
5075.48+917345924+917713291+918098398+918477619+918844087+919210638+919575962
5068.73+919936299+920318790+920729892+921127833+921500923+921890035+922298848
5061.98+922687470+923047317+923401197+923761207+924114351+924432181+924695322
5055.23+924924538+925151630+925367848+925550878+925703580+925848353+926005224
5048.48+926163730+926308503+926459570+926636959+926841570+927076345+927332048
5041.73+927596660+927873208+928170683+928488349+928815334+929133981+929432600
5034.98+929723862+930013898+930298865+930581871+930856865+931134721+931429089
5028.23+931722967+931995591+932251865+932512227+932781418+933046194+933302305
5021.48+933550895+933789104+934033852+934306067+934587193+934843631+935069250
5014.73+935266586+935432367+935570028+935692321+935808891+935920474+936026091
5007.97+936135222+936258332+936383730+936499156+936627007+936781998+936939687
5001.22+937073260+937184190+937299943+937447576+937619080+937781673+937925547
4994.47+938072200+938244030+938448968+938680392+938925631+939180107+939461968
4987.72+939782495+940112014+940426656+940731978+941041061+941357991+941677374
4980.97+942004767+942349900+942715633+943108342+943538164+944008941+944516503
4974.22+945071152+945694876+946391681+947152493+947965869+948820526+949728564
4967.47+950704696+951734862+952800588+953885852+954975611+956075344+957197884
4960.72+958329334+959449094+960553486+961625343+962654938+963665322+964668675
4953.97+965657560+966630177+967593802+968553830+969512305+970466366+971413642
4947.22+972360917+973322254+974287841+975232746+976153944+977061737+977966750
4940.47+978874215+979777593+980680235+981592197+982505548+983404593+984286799
4933.72+985160830+986025787+986873741+987715810+988562129+989397903+990211115
4926.97+991014272+991822987+992621649+993396848+994161912+994928120+995685989
4920.22+996410588+997097992+997771337+998430702+999051974+999627059+1000176557
4913.47+1000712567+1001229449+1001730554+1002225118+1002709138+1003167980
4907.68+1003597066+1004004408+1004410033+1004826939+1005236079+1005617507
4901.89+1005984793+1006366711+1006767186+1007152293+1007505846+1007858908
4896.11+1008234123+1008613916+1008983001+1009351840+1009730489+1010120418
4890.32+1010525962+1010945075+1011375469+1011824174+1012295605+1012792867
4884.54+1013317597+1013859166+1014405231+1014959961+1015525400+1016094763
4878.75+1016665106+1017234387+1017805712+1018386111+1018967981+1019528923
4872.96+1020057495+1020586393+1021153222+1021740651+1022309605+1022871038
4867.18+1023461982+1024084970+1024729539+1025385390+1026038134+1026700605
4861.39+1027394631+1028106560+1028800749+1029461749+1030108526+1030787755
4855.60+1031539576+1032333577+1033110739+1033869835+1034630075+1035379362
4849.82+1036112462+1036849160+1037600980+1038356642+1039104049+1039839275
4844.03+1040562075+1041267872+1041937456+1042562652+1043158745+1043737918
4838.25+1044296326+1044825061+1045330989+1045833892+1046335405+1046812395
4832.46+1047254724+1047672284+1048080361+1048486477+1048885317+1049268788
4826.67+1049636728+1049992488+1050328792+1050648992+1050974506+1051298385
4820.89+1051607222+1051909356+1052207076+1052498992+1052782243+1053053068
4815.10+1053329044+1053620715+1053922767+1054232177+1054535701+1054828352
4809.31+1055115854+1055401721+1055674426+1055903643+1056099507+1056300357
4803.53+1056501453+1056678924+1056830809+1056971821+1057114305+1057251312
4797.74+1057365102+1057453143+1057525489+1057600450+1057699445+1057816751
4791.96+1057927925+1058033215+1058155507+1058307392+1058485844+1058683343
4786.17+1058902913+1059152730+1059438924+1059761821+1060114066+1060488137
4780.38+1060875042+1061263173+1061654493+1062057420+1062451928+1062814636
4774.60+1063166472+1063533022+1063898591+1064235386+1064548883+1064866058
4768.81+1065201627+1065552972+1065899903+1066233265+1066561721+1066893366
4763.02+1067239480+1067587473+1067928028+1068283379+1068649276+1069002910
4757.24+1069339459+1069668488+1070001441+1070326055+1070627045+1070926727
4751.45+1071243248+1071545137+1071805417+1072045016+1072282325+1072507700
4745.67+1072713210+1072894605+1073043546+1073162896+1073271537+1073366608
4739.88+1073429879+1073472633+1073514323+1073562962+1073621411+1073670949
4734.09+1073698743+1073716318+1073734221+1073741823+1073725882+1073692203
4728.31+1073642501+1073566968+1073473859+1073364646+1073217584+1073026870
4722.52+1072801659+1072543586+1072263932+1071970790+1071648465+1071292460
4716.74+1070907843+1070476795+1069982312+1069424312+1068797972+1068090540
4710.95+1067294086+1066403379+1065429535+1064404028+1063327921+1062161565
4705.16+1060884361+1059527373+1058127713+1056675491+1055153294+1053563002
4699.38+1051887857+1050104644+1048218104+1046245076+1044191691+1042060811
4693.59+1039877205+1037659429+1035386637+1033000382+1030438045+1027676165
4687.80+1024713599+1021550263+1018178884+1014557769+1010644657+1006434724
4682.02+1001937045+997146059+992057926+986698559+981115044+975391497+969659530
4675.27+964075524+958798884+953970541+949693658+945997419+942849043+940192616
4668.52+937968137+936135712+934663462+933496207+932553754+931750597+931002210
4661.77+930236738+929418376+928513772+927485322+926321582+925024024+923601066
4655.02+922063092+920413452+918662447+916832802+914962121+913100676+911285173
4648.26+909528364+907822810+906159764+904543395+902977954+901460989+899984324
4641.51+898554827+897171026+895801367+894412580+892960766+891407832+889751326
4634.76+887997623+886127187+884109525+881931233+879595742+877131010+874576521
4628.01+871988107+869459940+867074339+864839804+862680231+860496216+858215659
4621.26+855799403+853251453+850594700+847850232+845043883+842214644+839424481
4614.51+836731350+834142772+831650083+829307808+827183386+825285809+823607232
4607.76+822155663+820931594+819927995+819134076+818535284+818112247+817846981
4601.01+817757305+817882213+818236829+818827200+819657252+820733033+822052826
4594.26+823570773+825212320+826911334+828596370+830185681+831643707+832994646
4587.51+834292123+835600799+836939966+838260169+839495763+840587894+841481952
4580.76+842158730+842653377+843032679+843381409+843803873+844430622+845390405
4574.01+846758184+848529544+850610558+852861687+855144206+857322336+859313920
4567.26+861094436+862632328+863901194+864929071+865773183+866457236+866990549
4560.51+867405084+867729208+867971422+868137449+868223528+868203827+868063305
4553.76+867822317+867516831+867163524+866746863+866249928+865688249+865111938
4547.01+864552957+863992259+863402705+862784867+862141115+861455509+860718485
4540.26+859944920+859149855+858323237+857458116+856567164+855661906+854740135
4533.50+853788772+852805446+851802092+850776912+849703011+848566329+847380109
4526.75+846158411+844903034+843602042+842247098+840842697+839412709+837970868
4520.00+836493877+834963995+833384903+831768370+830130502+828466720+826749558
4513.25+824952039+823068442+821114788+819115111+817072762+814968776+812800456
4506.50+810587830+808358528+806111650+803814416+801455627+799051470+796598019
4499.75+794065847+791439421+788710321+785869148+782930860+779923415+776844605
4493.00+773667128+770394334+767049767+763639885+760155532+756578561+752895564
4486.25+749110630+745236021+741265196+737180825+732986260+728706598+724350666
4479.50+719885849+715287049+710567264+705744153+700812727+695755576+690553571
4472.75+685194367+679683238+674024679+668212274+662242549+656113132+649809268
4466.00+643318165+636650081+629798108+622738010+615469009+607998667+600325063
4459.25+592430744+584291677+575906676+567278643+558386325+549205810+539732848
4452.50+529971445+519920332+509563570+498885137+487888833+476578787+464938405
4445.75+452954892+440641819+428004010+415019269+401690662+388050480+374113599
4439.00+359884884+345395890+330694641+315822705+300834057+285816838+270873743
4432.25+256106647+241612257+227464410+213721656+200435660+187631537+175317831
4425.50+163506190+152194254+141361606+130988730+121053237+111536929+102447970
4418.74+93806674+85622100+77888918+70607047+63797895+57483077+51662120+46324998
4411.03+41466040+37065631+33088570+29513264+26324184+23493155+20994844+18801491
4403.31+16875002+15196578+13760217+12540700+11509437+10653208+9950273+9372653
4395.60+8914465+8563126+8285530+8067080+7907280+7787672+7681721+7584463+7500392
4386.92+7421481+7342290+7264811+7183513+7092373+6994650+6897695+6814953+6753578
4378.24+6706214+6673561+6661668+6672060+6702814+6743232+6788517+6842479+6896527
4369.56+6935285+6951788+6938294+6885373+6791644+6653311+6464271+6230217+5962800
4360.88+5662841+5318866+4938011+4556519+4192225+3829406+3465551+3112805+2769851
4352.20+2444629+2146830+1863815+1597423+1366700+1168454+986494+821483+684407
4343.52+574446+478676+389983+314208+256171+210827+176749+152052+124572+94689
4333.88+81996+87859+98847+110164+117363+119949+107965+96990+115076+148272
4324.24+173267+192805+215816+250380+294052+338110+386301+439699+495983+561451
4314.59+633494+712514+804654+909002+1018206+1121965+1218907+1313980+1410624
4305.91+1511111+1613498+1716956+1829599+1953128+2072935+2191405+2326572+2471307
4297.23+2612827+2751062+2873265+2977765+3081922+3169786+3223267+3262508+3289338
4288.55+3281554+3238961+3172320+3083387+2974300+2843967+2689200+2523612+2356397
4279.88+2176663+1990072+1817989+1660097+1504947+1353212+1213235+1096015+997963
4271.20+903084+807267+715044+638524+582947+532675+481943+439274+408397+387744
4261.55+369367+350533+340972+341754+346302+365583+406530+448756+484156+530128
4251.91+599088+692928+806343+927309+1049914+1185992+1342752+1509225+1683610
4243.23+1880641+2096244+2298422+2481401+2672065+2877051+3081525+3272903+3446424
4234.55+3606524+3760779+3909844+4057361+4209015+4352570+4482375+4612114+4741538
4225.87+4857221+4958977+5056978+5153560+5238428+5303507+5355220+5399505+5436322
4217.19+5466026+5487795+5500789+5501328+5489867+5474350+5460630+5449653+5443682
4208.51+5448623+5461572+5472966+5480923+5490424+5507136+5532379+5555547+5570845
4199.83+5593515+5620096+5627971+5620541+5617685+5630679+5652580+5666764+5673474
4191.15+5685099+5699519+5702698+5690562+5671550+5650321+5617501+5559497+5474449
4182.47+5378803+5282877+5177189+5055685+4920007+4776435+4630051+4482897+4348131
4173.79+4232522+4127172+4031164+3957402+3912170+3884762+3871689+3883464+3920754
4165.12+3975199+4045449+4136745+4245235+4356929+4473773+4609139+4757172+4910017
4156.44+5073777+5240479+5391216+5529177+5676406+5837925+5990350+6119161+6233398
4147.76+6340169+6436691+6520521+6593416+6653439+6695912+6716397+6719060+6716704
4139.08+6706680+6685673+6661138+6629348+6591874+6562512+6540447+6516049+6487938
4130.40+6461536+6439924+6411218+6375574+6353659+6343283+6330877+6317184+6308059
4121.72+6304639+6299555+6291809+6292079+6301197+6308324+6310810+6308870+6301607
4113.04+6295150+6299836+6321459+6359360+6409931+6456395+6491034+6522618+6553921
4104.36+6592285+6638773+6684997+6729585+6770178+6796055+6803556+6802169+6801838
4095.68+6814599+6835475+6847872+6851615+6852126+6848948+6832982+6795562+6741364
4087.00+6685507+6626342+6542413+6423142+6283453+6151182+6020385+5862512+5674087
4078.32+5472820+5272739+5068228+4854443+4645624+4463746+4305719+4156211+4029825
4069.64+3947773+3909712+3904229+3928354+3977853+4043731+4123335+4217064+4327067
4060.96+4452346+4605402+4803418+5051853+5351782+5705346+6131509+6646582+7241166
4052.28+7888215+8574445+9303701+10074827+10883734+11710290+12530780+13334689
4044.57+14120899+14894106+15656181+16403940+17128241+17840421+18564036+19306673
4036.85+20072595+20871231+21710274+22582670+23475122+24376428+25277231+26169875
4029.14+27047764+27898540+28706940+29481800+30224025+30913680+31544966+32115240
4021.42+32625278+33090100+33519401+33911055+34284958+34669880+35067226+35490314
4013.71+35977826+36548226+37193193+37915649+38738975+39664914+40667742+41757961
4005.99+42968976+44291830+45694432+47148985+48632347+50127676+51620056+53098984
3998.28+54551028+55971180+57400008+58873622+60367387+61880347+63454755+65117111
3990.56+66861490+68656689+70510336+72458815+74511382+76653666+78852584+81086582
3982.85+83343847+85586637+87774903+89887063+91882071+93712615+95361948+96809991
3975.13+98034980+99044025+99840509+100420315+100824408+101090236+101215155
3968.38+101238524+101217035+101167211+101102866+101047524+101016051+101022734
3961.63+101078587+101193318+101379363+101624050+101913258+102247283+102620363
3954.88+103018764+103434372+103866677+104319009+104809610+105292505+105728887
3948.13+106171155+106614465+107042284+107472770+107908437+108322748+108659593
3941.38+108951039+109254226+109548543+109809477+110075991+110393748+110763650
3934.63+111155092+111567206+112006296+112421311+112815226+113191341+113516211
3927.88+113818938+114148661+114516489+114828177+115018595+115164675+115313208
3921.13+115432732+115457705+115438791+115411048+115264038+114998250+114745838
3914.38+114527024+114306942+114091306+113894706+113730611+113608707+113551883
3907.63+113575303+113644511+113718390+113777349+113854150+113976432+114105499
3900.88+114263177+114515681+114741873+114865515+114978580+115087333+115190589
3894.13+115287642+115378912+115412714+115289001+115168579+115163786+115266613
3887.38+115483108+115778896+115984304+116166874+116486308+116924100+117534459
3880.63+118279842+118876303+119466900+120213223+121029398+121916723+123027369
3873.88+124029057+124736366+125463888+126421310+127448473+128057390+128511644
3867.12+129068428+129830579+130696650+131290251+131789853+132394101+132935660
3860.37+133375036+133852475+134388864+134876358+135218435+135564436+136075831
3853.62+136348097+136325177+136269641+136263336+136286961+136291202+136305058
3846.87+136343213+136418889+136541018+136635200+136702927+136881645+137137255
3840.12+137284644+137419913+137583906+137667737+137782274+137899273+137928140
3833.37+137982133+138065617+138018337+137901726+137800769+137690504+137545261
3826.62+137360882+137245559+137291653+137541480+138098826+139146027+140232874
3819.87+141083924+142069488+143313697+145257531+147653841+149246493+150656770
3813.12+152342112+154116619+155824697+157402564+158793170+160241438+161981377
3806.37+163296071+164230891+165279880+166458875+167838129+169257071+170088032
3799.62+170724130
##END=
