##TITLE=30
##JCAMP-DX=4.24
##DATA TYPE=INFRARED SPECTRUM
##DATE=16/11/2015
##SAMPLING PROCEDURE=Instrument type and / or accessory
##ORIGIN=Default
##XUNITS=1/CM
##YUNITS=TRANSMITTANCE
##RESOLUTION=4
##FIRSTX=3996.3359
##LASTX=399.24785
##DELTAX=-1.9287336
##MAXY=1.0724653
##MINY=0.022654161
##XFACTOR=1
##YFACTOR=9.9881115e-010
##NPOINTS=1866
##FIRSTY=0.13627958
##XYDATA=(X++(Y..Y))
3996+136441792+136535095+136592339+136693966+136791834+136851629+136977247
3983+137168193+137292020+137336031+137397139+137536108+137737305+137910826
3969+138016631+138131387+138308161+138500078+138649640+138766007+138860504
3956+138936724+139042932+139159836+139212187+139250528+139387559+139595036
3942+139760889+139875988+139974259+140046646+140123597+140228194+140327926
3929+140444503+140606835+140747729+140838019+140929158+141027921+141111184
3915+141158909+141173485+141213736+141328045+141488736+141625408+141711386
3902+141750115+141707000+141653993+141791963+142094190+142253941+142209140
3888+142233368+142362461+142476606+142603685+142660675+142595614+142555407
3875+142577353+142655424+142784457+142894335+143029366+143173706+143197726
3861+143136797+143139721+143331653+143634984+143685201+143423404+143254089
3848+143309528+143437010+143534848+143637908+143759989+143789588+143747711
3834+143812638+143970077+144098842+144170781+144192398+144251239+144359087
3821+144377646+144405067+144498743+144485704+144443946+144510842+144606308
3807+144626389+144673040+144829704+144850381+144714157+144705579+144799627
3794+144867225+144901225+144915502+144966988+145062662+145142807+145188294
3780+145159874+145048818+144980981+145041597+145187549+145325862+145388670
3767+145368574+145284357+145220967+145235170+145244375+145226919+145304304
3753+145497548+145590299+145504262+145529669+145654480+145576812+145422447
3740+145408408+145435471+145431458+145423297+145356669+145244613+145186579
3726+145193218+145212001+145153459+144952158+144699969+144536040+144524060
3713+144576664+144490194+144225235+143914549+143626987+143291685+142846669
3699+142346036+141797617+141188061+140595303+140015540+139305833+138532736
3686+137984481+137682135+137467675+137366943+137384562+137241013+136930297
3672+136792924+136682852+136366855+136049023+135828909+135597308+135330126
3659+135051023+134687390+134273226+133966568+133627104+133017473+132295980
3645+131722691+131265547+130794378+130296728+129776924+129181735+128583591
3632+128117585+127581429+126761889+125946840+125296898+124675780+123972921
3618+123170784+122393897+121688517+120950524+120108456+119120602+118082470
3605+117179855+116381395+115526975+114591433+113613895+112550431+111430492
3591+110420878+109448486+108269103+107048409+106078494+105232428+104270525
3578+103144476+101924066+100725690+99652887+98673753+97599413+96365173+95165857
3562+94082760+93010987+91898462+90779478+89639749+88410014+87165144+85978979
3547+84732946+83445124+82295593+81250524+80144072+78958527+77799507+76719983
3532+75655938+74526674+73324353+72103599+70967040+69950690+68931700+67820510
3516+66677596+65598303+64652274+63809005+62941785+61955593+60826057+59670085
3501+58653083+57762074+56893443+55995919+55069668+54141742+53226005+52325057
3485+51452223+50575738+49659718+48788118+48037888+47309021+46434804+45412166
3470+44432725+43643385+42988960+42332249+41612718+40874523+40190731+39563354
3454+38955994+38346263+37699308+37037484+36450477+35926857+35346632+34679074
3439+33974358+33291430+32729499+32273954+31815254+31374621+30999147+30618139
3424+30155553+29631510+29155159+28798444+28463050+28048760+27625304+27278113
3408+26981041+26646268+26190283+25645546+25227390+25055252+24937743+24707156
3393+24457569+24342048+24312636+24199506+23973417+23729941+23535372+23425235
3377+23375947+23288196+23100492+22854358+22681125+22698735+22848549+22956732
3362+22965034+22961220+23019874+23119497+23147567+23063868+23050452+23229660
3346+23451772+23573525+23623345+23664195+23786183+24074319+24431093+24716419
3331+24931746+25097584+25253968+25505345+25854927+26191682+26480812+26759415
3315+27033878+27295043+27535209+27758923+28014590+28394867+28928522+29499662
3300+29986939+30379450+30734376+31136662+31655655+32262933+32837012+33320388
3285+33791049+34330733+34932345+35544326+36134622+36692283+37231235+37851101
3269+38614680+39412031+40158110+40896529+41673259+42473132+43236875+43999044
3254+44855777+45756968+46616606+47503280+48494712+49533724+50563049+51583360
3238+52584523+53573646+54588418+55694199+56910567+58155873+59412734+60739621
3223+62086320+63364303+64622100+65968352+67407607+68842141+70224176+71619734
3207+73073566+74569514+76104683+77666625+79224031+80772963+82333360+83917337
3192+85516702+87119872+88735895+90368790+92019947+93710810+95413690+97078438
3177+98732265+100418727+102140882+103881134+105609392+107327429+109041827
3163+110713161+112349541+114019234+115707613+117322561+118880049+120515250
3150+122249721+123953937+125559561+127098863+128592901+130087103+131658555
3136+133273198+134837011+136350101+137853657+139347382+140820131+142242349
3123+143564686+144828287+146139613+147527682+148948811+150325512+151595603
3109+152813149+154067933+155325700+156516139+157667684+158826241+159961539
3096+161024943+162020078+162986181+163974081+164982300+165925517+166771479
3082+167580873+168406649+169271766+170155204+170992348+171733638+172381969
3069+172984140+173585342+174172848+174682880+175102310+175497780+175918046
3055+176320274+176607702+176783834+176948300+177096430+177145394+177091193
3042+176997786+176898859+176747581+176485397+176109142+175651833+175132864
3028+174508851+173714017+172749212+171673992+170509975+169201021+167670387
3015+165890503+163896622+161694727+159201197+156321208+153018851+149282189
3001+145056337+140266669+134840875+128631645+121520127+113477335+104448731
2988+94440038+83646343+72445369+61478218+51643909+43784089+38287109+35005504
2972+33458485+33029283+33217865+33902158+35416851+38361532+43061485+49147764
2957+55648517+61379679+65433255+67402639+67234861+65136071+61575068+57302329
2941+53400415+50943190+50371696+51383846+53362972+55831859+58640939+61816195
2926+65350911+69178324+73200063+77272482+81187305+84689681+87524003+89482690
2910+90499599+90737548+90509871+90077894+89556583+88995446+88370926+87502385
2895+86156865+84181998+81543293+78221973+74138641+69411872+64601214+60743817
2880+59102153+60417515+64379526+70020824+76504771+83409833+90539448+97718451
2864+104713116+111307448+117428396+123196385+128843702+134573215+140493317
2851+146547854+152504223+158132243+163327958+168051266+172322457+176228463
2837+179845043+183244851+186545209+189858860+193200932+196490564+199651819
2824+202684592+205612828+208403050+211011858+213463466+215834302+218182567
2810+220537858+222948707+225436880+227943852+230379273+232706770+234959792
2797+237131536+239128400+240888472+242437128+243819036+245088202+246284533
2783+247360454+248275176+249095522+249863935+250554441+251174112+251729602
2770+252207067+252620261+253013553+253417676+253785934+254106630+254456896
2756+254839118+255204452+255534220+255808429+256026901+256200945+256343480
2743+256495564+256724718+257137703+257820034+258728714+259759908+260835381
2729+261849121+262703108+263446875+264248557+265230996+266437129+267864897
2716+269426488+270969460+272366466+273577075+274645238+275627618+276577742
2702+277540966+278519616+279484481+280390804+281224293+281998971+282693446
2689+283297363+283826775+284243878+284519430+284726355+284976097+285388635
2675+286053421+286926504+287921356+288990534+290048254+291024338+291938926
2662+292835134+293724270+294588910+295401274+296136805+296825551+297563440
2648+298384367+299189808+299886222+300519530+301162355+301788710+302373173
2635+302935764+303486898+304041493+304607785+305141703+305605292+306029735
2621+306447971+306843441+307211700+307579033+307927508+308231317+308532708
2608+308830967+309080351+309325469+309609137+309888120+310138489+310374058
2594+310582296+310746464+310905678+311117049+311368015+311613222+311841600
2581+312067801+312342458+312681773+313025027+313368400+313761722+314177959
2567+314574086+314968392+315364698+315726451+316045686+316333203+316550422
2554+316682246+316826571+317048922+317310271+317584541+317883575+318233513
2540+318667473+319186711+319757508+320346267+320937622+321553564+322220767
2527+322909364+323578924+324235922+324895994+325543474+326172246+326797527
2513+327418809+328055160+328735044+329448704+330158396+330846247+331536753
2500+332236449+332943665+333656430+334335986+334961237+335560529+336173547
2486+336802527+337420498+338020894+338614636+339228668+339893007+340589898
2473+341269573+341926900+342592760+343273301+343953752+344632621+345321277
2459+346012231+346699336+347388649+348056896+348667885+349238294+349837287
2446+350461255+351029815+351544039+352041614+352508814+352976283+353471382
2432+353930526+354340348+354762224+355178700+355527265+355810904+356074491
2419+356363022+356692640+357040161+357396723+357776080+358204074+358710869
2405+359267463+359809168+360321901+360827353+361338206+361856548+362384558
2392+362913433+363400415+363783473+364043659+364222566+364367727+364495254
2378+364616246+364765017+364955860+365141212+365277929+365370694+365429087
2365+365586302+365923648+366520613+367588747+369055304+370176579+370092943
2351+369041728+368476869+369290486+370799801+371968696+372695008+373265536
2338+373731961+374135636+374570283+375080748+375597420+376050357+376524898
2324+377186342+378009925+378750946+379221101+379520224+379888781+380443048
2311+381114040+381786196+382441345+383084081+383700798+384297554+384893564
2297+385496019+386093580+386668137+387227894+387755516+388197652+388547441
2284+388876223+389236455+389608353+389952472+390251984+390512528+390742488
2270+390942938+391116385+391287953+391489059+391733341+392015547+392333558
2257+392705845+393157887+393692849+394273970+394843156+395399183+395901711
2243+396410833+396950808+397496780+398017211+398516636+399042199+399595690
2230+400123431+400622379+401145763+401690452+402201574+402672862+403144806
2216+403616661+404053695+404459728+404856839+405235212+405552895+405835161
2203+406178534+406623147+407153961+407760653+408451995+409216022+409986792
2189+410711194+411385438+412027309+412667359+413331966+413988279+414586765
2176+415130201+415636936+416137614+416684571+417297439+417926032+418502916
2162+419024361+419533663+420070713+420646732+421241011+421819655+422366821
2149+422891250+423391391+423855309+424282825+424699331+425156714+425670133
2135+426219268+426817247+427479527+428181849+428887483+429576498+430273031
2122+430997881+431710318+432390918+433069011+433756385+434430600+435062624
2108+435678088+436322584+436997068+437668687+438308051+438956635+439640905
2095+440318999+440952724+441562907+442158827+442710767+443201121+443647793
2081+444066208+444447983+444791863+445114470+445422306+445701737+445950197
2068+446199342+446517801+446988462+447615175+448325613+449094832+449911641
2054+450726899+451534519+452364577+453207673+453992706+454641350+455155306
2041+455603320+456044800+456513313+457028164+457603765+458265717+459022224
2027+459831455+460661423+461515739+462372770+463224042+464089070+464941386
2014+465744023+466506528+467250384+467956853+468603946+469219141+469833949
2000+470441477+471007947+471528855+472053463+472616980+473182138+473682130
1987+474124982+474588244+475110942+475635043+476106958+476574665+477098617
1973+477658583+478190382+478672232+479147638+479662847+480195243+480693176
1960+481147427+481545672+481859327+482096567+482266463+482316650+482180351
1946+481879020+481502496+481141907+480852241+480608228+480370212+480156185
1933+480019379+480006370+480186351+480725938+481787328+483331583+485172008
1919+487193907+489262979+491159260+492825611+494342535+495735930+497001888
1906+498158371+499210094+500177018+501100169+502004791+502890019+503730848
1892+504530978+505325022+506122586+506884763+507584698+508260345+508950135
1879+509648041+510323032+510951117+511564821+512267919+513119131+514027155
1865+514869894+515608439+516298229+517025317+517811065+518584043+519251037
1852+519802499+520291779+520818953+521472938+522178483+522815579+523407203
1838+524033021+524704431+525400070+526167020+527022888+527862642+528636515
1825+529419638+530232778+530997461+531688803+532371133+533090403+533847209
1811+534616129+535343276+535975658+536513813+537063186+537757750+538527387
1798+539157382+539676619+540295157+541010786+541651165+542150292+542572317
1784+543018691+543527187+544020823+544391587+544675047+545074217+545671211
1771+546279544+546717384+546996308+547261088+547621767+548046121+548465222
1757+548851502+549230442+549680277+550260025+550927019+551524014+551949143
1744+552280700+552605455+552838667+552983679+553284086+553801175+554272373
1730+554520504+554619626+554639975+554525637+554299406+554136671+554119067
1717+554107012+553916826+553532396+553035477+552477272+551793151+550991588
1703+550260562+549568743+548765689+547839404+546659320+545217259+543571108
1690+541696996+539858212+538152803+536287762+534245066+532149200+530038952
1676+527921125+525914592+524222610+522747490+521344755+520159658+519240355
1663+518466959+517763981+517102775+516647570+516639812+516879887+516927508
1649+516873382+517027107+517443702+517963238+518512850+519330286+520814060
1636+522982373+525222654+527196066+529256664+531697873+534448202+537296936
1622+539959183+542411730+545151795+548337457+551359846+553918616+556234507
1609+558446024+560549112+562553436+564455535+566227423+567898996+569528259
1595+571121657+572639028+574078403+575472365+576830582+578132524+579315533
1582+580334852+581348502+582651458+584087253+585119402+585798093+586538070
1568+587324475+587801701+587861078+587882680+588425967+589432038+590067404
1555+590013755+589619001+589187964+588760389+588255295+587719945+587452598
1541+587521106+587351926+586585452+585500132+584367012+583197788+581883434
1528+580381041+578824105+577292411+575638204+573847996+571968692+569898546
1514+567578299+565002343+562293907+559465224+556175965+552334767+548044211
1501+543064820+536995574+529601828+521128491+511505086+499661122+485450633
1487+470511864+456207327+442735204+430092990+418824717+409184006+399940824
1474+388701970+374882655+361446428+350926606+342854139+335147902+326543905
1460+318524968+315672236+322420322+336962189+353824333+369612883+382902070
1447+392837161+399076482+402329190+404064198+405802697+408220663+410709135
1433+412413678+413262235+413648933+413942328+414391477+415178687+416484658
1420+418464455+421069623+424034187+427212449+430615390+434176501+437760110
1406+441260620+444492262+447157046+448998754+449673446+448503715+444843990
1393+438690392+430185517+419232271+407290260+398041051+394924822+399732228
1379+411899901+428275510+445346787+461103858+475070691+487706013+498873345
1366+507569421+513279659+516238971+517108743+516741082+515773382+514415882
1352+512610457+510373935+508305698+507707450+509447650+512815860+516382252
1339+519578537+522709775+526156577+530129479+534748191+540020589+545803930
1325+551955827+558408011+565078071+571825351+578478941+584932319+591157736
1312+597070991+602441555+607037411+610754484+613675724+616084708+618247650
1298+620296909+622347840+624538889+626905862+629305954+631487037+633143035
1285+633892739+633339129+631362136+628370241+625417373+624078969+625732401
1271+630682849+638010773+646323881+654515609+661961452+668412025+673741294
1258+677820837+680566988+681891846+681611072+679545402+675631518+669911076
1244+662675052+654642121+646902496+640773633+637763955+639244088+645706597
1231+656339832+669351020+682805002+695268845+705996905+714918167+722356372
1217+728617177+733873343+738300078+742108336+745510918+748642932+751457173
1204+753908289+756134128+758277974+760250730+761955482+763458054+764882988
1190+766255288+767443667+768325255+768993204+769640743+770296041+770801016
1177+771087041+771226861+771179120+770747010+769815354+768449798+766706196
1163+764550953+762048755+759452091+757006168+754714506+752350338+749616897
1150+746238185+741957297+736637039+730359584+723369604+716050154+708887293
1136+702334256+696578068+691453009+686811203+682737210+679193972+675782139
1123+671958008+667252409+661109762+652511882+639976308+621958338+597094204
1109+564352237+523622632+477017786+429683496+387867139+355116071+331043475
1096+314116971+304400741+303225072+311248425+327202157+347835559+368551224
1082+384011469+388448111+376481961+345535722+299932053+253104319+221836026
1069+214068024+221643616+225998323+212729322+181856856+144688138+113141958
1055+93255963+86346469+92958181+114877719+154547963+212762397+286438358
1042+368420475+449547053+521742493+580325602+624286581+654631380+671879117
1028+674136167+656295135+611665134+539906609+457937680+397672853+384277831
1015+417333782+476408379+541129481+602116502+657432313+706419588+747867448
1001+780631853+804370206+819899764+828816372+832467563+831354076+825426142
988+814542329+798261574+775087036+741846778+693638628+624996601+534135920
974+430260410+336034890+277636447+270539498+314542905+396905902+498172216
961+599741294+689346998+761730804+816575655+856365369+884788614+905261519
947+920152309+931017623+939032294+945125768+949764531+953073960+955302843
934+956750633+957516569+957508871+956571129+954703879+952094206+948680166
920+943943833+937434778+929145302+919263919+907948233+895692359+883871639
907+874646390+869889648+869283404+869373096+865147408+852425348+828691590
893+792878180+746553570+695943299+650215804+616037087+597201083+600813844
880+634857813+695238292+764041920+823553641+866180214+892483782+905615753
866+907819334+900305044+886040907+872439467+869024710+879561868+898371674
853+916882863+930865510+940111825+945447479+947998133+948984093+949093598
839+948397781+946832132+944675456+942358671+939913881+937056793+933770100
825+930388105+927091864+923520101+919180612+914145185+908738159+902768691
812+895648319+887265987+878431195+870697954+865823175+864664334+866398805
798+869017370+870753990+870889811+869476753+867036737+864187049+861104805
785+857556673+853504163+849213966+844744742+839744584+833898226+827627097
771+821916680+817515128+814392125+811651166+808018653+802403478+794349123
758+784945384+777489934+775477136+778929488+784315628+788409015+790398301
744+790689995+789802201+788238701+786327530+784196455+781928127+779519500
731+776969741+774511883+772208584+769784621+767055716+764559665+762146026
717+759749455+757512635+755324331+753030043+750720001+748565951+746560254
704+744535402+742413755+740285783+738295304+736516434+734897078+733325282
690+731808985+730442772+729205399+728032117+726990241+726104476+725264960
677+724255189+722607129+720703895+720949221+723704264+724350969+721843818
663+720555124+721260131+722059844+722485152+722933077+723608127+724652927
650+726026480+727332003+728319694+729290795+730663035+732500983+734587242
636+736668189+738633307+740611433+742823011+745290954+747865777+750529636
623+753156078+755583621+758179867+761413568+765004487+768415604+771564863
609+774791403+778310174+781872270+785375645+789070221+792893099+796499951
596+799934281+803748984+808203050+812695011+816816148+820961572+825243773
582+829270921+833023799+836967043+841302833+845678724+849792819+853876718
569+858172704+862406926+866362702+870268588+874347892+878584322+882893377
555+887184589+891402758+895518106+899467556+903456870+907582601+911531156
542+915242142+919023546+923190990+927427003+931038271+934240821+937749507
528+941543860+945119264+948282488+951284886+954358537+957411480+960344536
515+963228418+965999693+968607337+970993227+972743870+973696233+974404880
501+975134713+975421574+974907647+973457232+970967208+967620542+963729037
488+959458174+955114865+951788846+950963473+952586052+954669864+955348316
474+954018267+950745120+946004312+940956294+937846241+939505044+946964433
461+958373272+971182578+983201838+992436934+998842691+1003168754+1005337126
447+1005502547+1004322760+1002726319+1001173500+999365688+997772290+997318219
434+998055809+1000161223+1004389000+1010701962+1018211657+1025886057+1032724999
420+1038933648+1045519207+1052096770+1057597069+1061131893+1062580936
409+1063546129+1065015939+1066806207+1069276895+1071823253+1073741823
##END=
