##TITLE=30
##JCAMP-DX=4.24
##DATA TYPE=INFRARED SPECTRUM
##DATE=16/11/2015
##SAMPLING PROCEDURE=Instrument type and / or accessory
##ORIGIN=Default
##XUNITS=1/CM
##YUNITS=TRANSMITTANCE
##RESOLUTION=4
##FIRSTX=3996.3359
##LASTX=399.24785
##DELTAX=-1.9287336
##MAXY=0.95539796
##MINY=0.015944673
##XFACTOR=1
##YFACTOR=8.8978369e-010
##NPOINTS=1866
##FIRSTY=0.1694347
##XYDATA=(X++(Y..Y))
3996+190422344+190517517+190574557+190680766+190789554+190843228+190907972
3983+191081638+191353826+191607911+191798391+191989155+192215289+192467347
3969+192747256+193033495+193280881+193452570+193552499+193660668+193832425
3956+194038245+194250043+194452480+194625309+194796513+194975638+195055086
3942+195027973+195072436+195241429+195456828+195688539+195888414+196000619
3929+196074238+196153954+196223202+196340364+196539753+196711794+196783924
3915+196838854+196968240+197121291+197259671+197490109+197765814+197820308
3902+197622159+197444272+197511796+197845362+198181858+198198136+198061431
3888+198174356+198403370+198478246+198509345+198514017+198492464+198646419
3875+198927667+199097230+199048948+198908257+198913365+198947160+198801495
3861+198735194+199087366+199773555+200179267+199664985+198764602+198502093
3848+198851385+199314404+199672621+199919538+199988904+199788611+199533739
3834+199531143+199692215+199813095+199908686+200064416+200297684+200417894
3821+200280787+200206548+200276031+200216964+200189298+200395554+200617886
3807+200601189+200499602+200526481+200467833+200311199+200304618+200332518
3794+200298907+200316692+200400728+200505162+200581394+200615240+200655634
3780+200657359+200568466+200522244+200630061+200774303+200729488+200506770
3767+200339116+200276968+200272865+200304182+200301737+200348495+200590203
3753+200848207+200737777+200390898+200335114+200326707+199890449+199537507
3740+199707388+199937826+199758449+199345537+199086780+199061776+199094651
3726+198991205+198713088+198377496+198069938+197830826+197735418+197728016
3713+197447572+196651221+195693295+194965389+194408369+193725763+192730643
3699+191506156+190170972+188797371+187434103+185894924+183950637+181998328
3686+180709600+180000517+179458570+179088512+178808336+178126032+177168743
3672+176515277+175922250+175171636+174635968+174287899+173830389+173296111
3659+172751651+172056519+171359946+170912284+170251734+168878484+167314336
3645+166236318+165528324+164792547+163918055+162980494+162030490+161185455
3632+160399890+159088520+157134503+155538569+154670424+153905105+152697131
3618+151132882+149692059+148462112+147207867+145818942+144195442+142443795
3605+140896796+139520682+138047830+136487165+134922289+133270119+131617220
3591+130145146+128549213+126480588+124394906+122805001+121468896+119997107
3578+118352013+116603673+114811172+113141761+111600723+109855541+107844232
3564+105988243+104395282+102822702+101193718+99555506+97878668+96121310
3551+94377836+92715743+91010996+89250799+87603084+86093514+84598330+83032331
3535+81460982+79994116+78579100+77136292+75664905+74141837+72597291+71144887
3520+69821920+68541038+67231887+65922100+64666154+63431996+62145973+60802621
3505+59425352+58124105+57003538+55961522+54880469+53779210+52717048+51703171
3489+50699120+49709308+48747380+47707412+46558751+45513536+44659270+43827897
3474+42900996+41874450+40818404+39910883+39224777+38563298+37757300+36893656
3458+36117448+35430354+34763507+34080627+33366881+32623549+31881458+31198231
3443+30566341+29918548+29227996+28535051+27941192+27471128+27046377+26644771
3427+26296001+25954914+25538759+25079365+24659977+24253437+23780922+23297661
3412+22894501+22527442+22176558+21861615+21493383+21058649+20748686+20623712
3396+20484657+20188645+19817032+19574394+19507814+19461532+19330868+19109122
3381+18844780+18623431+18500037+18469141+18425423+18236543+17988315+17919718
3366+18038251+18143855+18168875+18182371+18202053+18197497+18130104+18011770
3350+17992159+18151875+18339874+18422920+18446051+18501984+18653697+18910013
3335+19187567+19428321+19639236+19779510+19848862+19984273+20261138+20571716
3319+20828133+21072607+21353753+21636688+21850909+21987583+22133692+22459403
3304+23033488+23652112+24085067+24341029+24561861+24860520+25295111+25842222
3288+26400621+26928684+27460239+27980947+28470810+28959607+29456090+29929536
3273+30391120+30971521+31752006+32584974+33325057+34034630+34800882+35563660
3258+36245955+36927117+37732419+38647472+39553796+40417788+41338346+42355606
3242+43416676+44499915+45545188+46465588+47379661+48517499+49833960+51128114
3227+52427602+53803313+55147356+56438881+57809573+59278657+60771605+62289373
3211+63843293+65399842+66948868+68516985+70145370+71860526+73642150+75449690
3196+77258461+79068186+80903626+82776647+84681721+86623974+88584329+90522119
3180+92454490+94440963+96479946+98527378+100586683+102676534+104761295
3167+106814169+108863527+110919667+113007969+115186404+117406112+119543458
3153+121604638+123716529+125907264+128086779+130222191+132325105+134388697
3140+136477745+138660216+140865898+143001452+145055030+147072987+149125560
3126+151212330+153246481+155176399+157051254+158938350+160877345+162895269
3113+164920477+166843579+168706393+170594678+172459551+174217713+175897649
3099+177599642+179351824+181080578+182707963+184230311+185756644+187349396
3086+188876082+190246886+191540320+192836668+194191312+195602661+196951276
3072+198157776+199269640+200331781+201345708+202319845+203274253+204206154
3059+205047672+205747342+206346933+206892934+207401790+207857642+208199866
3045+208422182+208566272+208636342+208627734+208513251+208235386+207777340
3032+207168455+206433599+205545709+204456069+203163858+201656666+199888406
3018+197868205+195605089+193019980+190021724+186625644+182892565+178710668
3005+173867819+168313291+162061907+155049859+147223525+138498574+128698947
2991+117759891+105813640+93116263+80018919+66997932+54754448+44168715+35945000
2976+30263627+26850819+25248346+24866574+25104196+25715236+27011542+29624120
2961+33933120+39694336+46036405+51762815+55938578+58135054+58186689+56167894
2945+52566375+48234894+44260551+41696614+41040816+42044004+44062870+46543218
2930+49319804+52496398+56141221+60202104+64543998+68963454+73236388+77139700
2914+80350960+82511099+83562841+83822670+83624026+83115714+82418187+81714748
2899+81021232+80039383+78470395+76240129+73333110+69660387+65154206+60049875
2883+55025606+51094314+49395479+50656620+54657847+60511869+67422204+74993645
2868+83051129+91361886+99602808+107563336+115169372+122456062+129644329
2855+137039982+144793677+152808833+160824994+168552806+175791808+182449574
2841+188530441+194135109+199397469+204418053+209279558+214102612+218974534
2828+223855298+228643334+233272877+237715156+241940009+245938895+249744221
2814+253433724+257098224+260776206+264516352+268378901+272308137+276173216
2801+279906244+283483593+286850668+289963255+292813988+295397975+297730624
2787+299839098+301714019+303369958+304883480+306302549+307623481+308807558
2774+309808992+310650291+311383238+312037039+312647566+313230494+313779660
2760+314324974+314907667+315502519+316037416+316488947+316887458+317237670
2747+317521598+317763591+318019685+318376864+318982668+319970906+321350921
2733+322984486+324662530+326210886+327563034+328802811+330106929+331646241
2720+333544274+335810437+338301177+340776510+343030917+345011746+346752759
2706+348313608+349831987+351429980+353075770+354626236+355991313+357205601
2693+358321082+359346531+360265469+361034523+361627130+362046507+362337402
2679+362650704+363198530+364137833+365506192+367164241+368867070+370483754
2666+372022262+373507951+374978869+376431767+377781370+379013711+380219960
2652+381441650+382648000+383833014+384988687+386070707+387104965+388138453
2639+389140021+390082707+390957333+391756095+392502909+393227650+393950046
2625+394681653+395397585+396042745+396603868+397104870+397531347+397866085
2612+398183473+398566443+398974030+399345109+399681990+399975631+400209318
2598+400404990+400578019+400726531+400887436+401066394+401231418+401415065
2585+401649690+401896573+402138935+402449055+402847900+403278163+403753240
2571+404292157+404833686+405325142+405767630+406172170+406553431+406908667
2558+407193264+407400123+407560659+407697348+407836816+408000802+408218781
2544+408548059+409032816+409633429+410273095+410959419+411759085+412661076
2530+413577703+414487565+415419566+416348620+417238955+418107217+418998891
2517+419914179+420813390+421701983+422609399+423544482+424525485+425549360
2503+426569584+427568338+428566021+429557507+430515734+431440702+432340749
2490+433205193+434032225+434836413+435645626+436471150+437292688+438127222
2476+439014442+439923600+440810384+441693083+442583015+443472144+444392523
2463+445371717+446379348+447379509+448368717+449329289+450235634+451104432
2449+451959900+452787768+453559668+454281830+454983394+455638166+456225950
2436+456823046+457446300+458018577+458539742+459039504+459497332+459903312
2422+460256672+460538390+460769196+461023549+461345057+461734289+462185753
2409+462707387+463335733+464045971+464748304+465417311+466030518+466612005
2395+467240451+467965896+468748648+469524400+470251954+470879262+471336018
2382+471600687+471730208+471777568+471723844+471523952+471163290+470669523
2368+470115835+469549855+469020518+468779663+469116712+469930949+470775966
2355+471426920+472128182+473169407+474474597+475565359+475935098+475812209
2341+476018665+476731951+477521637+478160868+478804018+479584359+480453391
2328+481385057+482357352+483269525+484089053+484899471+485749312+486595669
2314+487375005+488105507+488883503+489756388+490687183+491599122+492427359
2301+493168813+493853864+494501033+495130182+495767805+496409615+497017797
2287+497554839+498013471+498412115+498755997+499042537+499281884+499467273
2274+499578942+499627206+499640872+499640403+499643250+499664184+499725310
2260+499856874+500082623+500429988+500917324+501516095+502161120+502800351
2247+503430773+503984461+504488209+504989043+505508400+506057164+506639689
2233+507248943+507855216+508430206+508983894+509538151+510083431+510593979
2220+511052276+511473629+511900509+512316402+512651844+512878865+513032401
2206+513172138+513361881+513652507+514085617+514691856+515458565+516346187
2193+517287399+518188619+519005904+519757272+520458702+521150585+521898370
2179+522674423+523398997+524063884+524708374+525343753+525947916+526542399
2166+527143983+527717264+528295771+528920097+529555878+530195277+530815182
2152+531384544+531955347+532531476+533057866+533545135+534015088+534465011
2139+534915136+535414061+536005664+536698284+537467270+538269684+539077891
2125+539901473+540750509+541616092+542479498+543323042+544148398+544973989
2112+545798442+546597304+547363276+548143014+548982271+549821996+550594432
2098+551366299+552194871+553033860+553854092+554665113+555439325+556125079
2085+556698260+557192964+557645433+558029742+558325025+558575458+558826696
2071+559057302+559233748+559395088+559650144+560107536+560771787+561566798
2058+562465339+563476118+564585637+565768842+566968593+568088428+569061828
2044+569878677+570530870+571028656+571459187+571932724+572486110+573133815
2031+573939812+574906379+575952795+577066467+578287989+579580586+580866618
2017+582099662+583237784+584263635+585227456+586199985+587181356+588105586
2004+588945278+589741696+590517214+591224806+591847591+592442845+593052099
1990+593668186+594247295+594780250+595329215+595916296+596484285+597009001
1977+597537132+598110883+598716386+599308625+599872461+600419483+600956792
1963+601473536+601955446+602400044+602762381+602974866+603028658+602921410
1950+602598998+602023774+601230772+600258846+599183089+598187115+597362294
1936+596653028+596049669+595582965+595279711+595297530+595911808+597315537
1923+599488621+602166458+605039095+607901953+610625944+613144216+615400767
1909+617377108+619112560+620648658+622034300+623340026+624598593+625780525
1896+626873029+627903904+628873017+629769782+630642700+631501015+632312237
1882+633125335+633945198+634702562+635434739+636214678+637002186+637720094
1869+638387092+639154169+640082486+641015693+641853442+642667143+643519897
1855+644351350+645050903+645611591+646137579+646713272+647227605+647534342
1842+647852735+648439347+649208099+650022603+650904565+651842126+652718862
1828+653499337+654256165+655047960+655903596+656763987+657527648+658227268
1815+658953349+659691621+660366992+660982610+661630382+662322433+662952788
1801+663466249+663951509+664510522+665114283+665596729+665870910+666149445
1788+666573344+666989740+667301903+667570390+667819987+668061344+668316634
1774+668489061+668466754+668390723+668441634+668593629+668764917+668867944
1761+668895409+669000044+669249908+669607288+669970295+670143391+670154846
1747+670235031+670381801+670433783+670329617+670162818+670086385+669932514
1734+669354342+668647286+668246297+667973724+667504340+666766939+665955583
1720+665099211+663775934+661887414+660053154+658589538+657203963+655556130
1707+653537453+651447434+649459906+646881881+643477092+639978253+636512037
1693+633159766+629993053+626729273+623293938+619080406+613717766+608679748
1680+604775833+601155076+596988167+592579031+588671499+585100849+581777585
1666+579235599+577240970+575234016+573502248+572585252+572366269+571936944
1653+570699077+569767209+569895960+570387382+570931993+572007884+573752782
1639+575978518+578598545+581670069+585195905+589111810+593440226+598118988
1626+603024169+608061116+613017743+617745273+622522641+627497891+632310629
1612+636793787+641012946+644932938+648549609+651954732+655205985+658266724
1599+661090728+663692132+666144220+668461529+670610631+672614303+674534374
1585+676355906+677990274+679463336+680884884+682225176+683318684+684202387
1572+685024193+685715708+686244242+686744038+687315712+687870170+687973532
1558+687426175+686863745+686590234+686322484+685890346+685333141+684724222
1545+684045837+683142506+681754921+679976328+678409685+677013793+675297901
1531+673323369+671320568+669118880+666667328+663983596+660775752+657241208
1518+653827242+650455009+647040843+643616427+639930022+635037300+628399614
1504+621531021+615336660+608509063+599513138+588109539+575434042+561607192
1491+544510836+523597950+501619691+480891491+461661842+443850391+428217550
1477+415034520+402447246+387182202+368726697+351235917+337794348+327490620
1464+317806564+307405972+297784114+293804335+300785468+317436825+337643022
1450+357027514+373500850+385856715+393618825+397678386+399879035+401972537
1437+404632455+407297397+409170309+410028958+410202356+410262612+410606862
1423+411353642+412541704+414225676+416521783+419439403+422775998+426373644
1410+430178317+434114050+438033740+441758429+445074325+447559170+448353612
1396+446312963+440970820+433015886+422672937+409240445+394272793+382608477
1383+378672877+384590244+399704230+420267942+441877734+461891141+479738096
1369+496057126+510610357+521995067+529391323+532993457+533780430+532984883
1356+531351017+529076580+526117763+522532644+519194541+517977708+520093216
1342+524494046+529121094+533116112+536923865+541209376+546345832+552417706
1329+559367422+567075305+575388490+584147613+593212736+602399307+611462823
1315+620258588+628706016+636622365+643729636+649735360+654444400+658000447
1302+660856070+663393434+665798094+668203425+670790560+673654088+676659562
1288+679478073+681606677+682434445+681439409+678492616+674114361+669704956
1275+667403524+669097578+675288121+684851164+695931280+706959681+717006711
1261+725675333+732760967+738055012+741405741+742670605+741580177+737923582
1248+731684205+722806581+711474189+698905471+687076297+677693585+672475370
1234+673456742+681648746+696038058+714165558+733330765+751405679+767167370
1221+780439059+791631513+801055221+808919588+815571141+821377509+826610260
1207+831379858+835603974+839276915+842612505+845780693+848709399+851214407
1194+853355404+855323840+857172502+858736600+859888991+860774101+861596376
1180+862362248+862904514+863115592+863040365+862627385+861645411+859960132
1167+857650125+854781306+851317970+847357116+843272938+839405866+835702982
1153+831854132+827515265+822280906+815720792+807592962+798026435+787477466
1140+776558858+765945111+756274017+747813258+740324022+733543451+727526005
1126+722292851+717384723+711975057+705289541+696548974+684487956+667239471
1113+642833005+609723819+566999810+515019862+457017277+399694517+350376932
1099+312712243+285774944+267291606+256644935+254815431+262511809+278614602
1086+299863884+321470226+337599480+341753694+328084132+294395067+246373629
1072+198549856+167019338+158279592+164467924+168851873+158109125+131939607
1059+100632569+74750714+58897693+53243161+57715070+74147213+106075830+156755402
1043+226249576+309629665+397794643+480836997+551531692+606573518+645379545
1030+667501393+670583300+648949392+594878923+509008043+412840268+342704687
1016+324405431+356436146+418258408+489750660+561239027+630026680+694148266
1003+750701302+797052835+831886621+855602443+869850947+876222022+875409728
989+867487886+852484362+830144134+798825533+754893197+693036536+607995267
976+500052579+382352718+280234669+218443806+208654244+249229302+330270714
962+436547214+551228371+660209638+754349457+829724791+886792561+928749092
949+959475923+982082561+998691247+1010930251+1020167399+1027169633+1032165046
935+1035414222+1037315001+1038104117+1037733339+1036054424+1033051697
924+1028827379+1023199869+1015578802+1005467196+992808178+977821401+960815277
910+942600091+925105827+911301318+903846112+902408019+902221458+896296722
897+878941056+847014005+799698183+740067392+676965294+621730778+581416252
883+559255653+562870749+602168802+673926460+757911466+832402762+886835032
870+920658374+937271480+939447779+928641376+908678411+889518764+884018932
856+897392040+922260052+947030127+965600081+977538511+984160925+987081592
843+987876268+987391344+985674849+982757999+979100265+975237012+971255258
829+966764999+961713650+956529398+951277421+945498586+938893053+931661520
816+923916459+915259492+905157398+893629268+881660761+871159151+864328808
802+862164567+863419650+865553881+866619791+865921979+863546860+859962209
789+855668627+850900302+845652545+840061610+834267769+828065972+821108352
775+813221946+804857516+797031600+790727446+786169395+782292946+777316892
762+769775138+759191804+747103120+737651410+734917505+738741101+744862713
748+749426792+751502811+751530544+750062708+747760471+745050882+742128406
735+739077246+735860023+732508155+729188508+725970012+722711257+719182809
721+715624552+712310063+709312426+706420697+703477187+700519073+697600749
708+694722217+691867867+689092764+686481379+683988428+681541833+679196390
694+676983314+674796095+672542358+670347570+668452017+666862999+665412580
681+664062642+662777816+661515498+660408725+659565349+658812607+657798278
667+656782609+656548152+656906537+657214145+657245562+657217293+657389921
654+657896482+658719561+659661209+660584300+661609348+662887877+664395906
640+665989411+667591692+669331097+671362435+673679409+676214495+678866676
627+681549604+684319750+687139065+689879938+692817084+696237079+699854286
613+703326799+706736478+710212005+713841136+717683555+721584924+725587780
600+729764804+733767726+737664071+741998784+746659326+751089295+755342752
586+759764148+764356831+768924192+773406010+778152564+783289054+788324862
573+792869715+797151910+801774335+806854355+811827528+816364344+820827204
559+825463362+830175418+835043554+839914371+844405031+848595587+853046456
546+858050511+863085917+867572022+871711868+876021058+880447545+884664158
532+888679206+892675027+896750967+900724213+904418925+908082688+911953913
519+915745690+919186518+922461752+925499849+928107818+930577055+933034301
505+935099669+936370092+936583314+935874182+934572944+932526869+929578937
492+925871765+921264479+915719632+910125012+906105544+905048945+906944164
478+909888411+911355645+909873004+905240597+898646989+892245301+888589375
465+890668676+899774728+913915315+930067814+945594646+957815095+966015339
451+971297527+974391023+975552926+975387333+974716115+973464984+971142584
438+968620025+967647697+969196656+973413939+980186472+988849802+998062901
424+1006644506+1015057972+1025319966+1036920108+1045577409+1050218725
413+1053220448+1055691695+1058408652+1062567522+1067516781+1071240767
401+1072907423+1073741823
##END=
