##TITLE=30
##JCAMP-DX=4.24
##DATA TYPE=INFRARED SPECTRUM
##DATE=16/11/2015
##SAMPLING PROCEDURE=Instrument type and / or accessory
##ORIGIN=Default
##XUNITS=1/CM
##YUNITS=TRANSMITTANCE
##RESOLUTION=4
##FIRSTX=3996.3359
##LASTX=399.24785
##DELTAX=-1.9287336
##MAXY=1.0255042
##MINY=0.019285602
##XFACTOR=1
##YFACTOR=9.5507524e-010
##NPOINTS=1866
##FIRSTY=0.15292315
##XYDATA=(X++(Y..Y))
3996+160116340+160203743+160348967+160526409+160684474+160800834+160913559
3983+161070266+161243824+161405243+161567832+161759754+161986561+162202010
3969+162384055+162532759+162642207+162765417+162952486+163138790+163252296
3956+163351868+163499807+163631801+163662895+163662396+163799960+164045989
3942+164215755+164290489+164375755+164529451+164710731+164799429+164818729
3929+164940815+165168964+165364380+165500119+165608366+165636855+165566755
3915+165524973+165608132+165770612+165995859+166297057+166521306+166513240
3902+166369685+166251998+166263388+166477402+166752544+166840649+166853381
3888+167033538+167186189+167158947+167158074+167188264+167230951+167420984
3875+167674159+167841492+167828074+167659603+167612999+167693568+167670758
3861+167647620+167880856+168386800+168722213+168312955+167584432+167419658
3848+167747411+168074930+168229141+168329930+168424432+168378749+168261843
3834+168297759+168421655+168495562+168574197+168729624+168957898+169074337
3821+168943732+168889842+168991708+168949583+168928333+169180431+169482799
3807+169545566+169530823+169634701+169589970+169391137+169353084+169398423
3794+169390466+169395755+169458101+169553492+169606134+169612063+169642190
3780+169622578+169500679+169472049+169661084+169892385+169928613+169799927
3767+169707719+169702414+169751498+169780175+169712119+169714131+169958382
3753+170208312+170095649+169848731+169956166+170031384+169591951+169272920
3740+169529075+169803734+169621377+169238689+169044786+169111595+169278162
3726+169296011+169080110+168760610+168485592+168381760+168506686+168709560
3713+168598941+167984344+167281377+166895740+166720108+166370215+165672209
3699+164856267+164084713+163303018+162490399+161543259+160286590+158996922
3686+158220952+157924918+157752890+157659948+157601113+157203650+156551124
3672+156139681+155772752+155236477+154879798+154725353+154484082+154116247
3659+153673960+153107791+152614547+152390813+151970618+150904793+149681637
3645+148901751+148442910+147939774+147285220+146565901+145862201+145245996
3632+144656815+143693137+142295331+141180125+140590413+140040346+139087278
3618+137808328+136653993+135730225+134806457+133739352+132451338+131088138
3605+129937281+128906070+127729774+126476459+125289546+124052754+122742078
3591+121528946+120240541+118597307+116939313+115642179+114509452+113283332
3578+111931318+110504180+109087503+107775072+106507379+105035533+103370924
3564+101866407+100556886+99210161+97789974+96396154+95007288+93532447+92028469
3549+90538969+88980118+87429303+86042668+84760715+83440553+82049167+80671792
3533+79387764+78159475+76919913+75619588+74231058+72841934+71561799+70361118
3518+69146636+67891956+66644905+65484570+64402137+63307854+62162548+60934539
3503+59689957+58591403+57602902+56578540+55498622+54424314+53414278+52478797
3487+51582270+50701349+49744852+48627224+47534158+46662103+45886609+45008770
3472+44004320+43009968+42198078+41570664+40938312+40177979+39365283+38602072
3456+37882796+37182111+36489410+35787776+35101823+34458904+33838815+33195292
3441+32483802+31696636+30929183+30347865+29941043+29520241+29063656+28700617
3425+28403701+28022911+27511317+26969408+26504973+26100953+25717417+25354458
3410+25001264+24679009+24358768+23905093+23351703+22988092+22900264+22787617
3395+22438330+22043141+21894814+21944730+21934614+21756640+21493967+21297291
3379+21196767+21098082+20944425+20707622+20406159+20192757+20205851+20398666
3364+20582708+20600350+20521454+20520128+20594415+20614671+20545618+20514002
3348+20614770+20782588+20950665+21109372+21225451+21335409+21538263+21806235
3333+22070438+22323412+22506409+22614280+22791719+23091842+23427835+23776501
3317+24126069+24409471+24619042+24798154+24960016+25155748+25514373+26049178
3302+26608421+27060464+27393515+27708282+28088249+28542419+29080861+29675612
3287+30250898+30778982+31290248+31818712+32355718+32864496+33367347+33921241
3271+34551932+35278953+36077737+36881502+37679540+38503084+39305983+40008919
3256+40690843+41483331+42337042+43165392+44056263+45112660+46246101+47326599
3240+48354156+49364680+50371345+51445182+52671541+53988743+55258428+56490961
3225+57793368+59150340+60484993+61824724+63221438+64662345+66122266+67613069
3209+69139490+70683699+72279448+73935086+75589305+77232212+78889410+80570425
3194+82287504+84036232+85801405+87593499+89415003+91241086+93083091+94974992
3179+96880560+98738292+100580617+102464630+104398235+106371516+108332253
3165+110236089+112114837+114010638+115926371+117849741+119742788+121589716
3152+123486273+125485181+127478144+129364217+131158394+132938778+134766047
3138+136670391+138617998+140490607+142249102+143987142+145758962+147521669
3125+149193229+150748835+152303036+153947979+155628073+157302879+158975796
3111+160600223+162163379+163722246+165283094+166780925+168187873+169559234
3098+170949457+172336529+173677466+174955276+176169617+177343206+178492611
3084+179624932+180739233+181813795+182878356+183966819+184997945+185909606
3071+186750886+187560275+188346480+189116255+189853063+190522720+191088264
3057+191563519+192009505+192448079+192838256+193117924+193256657+193292542
3044+193297301+193298518+193274522+193174700+192943758+192566265+192037948
3030+191374625+190607705+189698431+188609749+187385984+186024500+184417002
3017+182513954+180369526+177986121+175305480+172265493+168784871+164822036
3003+160360699+155300008+149532418+143019517+135664634+127341407+117987406
2990+107562259+96161616+84055509+71670062+59731229+49182557+40826734+34999645
2974+31512937+29890681+29504060+29700509+30266822+31634054+34450822+39048397
2959+45126343+51716097+57572942+61766329+63889094+63853010+61771376+58091778
2943+53672360+49630270+47011812+46339623+47383836+49455523+51970282+54780318
2928+57993610+61643201+65646114+69901457+74266303+78480784+82228068+85239480
2912+87333662+88463315+88771729+88547644+88077850+87542067+86971054+86272198
2897+85303363+83888769+81839803+79025281+75395847+70969778+65921920+60830782
2882+56787311+55042999+56304949+60280742+66056293+72827518+80151985+87815891
2866+95622814+103288927+110568944+117399878+123905298+130299187+136807470
2853+143581754+150569582+157524491+164168653+170315326+175911886+181024766
2839+185733193+190107518+194244441+198221224+202125925+206052376+209996614
2826+213869378+217598135+221173305+224620413+227926899+231022711+233934106
2812+236806200+239723726+242715550+245784698+248866125+251894192+254835325
2799+257664372+260354966+262862455+265143822+267154587+268869412+270390521
2785+271857616+273262927+274508535+275558835+276493244+277384435+278196835
2772+278888632+279455455+279919243+280358192+280824912+281287451+281722781
2758+282155395+282608542+283064497+283455485+283743812+283973162+284178455
2745+284361155+284556618+284832244+285278557+286017129+287114111+288474238
2731+289883855+291139854+292164505+293060626+294008577+295156422+296619367
2718+298395164+300316561+302197735+303941111+305512397+306887502+308085523
2704+309219857+310402931+311645169+312874769+313998556+314990879+315912182
2691+316773542+317498071+318062180+318512456+318884285+319199572+319514079
2677+319949907+320637210+321642639+322923227+324304230+325610841+326819223
2664+327984698+329111324+330185434+331194764+332124180+333020176+333945099
2650+334883345+335796348+336692063+337574330+338429636+339254580+340035277
2637+340765954+341448576+342081833+342684979+343277889+343862468+344436780
2623+344998050+345524089+345988251+346391815+346739959+347051252+347372437
2610+347702358+348011685+348329437+348664383+348966252+349211548+349416809
2596+349602005+349789199+349993025+350189205+350372280+350559443+350736058
2583+350926091+351164398+351442520+351777466+352185554+352629027+353079085
2569+353538878+353995364+354413281+354767043+355087229+355417650+355733280
2556+355986689+356170949+356330371+356505645+356692995+356899598+357176316
2542+357583031+358126077+358753905+359419802+360119368+360850388+361581002
2529+362305407+363040858+363790881+364546521+365275731+365973581+366692837
2515+367448601+368192727+368922156+369694708+370546894+371444513+372303938
2502+373098677+373883149+374689621+375494127+376267054+377008808+377740701
2488+378460862+379148290+379795308+380417426+381073399+381808413+382586989
2475+383347372+384082479+384829351+385575005+386304465+387068749+387876905
2461+388691240+389513470+390351302+391159146+391890291+392591480+393330831
2448+394054175+394679569+395251260+395839958+396447596+397049025+397619843
2434+398154464+398669489+399161766+399567669+399881677+400198461+400536465
2421+400863048+401172250+401450996+401732520+402070867+402479018+402961247
2407+403521143+404131590+404750306+405366838+405959062+406519769+407071490
2394+407640904+408219866+408775175+409283147+409762131+410243986+410702094
2380+411068306+411338784+411563922+411739570+411833807+411859831+411797173
2367+411585079+411419135+411501763+411833276+412326427+412876494+413188099
2353+412900053+412502200+413249259+415387399+417415451+418057259+417935843
2340+418007051+418450462+419150403+419845569+420358097+420778761+421238585
2326+421762722+422419257+423210501+423946358+424509874+425038098+425642647
2313+426275530+426902858+427566883+428324239+429151649+429962458+430690014
2299+431345676+431983083+432614250+433208751+433776948+434322241+434801693
2286+435206847+435606354+436041216+436466247+436817762+437065711+437214835
2272+437311943+437426306+437578208+437742747+437906382+438087647+438310975
2259+438596961+438966356+439422686+439966356+440587225+441234243+441874678
2245+442451050+442974375+443462657+443945979+444462626+445027109+445618615
2232+446191056+446721277+447241513+447773419+448289223+448782967+449271593
2218+449760468+450251404+450719279+451131174+451467336+451743306+451994749
2205+452230840+452495888+452893522+453481253+454213115+455010319+455835170
2191+456667042+457460002+458173953+458821939+459465025+460158943+460877138
2178+461536389+462127302+462712255+463314215+463893894+464428890+464978177
2164+465593304+466209212+466757313+467291747+467876419+468474759+469029881
2151+469552395+470087390+470645632+471177414+471635709+472062707+472520784
2137+473013841+473555296+474182125+474891208+475641075+476383641+477100619
2124+477833012+478609153+479385668+480134600+480875886+481613178+482337613
2110+483051034+483754844+484465425+485202904+485930336+486616578+487310870
2097+488027505+488729599+489407540+490073344+490710064+491303942+491858471
2083+492362512+492816189+493220096+493547053+493804956+494026162+494210797
2070+494389971+494624471+494938260+495384854+496024040+496804268+497644503
2056+498520029+499426011+500347251+501252515+502135219+502975828+503700419
2043+504298915+504820649+505272329+505695770+506192165+506805202+507510947
2029+508279100+509121425+510066443+511064196+512036237+512985686+513942499
2016+514901809+515839026+516733867+517590796+518384568+519078330+519724287
2002+520400107+521084040+521689026+522208544+522725566+523275321+523819584
1989+524324841+524820363+525350897+525894348+526398358+526865796+527356887
1975+527908078+528473247+528993046+529473528+529962123+530502829+531055329
1962+531531567+531940966+532326587+532638566+532799205+532789282+532624400
1948+532313606+531862331+531261527+530566672+529959314+529511035+529115304
1935+528741042+528477366+528400979+528589826+529202489+530405534+532197839
1921+534370085+536676135+538937189+541067622+543038851+544807815+546381878
1908+547817394+549135395+550330390+551431335+552483851+553491559+554429681
1894+555300214+556132429+556953348+557785002+558596747+559360313+560113331
1881+560843072+561513088+562180295+562908850+563662992+564353478+564985986
1867+565722779+566624829+567511838+568287823+569055134+569863197+570629321
1854+571297340+571895087+572474798+573068363+573567443+573888097+574279147
1840+574929692+575720343+576538641+577387581+578239829+579032540+579781627
1827+580531400+581295028+582116634+582975435+583769144+584496763+585230997
1813+585967665+586656340+587312814+587986636+588646791+589237736+589800347
1800+590414008+591085397+591748797+592265913+592610531+593039027+593637273
1786+594175233+594562164+594929500+595344016+595770452+596187527+596531646
1773+596707700+596825465+597073725+597459096+597889776+598244006+598494388
1759+598782402+599196232+599725829+600257174+600604725+600837696+601191177
1746+601655994+602064581+602310844+602451388+602664263+602831454+602656711
1732+602431854+602547372+602805056+602878947+602723925+602534016+602325261
1719+601730322+600675996+599712599+599144059+598728232+598132607+597201849
1705+596148210+595172955+593824935+591890152+589838915+587780065+585812268
1691+583975216+582032632+579938334+577238737+573616808+570211685+567695256
1678+565406493+562689110+559790805+557270258+554977563+552834087+551223515
1664+549969420+548701845+547684215+547292477+547372360+547210036+546371331
1651+545744252+545883110+546211440+546544139+547304335+548562175+550144101
1637+551976659+554093924+556561986+559378848+562492586+565802537+569223636
1624+572701902+576135608+579466153+582846874+586336560+589740560+592963700
1610+595978958+598734972+601266940+603654807+605930777+608083427+610110012
1597+612020269+613834728+615559694+617195417+618738837+620199316+621599322
1583+622930679+624207678+625463958+626627748+627549207+628302101+629040267
1570+629692683+630236884+630780461+631379331+631951740+632102082+631652180
1556+631253765+631190421+631104734+630826268+630471664+630114189+629721953
1543+629213138+628336738+627058428+625893826+624850110+623533481+622040674
1529+620570334+618931179+617073346+615033280+612569212+609836040+607213829
1516+604664449+602093975+599462653+596569216+592743336+587623857+582388048
1502+577652442+572299992+565108244+555951071+545779637+534644994+520766444
1489+503693118+485717274+468762836+452968787+438194459+425092736+413933566
1475+403137800+389887046+373764199+358437838+346636830+337531050+328874297
1462+319503563+310779410+307179042+313687700+329136007+347774440+365468541
1448+380313609+391354391+398316507+402036699+404094582+405980998+408330266
1435+410762662+412604362+413590102+413964677+414231847+414763410+415685368
1421+417012855+418765687+421078976+424030702+427448307+431118790+434933281
1408+438799663+442579205+446097599+449115915+451281453+452004141+450421404
1394+445985763+439000961+429633722+417476424+403996694+393450499+389818553
1381+395058169+408515931+426730143+445754260+463286443+478846336+493011964
1367+505627339+515490413+521877093+525017699+525818397+525307835+524096052
1354+522358854+520058359+517238595+514614137+513735990+515632485+519418205
1340+523360914+526839959+530298129+534200210+538744909+543992513+549956689
1327+556582581+563728396+571209531+578867157+586584134+594233709+601686012
1313+608844496+615599449+621719708+626928494+631073967+634258601+636832633
1300+639121458+641281285+643448227+645802518+648370683+650975170+653383320
1286+655260625+656104885+655428815+653101609+649586647+646077053+644347531
1273+645975889+651378141+659581091+669028587+678409807+686916248+694220456
1259+700216149+704811835+707887941+709238021+708606136+705856488+700983084
1246+693997596+685135989+675254442+665778549+658255413+654344408+655677263
1232+662895909+675068278+690151309+705917211+720642643+733384425+744032783
1219+752940573+760411785+766668532+772002821+776672835+780821179+784507202
1205+787737145+790601437+793261779+795770843+798035080+799994264+801721852
1192+803325995+804826728+806115772+807103009+807852658+808520240+809211162
1178+809798487+810090496+810107034+809870444+809241618+808104288+806454275
1165+804299627+801642219+798584585+795407065+792403727+789575819+786641754
1151+783277321+779189576+774068162+767671933+760057992+751629998+742910806
1138+734409607+726636900+719847685+713834706+708364367+703543698+699397975
1124+695423938+690913127+685396918+678319003+668444321+654018574+633353868
1111+605024795+567970290+522230356+470445895+418487221+373091063+337943694
1097+312515297+294911750+284878083+283647921+291886226+308327948+329691659
1084+351209332+367187579+371510541+358543339+325658428+277816082+229374460
1070+197173778+188662796+195774630+200400491+188210944+159035740+123985719
1057+94579588+76253306+69792071+75432769+95048119+131759183+187567249+260655821
1042+344525712+429752048+507354988+571579925+620508487+654530635+673808878
1028+676269388+656450814+607081212+528223240+438907942+373284154+357200843
1015+389965493+450966385+519580436+585929658+647553259+703226040+751129858
1001+789603965+817911819+836726992+847791988+852634000+851792986+845229065
988+832882265+814327210+787901716+750215388+696122100+620015898+520814186
974+409550442+310434104+249348135+240306854+282702311+365151382+469764052
961+578199513+677029959+759193762+822877712+869851146+903718521+928196938
947+946094584+959276532+969088931+976562952+982220016+986258272+988984767
934+990733323+991606041+991518482+990367111+988155360+985017157+980817826
920+975017721+967217867+957366713+945550508+931965215+917276417+903107356
907+892000235+886219227+885467456+885732879+881120904+866717624+839658499
893+799034861+747097905+691073080+641138183+604381740+584363147+588289379
880+624951523+690582488+766115781+832031265+879579231+908974987+923462767
866+925534286+916575447+899813445+883620170+879073723+890747388+912264529
853+933687060+949866917+960426905+966438012+969261053+970241300+970171153
839+969179173+967238524+964640902+961783288+958722659+955204701+951255690
825+947274226+943306055+938879558+933704847+927928457+921609240+914467730
812+906091285+896401395+886220974+877323919+871645885+870017402+871467272
798+873850958+875333156+875145868+873312499+870346419+866899857+863161036
785+858881885+854158823+849264575+844060532+838269726+831699690+824551191
771+817712112+812269233+808443790+805170411+800907111+794392618+785118991
758+774386569+765917822+763540252+767227710+773049408+777428975+779474408
744+779674613+778638136+776813504+774530358+772047443+769388598+766551703
731+763715994+760976768+758174135+755234827+752147051+749186025+746171641
717+743275957+740732943+738300204+735736845+733135104+730687262+728400933
704+726042523+723485154+720939332+718659618+716640709+714768459+712958743
690+711101658+709236835+707599428+706279367+705158139+704065993+702922361
677+701710017+700147687+698553466+698782941+700477390+699647858+696969356
663+696500357+697829217+698669233+698816205+698921925+699275281+700006394
650+701071205+702242422+703447776+704784063+706256837+707825159+709530778
636+711455326+713613905+715892121+718201791+720629911+723281641+726155232
623+729004297+731570340+734175201+737395221+741136038+744839036+748254144
609+751573206+755000484+758515383+762156971+766112286+770255637+774148668
596+777760925+781580189+785960380+790696735+795353769+799719293+803843173
582+807871942+811985524+816474930+821272257+825968109+830518862+835093579
569+839685771+844072702+848023648+851735383+855792298+860454949+865375533
555+870161191+874681488+878916392+882987287+887227683+891676960+896023262
542+900245560+904486268+908740269+912884681+916794625+920584870+924438771
528+928206361+931671084+935038762+938583680+942064504+945069340+947818364
515+950852782+954015074+956767218+958952446+960662247+961980186+962934721
501+963471745+963701283+963480856+961931133+958767717+954898901+950738512
488+945874407+940789627+937230792+936562524+938346403+940636726+941673765
474+940664498+937083883+931201774+924837435+920935043+922519777+930378982
461+942594912+956914814+971060909+982285108+989937118+994983392+997722556
447+998232557+997329696+996130645+994671538+992365051+990144501+989700653
434+991139040+994000898+998989882+1006247783+1013969065+1020845402+1028029411
420+1036710596+1045238007+1051434093+1056371465+1061109754+1064541338
409+1066399733+1067889545+1069905958+1072194346+1073444759+1073741823
##END=
