##TITLE=30
##JCAMP-DX=4.24
##DATA TYPE=INFRARED SPECTRUM
##DATE=16/11/2015
##SAMPLING PROCEDURE=Instrument type and / or accessory
##ORIGIN=Default
##XUNITS=1/CM
##YUNITS=TRANSMITTANCE
##RESOLUTION=4
##FIRSTX=3996.3359
##LASTX=399.24785
##DELTAX=-1.9287336
##MAXY=1.1005616
##MINY=0.025013851
##XFACTOR=1
##YFACTOR=1.0249779e-009
##NPOINTS=1866
##FIRSTY=0.1264527
##XYDATA=(X++(Y..Y))
3996+123371149+123460238+123529512+123588115+123651108+123734789+123813600
3983+123884793+123988347+124109420+124230623+124410095+124661603+124884849
3969+125010007+125090548+125199045+125307092+125373632+125446352+125550342
3956+125661863+125787196+125936283+126082158+126194275+126293148+126383241
3942+126434313+126490168+126581496+126650464+126687827+126722645+126765140
3929+126866979+127036754+127188589+127285195+127356983+127435053+127539407
3915+127663242+127783137+127858473+127889919+127966679+128114982+128242451
3902+128303031+128334012+128375634+128461670+128566359+128590884+128566519
3888+128618696+128682372+128736061+128904964+129088594+129176971+129235559
3875+129287401+129384806+129483592+129430776+129321798+129277254+129271279
3861+129315024+129445023+129707129+130002455+130040312+129856958+129761123
3848+129771576+129795462+129828987+129913816+130050605+130125286+130113801
3834+130156034+130260999+130352676+130439439+130537076+130667584+130760177
3821+130703173+130690481+130831166+130918016+130930199+130986476+131059907
3807+131058730+131065694+131180777+131234073+131205913+131258090+131316184
3794+131310441+131303405+131315006+131365817+131475870+131597219+131653801
3780+131609023+131538092+131558460+131681525+131825073+131871188+131822980
3767+131805549+131823270+131823343+131786780+131697371+131638419+131720661
3753+131899551+132005287+132030336+132157820+132264253+132086089+131849541
3740+131819040+131867568+131863701+131864835+131906064+131948297+131957122
3726+131905527+131843798+131831543+131814751+131748705+131664442+131598425
3713+131507228+131332045+131135840+130975805+130817006+130569016+130186404
3699+129751819+129320970+128859634+128339318+127772975+127184839+126640055
3686+126247063+125994203+125785030+125634488+125565854+125431915+125279717
3672+125291725+125214528+124904984+124645103+124470937+124216129+123915235
3659+123680722+123446311+123164462+122924701+122627384+122094332+121463527
3645+121000294+120685452+120317959+119852706+119384421+118924060+118464564
3632+118042226+117508557+116772642+116107796+115601407+115091297+114478104
3618+113781078+113129724+112531854+111874532+111113146+110253549+109415031
3605+108703889+107980433+107107867+106210006+105411679+104640931+103849429
3591+103054686+102139662+101039875+99982160+99129788+98374443+97595204+96743726
3576+95794451+94797026+93851079+92940948+91920487+90812936+89824154+88925231
3560+87960552+86955793+85981010+85006810+83998539+82988015+81967103+80870209
3545+79755483+78763931+77877584+76938413+75885118+74831030+73859824+72920711
3530+71966442+70963376+69873729+68794229+67874793+67068739+66198143+65210350
3514+64198481+63254265+62382223+61523548+60616408+59650955+58708945+57837561
3499+56988257+56146265+55333491+54550668+53771812+52972801+52172912+51397682
3483+50590887+49694326+48812991+48063584+47368670+46581912+45703015+44880827
3468+44225467+43682574+43094005+42380195+41630763+40961487+40357468+39743203
3452+39104442+38486110+37929467+37410231+36868224+36264852+35600758+34920491
3437+34293429+33785659+33368996+32947615+32536395+32227778+31969677+31601676
3422+31122237+30663544+30261084+29857636+29447007+29067608+28728249+28440100
3406+28167464+27776106+27273066+26903580+26762974+26634589+26359713+26037139
3391+25854723+25811345+25754325+25628030+25456661+25258429+25086619+24991466
3375+24937602+24824062+24615768+24428053+24404284+24523839+24627786+24659748
3360+24723817+24835623+24882191+24838675+24801595+24882252+25081325+25269873
3344+25373358+25437531+25525162+25698570+25983561+26297881+26560009+26781766
3329+26986712+27190447+27430112+27721803+28052588+28418909+28802716+29147904
3314+29418269+29635055+29836950+30072030+30443304+31008939+31625228+32099811
3298+32446783+32805992+33258205+33811613+34417275+35008904+35579921+36145833
3283+36684343+37199498+37747284+38350532+38965048+39529014+40096863+40815321
3267+41654911+42457297+43193213+43937138+44737010+45556911+46362834+47189852
3252+48034286+48858996+49710402+50668062+51690438+52672049+53624996+54622512
3236+55650779+56695635+57842508+59077724+60261218+61404802+62627894+63932471
3221+65231481+66494436+67769727+69095028+70448461+71783037+73113914+74499054
3206+75928376+77354099+78775707+80232178+81745813+83277293+84763574+86208247
3190+87676290+89200428+90742906+92273129+93814429+95359487+96880166+98408687
3175+99978118+101568347+103148980+104715649+106259479+107761570+109268052
3161+110821593+112363293+113842829+115278067+116721679+118227608+119764256
3148+121266646+122744691+124196226+125553860+126844445+128208563+129655141
3134+131053990+132373419+133680344+134984580+136247761+137465481+138642465
3121+139786448+140933048+142114671+143349153+144590585+145755197+146862908
3107+147971215+149052437+150065520+151021221+151946276+152847881+153741156
3094+154627496+155483074+156340251+157209960+158025820+158770894+159479230
3080+160181621+160908406+161655995+162366382+162975656+163489212+163962992
3067+164432192+164893731+165330221+165746750+166124957+166414976+166632262
3053+166823466+166990988+167124534+167196178+167172451+167086619+167010541
3040+166946705+166811472+166542882+166187282+165802068+165345472+164771263
3026+164073394+163211521+162191068+161089884+159899627+158533211+156963613
3013+155210123+153247459+151021599+148497390+145618569+142309451+138542007
2999+134287220+129438510+123834607+117407242+110170478+102072089+93025792
2986+83138345+72782055+62538986+53221111+45675403+40355196+37221491+35863137
2970+35590563+35829808+36533071+38102913+41084238+45810556+51947448+58393274
2955+63887687+67665932+69469586+69281289+67282412+63885121+59784571+56020831
2939+53647061+53131179+54189845+56173509+58602959+61373189+64490165+67897276
2924+71559581+75426908+79343781+83078398+86380021+89013070+90824305+91798898
2909+92060103+91854150+91436356+90934794+90377311+89741294+88904136+87637299
2893+85751826+83231534+80085424+76213205+71703456+67128912+63506703+62012331
2878+63335285+67199494+72727181+79088079+85749645+92504763+99288478+105887029
2862+112060633+117776588+123126387+128280672+133496830+138919851+144442224
2849+149830251+154895767+159560512+163804091+167624715+171082382+174286623
2835+177329142+180259617+183136912+186037554+188952153+191774712+194434780
2822+196959498+199385997+201697762+203873088+205944452+207988122+210033099
2808+212083122+214201022+216398053+218568073+220609954+222530718+224374446
2795+226084526+227600581+228956936+230180864+231276304+232267682+233177065
2781+233995919+234716788+235365140+235959978+236485601+236932180+237330857
2768+237700108+238022169+238306751+238593906+238906285+239225089+239518641
2754+239786577+240047739+240304524+240533498+240722289+240908274+241119351
2741+241348674+241673934+242212452+242982749+243942070+244959151+245838382
2727+246530799+247176957+247918484+248784514+249804648+251036601+252419517
2714+253783853+254988387+255999013+256880308+257732208+258612718+259497386
2700+260359753+261216334+262039042+262772340+263427976+264037643+264583633
2687+265043471+265434631+265762813+266005744+266213318+266539725+267106999
2673+267888506+268792975+269761121+270714438+271593872+272413556+273180989
2660+273907164+274627029+275347011+276053908+276746209+277421995+278060505
2646+278664822+279291731+279950333+280557383+281078775+281575278+282093879
2633+282633589+283148235+283588650+283987108+284405920+284822900+285187456
2619+285527907+285883885+286221836+286492709+286735523+287040270+287391276
2606+287696342+287945844+288197177+288451389+288671466+288859791+289041924
2592+289240513+289451082+289667612+289897720+290128118+290371747+290654221
2579+290962049+291284270+291622832+291973954+292322896+292667331+293034213
2565+293401676+293720873+294019165+294308384+294561113+294789855+295001965
2552+295208085+295421474+295642685+295894600+296205772+296595188+297051275
2538+297547981+298075246+298635164+299228578+299826934+300409618+300992361
2525+301564112+302091320+302615561+303208277+303856091+304480907+305026926
2511+305552185+306151385+306819669+307496414+308143502+308772970+309404299
2498+310040076+310684837+311325848+311952728+312554748+313103326+313601574
2484+314089412+314607431+315190435+315817490+316420498+317001089+317600201
2471+318213881+318834451+319461011+320075854+320689533+321339325+322015111
2457+322680924+323329204+323955240+324530016+325043383+325540962+326064825
2444+326608199+327121449+327583352+328046475+328525503+328968739+329344838
2430+329695088+330094215+330513027+330868627+331167994+331444711+331700638
2417+331954996+332251194+332609207+333009992+333442702+333906959+334388052
2403+334901215+335438570+335921669+336373075+336843438+337346251+337873865
2390+338399531+338860038+339177694+339325516+339367357+339404400+339478253
2376+339576705+339717113+339928496+340174101+340432907+340826074+341366714
2363+342009208+342738232+343397125+343779446+344120508+344879859+345943752
2349+346528501+346076106+345262122+345454983+346801845+348179672+348943268
2336+349280405+349661069+350212612+350728945+351135429+351559677+352049609
2322+352568908+353153511+353780682+354302830+354656714+354949568+355353638
2309+355941644+356630950+357288069+357832169+358313117+358823460+359358895
2295+359881160+360408570+360927723+361409427+361857314+362271794+362636989
2282+362960169+363273115+363593969+363907322+364178776+364411937+364648500
2268+364889424+365108135+365321960+365554801+365819888+366157373+366576272
2255+367028696+367498856+367991870+368485785+369037706+369568868+370086218
2241+370605284+371116500+371605995+372103516+372634939+373161158+373662574
2228+374168003+374679481+375174413+375660478+376147357+376630484+377116055
2214+377589936+378006655+378348763+378666303+378995822+379313653+379630117
2201+380043665+380613905+381274688+381980800+382717122+383402823+384004901
2187+384579299+385170531+385792614+386437608+387055823+387621120+388174467
2174+388739124+389285958+389798976+390317140+390853448+391386238+391923738
2160+392443124+392926775+393440346+394012126+394574545+395098961+395608257
2147+396098189+396575763+397053512+397519543+397967983+398418400+398922318
2133+399504740+400133074+400770683+401420271+402098296+402783386+403456642
2120+404115157+404749074+405387409+406078286+406791231+407439075+408001289
2106+408551409+409151539+409775365+410386893+411010139+411634460+412232467
2093+412795874+413368469+413969791+414543462+415051741+415503844+415901489
2079+416260491+416597395+416918860+417262714+417625845+417933091+418177708
2066+418472394+418928423+419537450+420214050+420918912+421661980+422434473
2052+423210775+423988269+424771694+425531801+426209680+426758055+427196144
2039+427602743+428040600+428515586+429021103+429589918+430254277+431011272
2025+431820808+432622842+433404320+434200887+435016093+435808009+436550059
2012+437258265+437969552+438666971+439304667+439899302+440481899+441048475
1998+441586586+442082245+442541240+443016023+443545963+444081457+444590405
1985+445095340+445582916+446038800+446501022+447001188+447521650+448034203
1971+448529223+449014648+449531155+450087467+450613221+451076780+451505565
1958+451903471+452263026+452557682+452749177+452831026+452787209+452598651
1944+452319288+452067489+451901988+451768762+451639111+451536386+451468493
1931+451487829+451701189+452224325+453176014+454581406+456291805+458157616
1917+460052270+461780930+463246858+464543650+465797933+467020611+468141202
1904+469122461+470021522+470917414+471808944+472636158+473382221+474097667
1890+474842305+475644630+476439715+477162429+477846356+478520747+479192578
1877+479866997+480490097+481002941+481511191+482242337+483209698+484164120
1863+484937078+485599402+486292168+487063934+487839712+488505322+489026481
1850+489430173+489823165+490373342+491122516+491930773+492645172+493286590
1836+493937370+494579428+495216949+495941525+496748386+497533614+498333031
1823+499211477+500046309+500764255+501460046+502147229+502774691+503419074
1809+504151384+504868284+505446839+505939155+506527364+507244903+507892485
1796+508382882+508891771+509590178+510396516+511074860+511555778+511972322
1782+512441144+512948405+513362390+513603489+513854067+514342312+515016470
1769+515646432+516107229+516451083+516797727+517214038+517684606+518148659
1755+518562586+518918884+519312749+519882523+520541271+521074351+521467111
1742+521830794+522135395+522314038+522504835+522927950+523564600+524137282
1728+524507129+524672049+524617618+524373787+524060986+523874783+523949334
1715+524125826+524129257+523855826+523380258+522772568+522067764+521323882
1701+520548016+519869730+519347873+518713026+517802829+516517899+514812181
1688+512993532+511267053+509613904+508102240+506561848+504843104+503025443
1674+501316468+499868305+498629781+497599965+496800199+496088243+495454152
1661+494968698+494448469+493830370+493460639+493573919+493812808+493852875
1647+493971156+494467543+495109077+495575632+496032417+497038623+498910249
1634+501124333+503052134+504820890+506798934+509111470+511670571+514165297
1620+516377346+518723144+521591091+524506897+526976094+529112836+531125946
1607+533052236+534906765+536705120+538401301+539976351+541484643+542979734
1593+544451565+545873152+547243739+548575772+549868145+551065904+552086474
1580+553007429+554142152+555506517+556605534+557303359+558008687+558882713
1566+559514594+559557976+559240000+559269541+560157350+561268288+561759383
1553+561700358+561460830+561128083+560562495+559803494+559309550+559422714
1539+559719813+559515757+558741520+557805561+556910891+555830540+554420875
1526+552909268+551474888+550046265+548626422+547166513+545534241+543636679
1512+541322282+538645714+535884710+533151327+530266574+526776284+522325378
1499+516816045+510284224+502890355+494319255+483575068+470771394+457503812
1485+444860463+432912033+421657125+411553192+402764545+394237233+383981001
1472+371548047+359500438+350000619+342640100+335577001+327585212+320020813
1458+317384719+323998476+337940798+353808129+368419898+380620011+389794294
1445+395662891+398793045+400450614+402019732+404221343+406590664+408262102
1431+409081611+409462129+409811391+410341680+411134061+412295213+414087491
1418+416667963+419722200+422892537+426142427+429487309+432843559+436131015
1404+439184118+441687131+443375781+443980244+442964849+439787155+434328909
1391+426554668+416431720+405468561+397078517+394370111+398952557+410260238
1377+425346179+441015037+455540857+468516400+480271649+490629561+498657578
1364+503905110+506664370+507566600+507363417+506617034+505496501+503941920
1350+501980798+500180757+499745779+501418118+504472442+507670693+510648431
1337+513669492+516944678+520622916+524854647+529679354+534981607+540625155
1323+546516779+552588210+558762629+564876802+570795060+576504145+581929913
1310+586840046+591033978+594450881+597186008+599481272+601570911+603574135
1296+605561252+607654263+609890096+612122324+614168755+615769334+616505540
1283+616008049+614229699+611576798+609009440+607928741+609532751+614088796
1269+620809786+628463362+636018254+642888579+648879411+653887066+657746739
1256+660353931+661649619+661476907+659668783+656225479+651253297+644966122
1242+637922038+631111319+625769581+623289160+624913349+631025138+640813944
1229+652633538+664770178+676011101+685696221+693709933+700348871+705925253
1215+710613419+714600388+718089224+721214320+724036268+726542334+728758570
1202+730810526+732791711+734591403+736153311+737531109+738800105+739998329
1188+741086414+741952764+742627678+743276656+743946045+744502909+744841587
1175+744994935+744960276+744605839+743819506+742640297+741143635+739293409
1161+737117589+734864194+732750132+730729287+728609293+726193538+723260635
1148+719542679+714850965+709254521+703037651+696545722+690173237+684346627
1134+679239998+674653481+670461294+666800676+663646563+660590726+657119800
1121+652854458+647311688+639546867+628169636+611682054+588852110+558784669
1107+521216882+477925182+433701564+394407299+363365839+340283311+323843297
1094+314291025+313090417+320931184+336440648+356314166+376227694+391263333
1080+395892039+384833918+355418478+311566046+266218813+235941602+228762984
1067+236593328+240873979+227259213+195766870+157718268+125211359+104598080
1053+97499435+104570392+127481967+168319211+227229280+300402087+380347336
1040+458249380+526742788+581762144+622719037+650870773+666880344+669020052
1026+652485716+610955327+543838932+466705019+409884546+397797365+430163356
1013+487117521+548815300+606203251+657641948+702753345+740575722+770245228
999+791594037+805454423+813375673+816581541+815444260+809902711+799885600
986+784990689+763722246+733129458+688659072+624861012+539470951+440702819
972+350186066+293908705+287879986+332059699+413149236+511181046+607826568
959+691772130+758669640+808727922+844646398+870032942+888164601+901342745
945+910973145+918063111+923454336+927587906+930577914+932602131+933898284
932+934571976+934561567+933752206+932157267+929876425+926775811+922456853
918+916650188+909303074+900422081+890208299+879256800+868738708+860512741
905+856329219+855962918+856220532+852431630+840765209+818899485+785753877
891+742732817+695607903+652808402+620495765+602493901+605803164+637896335
878+694713232+759260873+814853435+854489692+878876776+891081395+893285594
864+886643051+873871506+861783714+859019859+868857978+886092699+902998511
851+915775638+924232005+929092185+931437577+932459716+932710061+932125342
837+930660780+928694657+926684745+924626509+922170337+919246913+916280980
824+913513695+910450881+906575216+902082615+897252383+891788176+885193900
810+877485312+869468808+862570047+858367451+857596470+859355921+861738181
797+863267523+863449249+862330867+860240473+857715798+854982706+851823243
783+848240432+844452693+840462352+836022903+830866844+825261386+820048455
770+816051543+813321068+810843206+807384375+802178539+794882831+786390411
756+779774908+778265279+781735275+786840043+790657730+792531333+792828723
743+792029073+790623595+788904094+787039912+785044712+782832547+780551239
729+778436304+776395862+774195793+771736830+769248035+767070878+765196402
716+763288257+761277996+759265699+757296029+755495697+753871624+752165790
702+750243339+748317980+746596677+745071754+743681685+742384776+741117641
689+739908659+738828250+737867984+737007624+736204136+735383493+734718232
675+734570177+734384497+732486063+729891780+730741848+733875085+735024810
662+734359201+734027734+734438346+735058306+735675649+736425346+737454697
648+738742534+740097886+741409333+742812194+744457725+746270153+748121019
635+750035387+752064489+754190065+756442530+758978195+761701750+764375178
621+766686899+768958031+771948504+775528523+779047076+782319936+785441891
608+788635780+792048613+795496336+798960923+802611423+806231509+809652483
594+813326360+817477026+821587218+825456254+829367392+833272889+836984390
581+840693565+844741128+849077997+853367531+857342403+861090017+865008889
567+869168162+873177402+876800977+880414085+884418906+888654300+892895916
554+897003957+900865898+904665267+908740685+912942118+916775041+920286615
540+923943337+927918326+931806552+935236481+938509166+941948515+945349892
527+948484640+951421090+954316368+957133374+959685845+962078689+964753745
513+967731831+970503246+972674937+974294241+975644999+976703251+977120783
500+976990057+976521700+975272127+972971164+969933297+966327806+962339850
486+958535654+955852166+955371306+956964849+958804142+959287561+958171098
473+955427714+950956629+945822785+942685884+944407071+951636893+962317752
459+973903284+984454697+992646820+998727439+1003105364+1005271298+1005223613
446+1003928449+1002418820+1000583771+997851784+995584200+995760750+997761532
432+1000154492+1003567789+1008798690+1015241713+1021928510+1027897360
420+1033537884+1040631630+1048050097+1052905683+1055219905+1056937952
409+1059399880+1062042429+1063933420+1065990144+1069328193+1073741823
##END=
