##TITLE=30
##JCAMP-DX=4.24
##DATA TYPE=INFRARED SPECTRUM
##DATE=16/11/2015
##SAMPLING PROCEDURE=Instrument type and / or accessory
##ORIGIN=Default
##XUNITS=1/CM
##YUNITS=TRANSMITTANCE
##RESOLUTION=4
##FIRSTX=3996.3359
##LASTX=399.24785
##DELTAX=-1.9287336
##MAXY=1.106771
##MINY=0.025278743
##XFACTOR=1
##YFACTOR=1.0307608e-009
##NPOINTS=1866
##FIRSTY=0.11533301
##XYDATA=(X++(Y..Y))
3996+111891151+111920924+112007048+112187234+112409907+112572383+112604924
3983+112548045+112543137+112662382+112814717+112918456+113012423+113136554
3969+113285426+113439438+113563403+113642725+113711842+113815458+113944374
3956+114060886+114169960+114291329+114385217+114433624+114541961+114719805
3942+114821990+114841094+114877329+114954852+115063247+115194497+115350808
3929+115524820+115640689+115645524+115646601+115754158+115902344+115996246
3915+116060772+116137377+116187071+116212948+116303648+116439242+116503032
3902+116513014+116548815+116608976+116715151+116856514+116921019+116927965
3888+116995151+117033888+117022301+117137266+117303544+117390507+117475106
3875+117576063+117674049+117709048+117639252+117642722+117752533+117796278
3861+117765985+117782964+117971050+118292995+118436931+118323029+118259384
3848+118321446+118382878+118414104+118510291+118673432+118706978+118597347
3834+118598229+118726877+118806424+118835164+118911985+119068036+119172881
3821+119111636+119111875+119238492+119246016+119202857+119307391+119476250
3807+119515586+119513577+119631881+119674080+119587724+119576195+119609185
3794+119636702+119700369+119768451+119820509+119874374+119935583+119994753
3780+120002625+119961706+119973733+120070512+120167768+120185730+120165925
3767+120175936+120189872+120244915+120346356+120356743+120309145+120404355
3753+120642323+120763743+120686257+120688252+120732156+120575650+120463996
3740+120598650+120747371+120740953+120664261+120597646+120559387+120552216
3726+120534124+120493508+120452423+120398349+120324418+120268009+120275939
3713+120261150+120114214+119937823+119829884+119735086+119527650+119164988
3699+118763828+118386297+118013277+117674172+117340437+116872221+116320504
3686+115933656+115724016+115575078+115552201+115683697+115677618+115441558
3672+115297167+115211910+114995489+114754977+114546081+114323820+114109980
3659+113891102+113557280+113176692+112969517+112853395+112583861+112157316
3645+111700304+111252493+110809554+110389340+109996696+109593071+109190719
3632+108850616+108418230+107737258+107070800+106599642+106203860+105715976
3618+105099776+104499913+103931210+103299303+102639965+101949083+101203758
3605+100495138+99835200+99149024+98458663+97774496+97005527+96189973+95465140
3589+94731286+93803629+92831620+92064466+91451779+90784244+89973323+89096625
3574+88227993+87396385+86604915+85732785+84729102+83765780+82901110+82058573
3559+81227810+80401117+79526493+78592598+77678031+76792717+75814564+74777580
3543+73878741+73127699+72360660+71493316+70588962+69726641+68876088+67974358
3528+67036343+66111194+65219989+64383675+63598566+62790529+61915768+61024071
3512+60178429+59372799+58557462+57697446+56809888+56002306+55292631+54547266
3497+53760343+53025130+52316142+51573361+50823132+50097254+49363874+48571024
3481+47731395+46968947+46381913+45872709+45241692+44433817+43578995+42831249
3466+42241331+41715524+41118598+40472336+39910616+39409266+38844506+38230449
3451+37649386+37119520+36609760+36081878+35511820+34911667+34300856+33709944
3435+33221391+32842585+32483905+32119067+31777656+31440546+31075776+30702890
3420+30338153+29975923+29611900+29240658+28864069+28509531+28225733+27987175
3404+27659120+27209257+26852045+26718554+26622127+26391902+26098100+25915202
3389+25860170+25794285+25665756+25515027+25355587+25215083+25135427+25072522
3373+24928142+24698340+24524354+24536310+24670997+24778412+24824792+24867690
3358+24930373+25000135+25056107+25079349+25129630+25254952+25388741+25498818
3342+25627171+25792853+26003963+26254550+26500929+26735462+26970613+27159960
3327+27307008+27530026+27881408+28261519+28590335+28893359+29202737+29503791
3312+29762889+29984801+30239504+30619563+31136555+31686508+32184197+32620728
3296+33008986+33392527+33838708+34379257+34965817+35523540+36044645+36568739
3281+37107384+37641362+38177499+38715431+39226351+39785210+40485026+41255718
3265+42022355+42797370+43559179+44265067+44940065+45677471+46519770+47403393
3250+48258030+49081951+49943271+50899079+51910132+52871780+53742124+54592884
3234+55516569+56583106+57780076+58992027+60148418+61262957+62377536+63532840
3219+64731606+65941417+67133346+68331180+69582503+70889397+72228427+73565636
3204+74852775+76108673+77420482+78812575+80228752+81596493+82891504+84198918
3188+85606696+87072792+88505225+89888536+91278663+92707692+94140306+95534690
3173+96904744+98305872+99750963+101185203+102574390+103938524+105301907
3159+106682174+108070342+109397974+110663753+111987828+113391226+114775606
3146+116104394+117378479+118594846+119794661+121021827+122275340+123524524
3132+124730280+125894749+127049922+128190696+129291224+130355176+131409993
3119+132452709+133488269+134569584+135674304+136703200+137649274+138603257
3105+139596474+140559376+141444314+142284206+143114296+143925781+144693449
3092+145406630+146104617+146831141+147575563+148324451+149035059+149645396
3078+150225086+150867604+151499410+152035557+152500693+152922533+153343029
3065+153801371+154231436+154584333+154894916+155163503+155371387+155532287
3051+155671315+155807726+155915557+155949530+155924245+155885300+155828211
3038+155687795+155421681+155067208+154664350+154206239+153674964+153063108
3024+152373115+151591295+150698059+149678733+148474654+147046528+145461275
3011+143767729+141889038+139715190+137193852+134304394+130992649+127177008
2997+122816909+117879345+112272982+105876776+98547252+90231226+81102415
2984+71485647+61902866+53153276+46024582+40963220+37985954+36699332+36447121
2968+36703271+37453295+39102311+42089784+46620145+52406375+58540284+63857409
2953+67517223+69219147+69009557+67082481+63826653+59939334+56382139+54081696
2937+53505360+54471955+56381235+58716765+61324853+64240209+67473622+70980559
2922+74663084+78360919+81893075+85039887+87507324+89119235+89942292+90152525
2907+89953019+89556926+89120355+88672335+88119859+87324226+86143045+84440334
2891+82114245+79101444+75412153+71217421+66971311+63573455+62170527+63452635
2876+67146111+72322943+78190759+84390264+90732591+97033978+103081682+108676950
2860+113813550+118659763+123382214+128147211+133055905+138022020+142863506
2847+147416223+151596673+155389703+158791151+161855330+164689853+167371976
2833+169976164+172577447+175173033+177733520+180238667+182635636+184894936
2820+187040811+189106987+191087668+192955241+194740948+196524413+198365719
2806+200287099+202254813+204197849+206070308+207842614+209496737+211033706
2793+212420168+213612653+214643182+215599073+216510148+217353654+218115134
2779+218771791+219332861+219845574+220328593+220753050+221087789+221376297
2766+221673450+221964227+222237787+222524039+222835085+223149715+223454935
2752+223733034+223949519+224115899+224293815+224512049+224740722+224979138
2739+225320079+225850097+226549125+227355839+228196107+228967562+229634164
2725+230258423+230915036+231659660+232568943+233698542+234963888+236186804
2712+237268683+238219239+239063381+239820568+240533315+241255878+242021102
2698+242809631+243573944+244283468+244932534+245521259+246028970+246442483
2685+246771917+247030428+247265635+247551641+247945493+248488623+249178977
2671+249963877+250799287+251636519+252432203+253198858+253930529+254614204
2658+255283915+255929338+256530091+257125640+257728475+258316217+258908874
2644+259530994+260149210+260711827+261206354+261668643+262137437+262627194
2631+263112786+263519418+263853998+264231977+264662202+265055273+265404195
2617+265744095+266063063+266359709+266660606+266966476+267265841+267551558
2604+267805443+268031397+268265650+268507738+268714379+268898872+269109763
2590+269334850+269556352+269790721+270029946+270250176+270472748+270748664
2577+271074600+271419271+271781434+272151607+272510792+272865265+273221472
2563+273558481+273853017+274120607+274387357+274634042+274846263+275049782
2550+275242342+275432994+275675024+275988382+276374804+276833999+277322252
2536+277788126+278235727+278723777+279293449+279910596+280513026+281081252
2523+281612671+282106302+282621184+283210458+283807568+284343787+284877607
2509+285477868+286106493+286692356+287232450+287762598+288320097+288926632
2496+289546352+290146093+290733951+291304172+291857710+292407895+292950562
2482+293482704+293995793+294493096+295017547+295590284+296196299+296811740
2469+297375976+297889441+298454949+299108092+299771008+300384193+300986999
2455+301607731+302175697+302675630+303186898+303721816+304237276+304730415
2442+305201031+305628451+306037771+306498643+306996842+307434584+307795967
2428+308132080+308451279+308745641+309025171+309317048+309636073+309950299
2415+310244835+310559610+310919403+311329330+311796476+312290917+312783073
2401+313274159+313741508+314186680+314635467+315115479+315611770+316045608
2388+316340231+316501999+316609584+316733216+316885414+317074851+317314482
2374+317555124+317791198+318103631+318403574+318535128+318741277+319252776
2361+320065866+321211425+322539685+323450530+323233538+322142595+321563961
2347+322317750+323718582+324727614+325280892+325811820+326349312+326714887
2334+326997858+327460638+328094901+328666481+329083897+329488187+329989566
2320+330462119+330756858+331005046+331409481+331981812+332623968+333241722
2307+333802836+334330902+334863218+335412332+335972983+336534588+337071009
2293+337557325+338021407+338486847+338917390+339275303+339606848+339984740
2280+340396778+340771750+341076116+341336448+341586516+341826956+342041837
2266+342247900+342480475+342740779+343007963+343310479+343702857+344180816
2253+344706685+345255799+345800085+346357064+346856362+347309832+347771369
2239+348271534+348772653+349260125+349778332+350324382+350842791+351333067
2226+351835661+352330101+352774059+353195350+353650642+354136668+354606301
2212+355026695+355383943+355698834+356019565+356377623+356774193+357222257
2199+357765357+358399678+359058084+359704201+360350405+360993834+361613640
2185+362188516+362726557+363299872+363931330+364536276+365076109+365590441
2172+366093613+366597074+367132744+367689810+368240196+368764301+369250617
2158+369745404+370291830+370854591+371389365+371894850+372377002+372845304
2145+373319419+373789861+374238648+374682143+375143391+375648819+376224359
2131+376853852+377508065+378168379+378807846+379431238+380072440+380735182
2118+381399804+382044042+382665468+383281631+383889179+384481923+385078917
2104+385672442+386237806+386805020+387417107+388044749+388641801+389192968
2091+389747605+390341650+390922251+391418021+391832459+392225877+392627073
2077+393009273+393354581+393666089+393951806+394236714+394541428+394901625
2064+395376347+395965997+396620239+397304840+398010373+398754216+399541197
2050+400327225+401060630+401726206+402319702+402831403+403279958+403712120
2037+404183690+404711206+405248178+405802496+406446243+407187918+407972441
2023+408748840+409503266+410256968+411017060+411757000+412453195+413125652
2010+413823003+414511536+415111161+415654088+416211934+416764952+417278648
1996+417780027+418300518+418841971+419387645+419897784+420368429+420840173
1983+421335104+421833419+422308111+422781445+423287479+423793600+424251784
1969+424704618+425236645+425834015+426391890+426864848+427301752+427726078
1956+428102929+428404925+428634580+428790594+428830089+428738753+428591558
1942+428468967+428374277+428267501+428168388+428130772+428151271+428237403
1929+428488975+429049972+430006268+431313046+432845605+434529986+436261813
1915+437865960+439282376+440573773+441794650+442947612+444014933+444992363
1902+445895314+446727082+447500243+448247960+448989635+449745737+450527976
1888+451323371+452087107+452790472+453472672+454161436+454840659+455494438
1875+456100685+456667986+457296524+458077607+458953177+459793358+460533963
1861+461217668+461912272+462632985+463346961+464005626+464594814+465119700
1848+465637762+466257279+466973366+467671440+468300296+468924208+469589119
1834+470267446+470996803+471821690+472652069+473425693+474211199+475022930
1821+475766426+476425901+477087632+477780270+478478199+479186364+479907019
1807+480583842+481163546+481712545+482361091+483087558+483734022+484299559
1794+484936280+485664192+486349718+486900278+487357102+487842492+488399645
1780+488931874+489329254+489641629+490082204+490743848+491437874+491937027
1767+492232459+492513204+492917060+493416097+493947228+494446728+494883949
1753+495339097+495923138+496622889+497265161+497730312+498103925+498494712
1740+498823279+499051344+499390782+499968116+500593676+501031129+501269256
1726+501395547+501403007+501296781+501238030+501384907+501650213+501762106
1713+501615459+501309618+500966942+500563953+500056474+499572008+499152829
1699+498746544+498304697+497613793+496595364+495305731+493801969+492404029
1686+491234385+489972046+488478346+486851704+485218297+483636123+482160985
1672+480923569+479901150+478999529+478234116+477597222+477058632+476562833
1659+476001430+475520348+475495078+475871929+476100515+476078310+476118065
1645+476371747+476701904+477006675+477531416+478694468+480513410+482387489
1632+483959254+485535703+487465641+489789894+492287799+494569434+496566971
1618+498823915+501594411+504307658+506579521+508582667+510499306+512355401
1605+514147598+515861557+517465011+518980627+520473286+521971555+523444206
1591+524862097+526232628+527574651+528871107+530040866+531035645+532038230
1578+533374701+534882511+535980451+536701944+537491730+538363224+538921648
1564+538992254+538986066+539602779+540861649+541798832+541984222+541789812
1551+541535320+541224853+540768896+540295938+540239616+540732755+541072597
1537+540689038+539864615+539003530+538165806+537216016+536097895+534946524
1524+533866915+532746770+531520688+530160045+528579838+526755084+524682027
1510+522525584+520449751+518164762+515304694+511825080+507703425+502802971
1497+496934397+490131645+482234481+472440687+460762289+448550245+436811043
1483+425657878+415143833+405757045+397693401+389941119+380514172+368859540
1470+357433321+348454727+341589928+334985548+327445141+320360575+318034847
1456+324438889+337642300+352588612+366370397+377904779+386556166+392048670
1443+394962198+396525752+398062387+400228574+402512204+404095332+404887662
1429+405269660+405601696+406121493+406962801+408261166+410198390+412752762
1416+415625725+418640419+421818876+425144413+428529973+431872193+434929245
1402+437362991+438984168+439627655+438822747+435952502+430807272+423457025
1389+413971037+403693702+395772599+393190442+397508589+408191283+422474592
1375+437341046+451091403+463330683+474423276+484181941+491735330+496719169
1362+499385809+500292172+500142865+499453061+498411964+497024952+495303881
1348+493706788+493342832+494955942+497907895+501019274+503880267+506713909
1335+509764455+513205615+517170966+521700640+526718712+532097039+537692386
1321+543398412+549158331+554885580+560492029+565917079+571049877+575694799
1308+579692879+583002196+585715849+588025704+590092805+592040265+593975639
1294+595986187+598108396+600258305+602254338+603817892+604558873+604140734
1281+602528664+600103967+597772486+596849411+598437021+602802238+609229989
1267+616525822+623703921+630240500+635944964+640704554+644389450+646940786
1254+648317041+648341444+646830107+643772159+639278684+633594343+627220370
1240+621025369+616189738+614033758+615708800+621590674+630892140+642037499
1227+653448683+663978370+673006030+680497661+686753033+692014262+696413365
1213+700113065+703313958+706203228+708874263+711265478+713352414+715272869
1200+717129253+718801635+720232132+721495569+722707253+723925933+725027863
1186+725851650+726486694+727138103+727840629+728441671+728838819+729080358
1173+729144140+728870970+728196547+727202983+725921851+724307873+722394530
1159+720374962+718465147+716673296+714814715+712666137+710010136+706605233
1146+702295066+697177534+691505683+685567024+679729386+674373612+669677052
1132+665493003+661651919+658264711+655393541+652678558+649550063+645621026
1119+640558139+633505117+623028862+607653135+586191929+557768778+522120919
1105+480875198+438521446+400696472+370689064+348266966+332214677+322891990
1092+321820447+329659062+345035367+364747687+384525668+399474871+404214338
1078+393628589+365065209+322269928+277884811+248301961+241595822+249688828
1065+253917865+239909215+207758058+168837963+135356464+113938642+106485313
1051+113775110+137353871+178929431+238159201+310850040+389456307+465409147
1038+531722790+584710835+624007160+650968936+666382076+668627975+652987464
1024+613299543+548936685+474740942+419942831+408428832+440079506+495383565
1011+554885637+609847801+658753513+701346433+736910733+764781821+784826871
997+797867069+805444108+808703001+807931141+803073652+794087627+780553886
984+760960109+732321498+690139778+629120181+546858423+451012210+362590609
970+307341195+301566270+345458219+425368748+520946996+614135473+694277567
957+757591579+804626161+838141402+861705793+878530115+890735422+899604119
943+906140871+911175018+915079537+917875938+919728448+920941404+921652546
930+921790230+921204974+919883711+917959786+915303207+911460158+906121615
916+899274280+891051498+881666533+871576149+861838734+854193171+850312418
903+850066254+850445534+846952215+835880121+815076222+783679953+742977592
889+698169826+657216906+626144924+608645254+611536200+642248736+696865853
876+758806500+812006536+849887687+873204005+884926408+887179767+881097063
862+869262709+858049173+855540398+864845795+881096080+897001492+908993768
849+916987039+921706902+924049429+925061208+925325646+924836612+923593703
835+921952952+920284964+918510115+916269478+913609950+910934636+908298412
822+905327030+901752292+897666084+893169198+888030501+881826884+874554239
808+867009697+860537247+856571954+855849651+857623575+860079266+861738869
795+862075994+861126262+859282542+857060062+854554640+851571693+848211951
781+844660749+840951161+836942903+832222692+826899358+821961665+818305392
768+815839582+813574773+810441305+805644533+798764584+790705276+784427931
754+783049362+786461435+791398551+795078011+796936303+797399026+796945151
741+795872307+794284409+792419871+790512311+788503787+786358158+784271916
727+782281376+780222428+777986128+776038669+774093580+772102288+770283375
714+768506848+766604319+764679469+762877673+761190025+759495553+757731112
700+756000095+754472104+753125918+751804018+750477955+749209371+748042734
687+747035408+746236890+745689395+745312890+744880295+744134804+742670306
673+740872557+741190253+744130525+744963622+742519843+741395881+742355039
660+743321020+743872853+744428791+745057127+745963663+747312856+748783715
646+750059527+751284915+752756179+754485462+756295816+758173018+760193859
633+762293863+764413008+766669836+769183353+771839180+774327485+776534930
619+778930772+782055451+785637532+789079964+792220719+795190887+798220385
606+801472107+804858448+808317071+811861566+815362634+818806396+822453242
592+826392457+830283039+834028768+838006783+842194764+846134499+849776662
579+853500475+857468428+861533240+865462046+869240273+873143230+877139461
565+880871658+884394121+888189465+892362238+896492277+900336021+904068045
552+907871657+911675732+915492587+919300710+922936628+926489218+930059156
538+933689985+937327464+940745146+944045442+947474517+950892778+954044635
525+956900250+959697056+962643342+965494216+967963843+970362923+972927153
511+975347976+977419877+979215370+980693631+981728830+982315762+982619926
498+982522779+981258358+978561822+975340921+972161886+968682676+965091054
484+962635825+962315180+963651825+965309578+966238492+965718811+963255429
471+959000948+954018382+950614057+951659260+957999346+967866522+979305579
457+990528656+999343632+1005278070+1008918671+1010258844+1009724186+1008297159
444+1006834858+1005668395+1004174984+1002164494+1000845948+1001212448
432+1003480957+1007763657+1013422150+1019376018+1025565931+1032209199
420+1039189475+1046422683+1052467684+1056299573+1058631344+1059452587
409+1059286511+1060431810+1063589219+1067225425+1070426434+1073741823
##END=
