##TITLE=6
##JCAMP-DX=4.24
##DATA TYPE=INFRARED SPECTRUM
##DATE=16/11/2015
##SAMPLING PROCEDURE=Instrument type and / or accessory
##ORIGIN=Default
##XUNITS=1/CM
##YUNITS=TRANSMITTANCE
##RESOLUTION=4
##FIRSTX=3996.3359
##LASTX=399.24785
##DELTAX=-1.9287336
##MAXY=0.62080008
##MINY=0.0079115219
##XFACTOR=1
##YFACTOR=5.7816513e-010
##NPOINTS=1866
##FIRSTY=0.051266111
##XYDATA=(X++(Y..Y))
3996+88670362+88761439+88902096+89024757+89071793+89052585+89055833+89143951
3981+89262295+89367089+89495781+89672849+89859138+89977340+90001355+90016722
3965+90069718+90106181+90143030+90221309+90286883+90333043+90413056+90491831
3950+90510871+90499138+90511786+90553758+90598713+90634396+90660865+90700440
3935+90796722+90927315+90986380+90928681+90864280+90906735+91012205+91101683
3919+91172933+91245104+91303262+91281432+91179061+91103416+91109905+91159628
3904+91222405+91286619+91322624+91317527+91266960+91182250+91140568+91191438
3888+91281425+91345214+91356348+91346967+91360324+91369525+91344009+91317347
3873+91337811+91407360+91439608+91361606+91238333+91126522+91004615+90903745
3857+90897115+91011322+91144750+91117637+90958777+90807927+90692547+90618184
3842+90630504+90725639+90823616+90839035+90794235+90778281+90784460+90730974
3827+90612366+90539673+90609447+90753784+90836722+90838287+90762070+90619299
3811+90507991+90505581+90574144+90595659+90522005+90424048+90348249+90276522
3796+90201425+90133520+90066361+89970601+89873803+89860485+89907031+89885523
3780+89778442+89678275+89613719+89553049+89505852+89513958+89545749+89497083
3765+89335176+89166993+89134525+89227379+89290021+89238758+89128649+89048816
3749+89018468+88998887+88960871+88853726+88678674+88571960+88585723+88571793
3734+88423352+88217972+88039370+87905646+87822450+87762933+87669744+87513095
3719+87295775+87071033+86925446+86864274+86755724+86487676+86130601+85793630
3703+85452380+85003063+84409339+83749906+83118417+82505743+81853250+81197110
3688+80631691+80157806+79738141+79429681+79309706+79332574+79352078+79222290
3672+78935016+78626195+78382671+78183270+77989043+77755299+77468534+77186015
3657+76947535+76720042+76481923+76258489+76006923+75606859+75061962+74484217
3641+73934263+73440841+73023477+72653863+72303232+71969733+71617343+71188960
3626+70693013+70172581+69647240+69145926+68684682+68205127+67656055+67070597
3611+66502169+65955984+65387556+64773284+64155404+63563504+62981416+62408955
3595+61801732+61096313+60383936+59764638+59149587+58445753+57722802+57065309
3580+56434916+55737480+54977081+54243924+53580402+52972116+52386582+51778946
3564+51126372+50442900+49772658+49125519+48451118+47721515+46990803+46335361
3549+45705738+44987237+44234366+43586628+42998819+42347237+41667343+41073613
3533+40568983+40044103+39419405+38737299+38108420+37565063+37041355+36517573
3518+35987144+35378063+34717721+34157441+33722360+33265943+32694136+32077480
3503+31535408+31062232+30592590+30136626+29699758+29263965+28827828+28381868
3487+27935009+27508782+27067133+26581205+26116512+25714542+25335900+24908893
3472+24364406+23763385+23301700+23088728+22973773+22707639+22268610+21828981
3456+21511354+21291787+21026777+20667356+20337061+20066731+19746088+19349532
3441+18942285+18559814+18253920+18082966+17974055+17817095+17609904+17377134
3425+17132409+16912253+16729094+16559115+16386771+16215480+16061501+15919753
3410+15766412+15625447+15509267+15299666+14926171+14602989+14534953+14574389
3395+14494705+14330316+14240076+14223054+14177658+14105250+14067978+14067535
3379+14064254+14032481+13971851+13890702+13791289+13696540+13683845+13804808
3364+13950586+13969589+13893900+13860763+13923167+14016411+14077479+14173545
3348+14356148+14484636+14461153+14434314+14541530+14758323+15023400+15270861
3333+15448418+15554984+15644774+15803912+16056809+16334905+16574623+16784879
3317+17003567+17244969+17481138+17656744+17756552+17874063+18140067+18539025
3302+18938152+19286488+19624355+19949208+20234633+20548132+20945015+21357873
3287+21756821+22181776+22608320+23012202+23435026+23869770+24253372+24608233
3271+25050190+25624847+26244088+26805916+27317638+27875203+28496060+29102918
3256+29691156+30313366+30978862+31658491+32327947+33025189+33793166+34589258
3240+35362370+36117599+36875031+37667669+38528549+39436316+40353958+41304408
3225+42293323+43248219+44178532+45182804+46243535+47265029+48236759+49232874
3209+50306714+51425609+52539078+53643998+54753118+55885753+57067654+58264915
3194+59405018+60495753+61613465+62802724+64036790+65257234+66430881+67568323
3179+68739025+70003960+71296943+72506421+73646131+74786898+75929443+77064211
3163+78201884+79340750+80477715+81591343+82664203+83744152+84873482+86000633
3148+87062888+88064718+89028642+89978578+90967727+92023455+93081966+94057643
3132+94944614+95800033+96667211+97542597+98386805+99156437+99860864+100568544
3117+101310245+102050850+102763151+103434362+104068879+104703047+105331088
3103+105918595+106490901+107067751+107607506+108092403+108541584+108946365
3090+109301687+109625811+109910167+110162125+110412628+110636867+110820952
3076+111006313+111198130+111377757+111518891+111587576+111595759+111533981
3063+111381416+111207293+111068105+110928208+110735347+110456558+110093375
3049+109679316+109233466+108760592+108256932+107692080+107062293+106407667
3036+105722783+104950947+104068988+103099008+102054858+100919150+99672900
3022+98340220+96957733+95494421+93876766+92068622+90092121+88012244+85845769
3007+83481690+80793824+77787890+74541337+71068406+67335230+63320727+58978536
2991+54291056+49330819+44130835+38734209+33369300+28370966+24080799+20774290
2976+18510669+17141009+16453532+16199539+16139924+16288088+16977899+18607312
2961+21348037+24948397+28724368+31888324+33962547+34794216+34384229+32891726
2945+30659896+28211169+26190878+25166677+25372289+26611738+28446556+30531720
2930+32789255+35253555+37909915+40730845+43708049+46763148+49650889+52102651
2914+53970193+55158015+55688788+55749342+55541842+55231340+54917384+54556146
2899+54023708+53203763+51958821+50200145+47985864+45350945+42246451+38848726
2883+35707792+33549107+33065215+34678626+38193246+42914695+48263103+53971330
2868+59891565+65873639+71692948+77163115+82300898+87255401+92211200+97378235
2853+102869807+108558040+114103916+119192266+123758142+127860680+131520061
2839+134819016+137881284+140747817+143469106+146160110+148877004+151602983
2826+154284310+156838807+159232828+161478008+163558845+165444605+167193793
2812+168963149+170816344+172687156+174549243+176411022+178217246+179895725
2799+181448392+182898740+184172593+185207219+186082232+186849860+187446252
2785+187861072+188182670+188475440+188730620+188907850+188992876+189025840
2772+189043339+189019332+188914486+188762154+188652115+188632489+188664383
2758+188679293+188670633+188673352+188667038+188581999+188387914+188134783
2745+187892206+187713082+187669345+187845698+188306742+189046303+189936471
2731+190793919+191516380+192095259+192562076+193037759+193698197+194616367
2718+195749846+197008609+198273222+199424163+200395104+201199098+201866134
2704+202403454+202874678+203373067+203887603+204350838+204732384+205011585
2691+205184948+205278479+205319330+205296546+205162229+204957526+204829330
2677+204877551+205146778+205695631+206504072+207407293+208245128+208982680
2664+209662254+210319716+210951726+211541146+212072074+212542770+212961094
2650+213340952+213749741+214213787+214664818+215074264+215445810+215780694
2637+216102498+216398169+216645205+216858117+217026390+217147034+217280926
2623+217430385+217519844+217536802+217508890+217460978+217439534+217426416
2610+217359921+217274251+217239199+217234973+217188942+217076570+216952808
2596+216862627+216793839+216736416+216686416+216622576+216520462+216398143
2583+216329947+216355643+216457447+216612576+216780488+216950179+217158864
2569+217376519+217552472+217708787+217859766+217986055+218058942+218076802
2556+218090153+218142112+218234199+218319302+218352498+218380307+218490926
2542+218707601+218988349+219307395+219668349+220046055+220419663+220818142
2529+221251286+221703013+222172704+222629843+223038709+223429766+223854173
2515+224304353+224746982+225191002+225661157+226154636+226655925+227159456
2502+227635435+228052471+228444018+228835770+229211827+229565976+229906878
2488+230238888+230540821+230820409+231129249+231480770+231849301+232214610
2475+232567445+232914790+233252574+233557419+233886646+234324532+234799609
2461+235206362+235590331+236016439+236438449+236805228+237157470+237529068
2448+237873346+238178063+238505511+238846594+239121052+239347315+239597624
2434+239849660+240069016+240281310+240481774+240636980+240764970+240893784
2421+240999970+241074634+241147109+241216052+241285201+241408191+241616825
2407+241868603+242103758+242329712+242571722+242812907+243056129+243311052
2394+243573809+243850691+244139634+244392263+244549222+244590330+244545227
2380+244470021+244407521+244338320+244216077+244061799+243925897+243799815
2367+243692186+243728088+243981773+244483474+245293036+246271103+247046773
2353+247124685+246440484+245722134+245716386+246386489+247135484+247562907
2340+247761154+247996721+248407288+248877314+249356798+249845072+250227675
2326+250494633+250812391+251284814+251817056+252220999+252424633+252561463
2313+252785303+253115690+253486798+253849710+254193860+254517648+254809246
2299+255064942+255313370+255562803+255793138+255999194+256180200+256323267
2286+256429710+256523576+256623060+256735921+256847313+256912674+256910122
2272+256863138+256806823+256774246+256778395+256807364+256877622+257021282
2259+257214942+257416205+257626308+257860174+258126488+258428962+258663137
2245+258868292+259064091+259242441+259433988+259697055+260001694+260285586
2232+260555534+260837261+261118189+261378060+261623678+261876900+262109297
2218+262285611+262441771+262597776+262724297+262815096+262887853+262939606
2205+262972415+263048936+263264142+263670431+264227054+264817054+265353137
2191+265834915+266283807+266697286+267060636+267394167+267763033+268155662
2178+268509992+268842079+269170172+269470430+269731487+269968780+270220404
2164+270494425+270781641+271112930+271477002+271794656+272047285+272300429
2151+272591460+272879502+273129270+273348032+273539373+273721512+273932362
2137+274190403+274493161+274828599+275180274+275534140+275886280+276231872
2124+276567362+276910094+277275764+277637568+277958058+278261666+278602980
2110+278993599+279383289+279717233+280028057+280368186+280743547+281160196
2097+281589964+281980583+282311588+282578882+282804964+283023005+283204088
2083+283306047+283350712+283363031+283336227+283281279+283225583+283164320
2070+283082773+283049500+283171536+283448933+283813160+284253237+284788907
2056+285401407+286036588+286636149+287179319+287668495+288082025+288386381
2043+288576381+288700170+288824783+288999783+289254216+289572412+289949603
2029+290435711+291035839+291703262+292405788+293088262+293705659+294277154
2016+294812927+295303416+295759241+296183803+296566586+296894318+297167694
2002+297416277+297668029+297915143+298128906+298330091+298572205+298824962
1989+299039034+299235400+299431199+299624704+299810349+299984086+300158261
1975+300333854+300518338+300739163+300985039+301198544+301350684+301466379
1962+301570142+301647230+301662720+301590091+301415452+301139936+300764833
1948+300303338+299805890+299314833+298831148+298368622+298032746+297932591
1935+298016483+298171947+298417411+298867076+299598622+300666998+302045735
1921+303524266+304948467+306265322+307390219+308359214+309261198+310074987
1908+310759523+311342667+311868569+312349213+312790605+313204625+313599703
1894+313967383+314335295+314760940+315158749+315421249+315647073+315944084
1881+316272280+316564728+316821017+317062048+317301429+317632743+318106790
1867+318544058+318818001+319063774+319410681+319819625+320177666+320441867
1854+320663800+320868722+321015166+321123104+321339032+321666351+321858593
1840+321919315+322113516+322493696+322927305+323421841+324010217+324497021
1827+324798284+325073773+325365217+325663052+326011557+326365835+326663412
1813+326955165+327284005+327585165+327815654+328012562+328250242+328573567
1800+328893670+329093103+329260190+329569159+329904314+329981273+329877046
1786+329878902+330030396+330201350+330325783+330377097+330406092+330595293
1773+330946015+331132767+331048180+330901608+330837690+330928180+331103901
1759+331228979+331341814+331473257+331654391+331994494+332376711+332546401
1746+332516736+332465422+332484365+332513979+332488437+332587432+332865267
1732+332903308+332560422+332151401+331850989+331607252+331347664+331163051
1719+331169056+331119778+330677304+329975422+329328257+328847587+328453979
1705+328000422+327539701+327243515+326881247+326126918+325083232+323897459
1691+322688567+321588903+320664109+319951996+319220965+318064419+316614702
1678+315342976+314438362+313721739+313077795+312601507+312196120+311726378
1664+311406894+311357693+311328182+311209909+311324136+312138646+313410682
1651+314014445+314004084+314289960+314860347+315272641+315678620+316447125
1637+317814161+319593594+321043155+322004547+323082872+324515629+326092536
1624+327667175+329019031+330063979+331266943+332789932+334058618+334940318
1610+335818592+336776091+337649674+338405395+339081117+339659055+340142509
1597+340571838+340955421+341256787+341456297+341569467+341613720+341590782
1583+341488977+341308488+341148591+341167534+341174184+340771993+340157225
1570+339693565+339220215+338511632+337716916+337171143+337091478+336987792
1556+336069777+334614906+333233824+332043257+330916814+329819675+328832974
1543+328020474+327192768+325861608+323941866+321921248+320027176+318114238
1529+316146352+314209909+312306069+310349806+308190013+305776920+303197333
1516+300506173+297748339+295005117+292306509+289348365+285635737+281290377
1502+276777645+272027672+266625611+260330225+253391746+245914428+237263243
1489+227214791+216662163+206569871+197354460+189208533+182377181+176761859
1475+171455442+165076886+157443653+150394414+145519994+142571077+139960021
1462+136618681+133907754+135334055+143273229+155437867+168169682+179699449
1448+189098275+195574202+198990155+200272951+200879588+202105387+204356405
1435+206735283+208332963+209312796+210106133+210893131+211811391+212965128
1421+214503916+216597473+218962601+221195410+223436750+225877162+228369456
1408+230727574+232920512+234856104+236303218+237067908+236818321+235014249
1394+231320641+225920796+219195900+211535205+204238067+199699897+200107410
1381+206534433+218084277+231822935+244709557+255158808+263203987+269849811
1367+275622852+280201872+283197387+284434294+284191536+283168804+281891485
1354+280482104+278891588+277176692+275921022+276321228+279041537+283189139
1340+287304912+290859010+294217849+297886380+302129910+306942796+312211481
1327+317839496+323739521+329781170+335841014+341811297+347512559+352797430
1313+357600573+361782609+365140005+367541577+368955160+369539438+369689283
1300+369805804+370107479+370675082+371590237+372893793+374469463+376076499
1286+377370932+377974359+377621396+376239308+374107891+372096628+371450855
1273+373108020+377161808+382829668+389007270+394856419+399910388+403925954
1259+406744614+408249948+408365387+407022680+404111289+399528584+393308687
1246+385686395+377165107+368614283+361198434+356172326+354834027+358250187
1232+366557016+378634462+392566291+406450000+418878916+429097755+437126800
1219+443434428+448387727+452239788+455288396+457767468+459794684+461446024
1205+462781797+463854220+464695611+465306127+465714323+465982054+466146230
1192+466132982+465915250+465554323+465057519+464399477+463612158+462728240
1178+461708756+460506952+459117004+457509324+455602004+453322675+450648809
1165+447600717+444231954+440641181+436997522+433434224+429868270+426022807
1151+421636364+416552215+410645747+403860619+396361548+388555853+380931189
1138+373896886+367739077+362499336+357941682+353825033+349996966+346236863
1124+342271091+337803849+332417510+325533696+316446790+304405168+288773185
1111+269191796+245761000+219486519+192792927+169181100+151682481+141152224
1097+136161130+134750988+136054867+140264402+147478499+156795457+166183445
1084+172878960+174010339+167164747+151114092+127135564+100132906+77429919
1070+64902079+63422447+68043219+70681853+65891416+54770766+42570436+33670795
1055+29718843+31058769+38494364+54009101+80500338+120335900+173318380+235364171
1040+298946844+355705445+399566960+428085178+441259274+439056336+419999328
1026+381660313+323698696+253781153+189797218+151538035+148793847+177862606
1013+226606647+282897413+340269983+396308094+448499737+493235092+527338284
999+549567353+560736682+562641991+556997919+545041684+527433490+504304627
986+475411692+439977006+396547476+343604003+281228702+213763555+150924002
972+103827500+79287058+79453411+105584948+158560508+235542934+328299314
959+425019534+513992461+587290699+642488785+681456976+707819292+725129444
945+736192072+742979391+746758617+748318978+748225782+746832225+744255370
932+740559803+735822227+730061093+723233568+715221095+705787694+694649448
918+681563213+666358163+649165949+630721518+612349562+596029461+584512555
905+580000648+581458896+583693638+580021628+565813949+539563437+502485967
891+459194272+418266700+389071059+375828483+377698560+396445259+436665460
878+494864061+556504878+607021521+640333991+657137804+660084659+651100072
864+631778322+606665903+586229565+583061215+600951264+630325487+657932546
851+677352698+688903418+694919139+697325015+697280376+695554139+692810686
837+689525995+685846924+681717646+677226667+672611204+667988885+663204504
824+658098164+652749557+647162959+641206414+634785023+627721003+619862190
810+611370026+602816625+595335337+590364616+588573688+589028379+589731472
797+589241730+587363689+584397246+580656473+576482762+572056113+567323537
783+562275651+556887765+550968745+544405859+537248386+529740139+522670243
770+517295399+514037048+511572203+507778802+501171792+491666948+481168857
756+473757878+473245353+479313032+487562567+493817927+496988081+497901844
743+497370607+495816948+493645195+491333134+489041948+486653701+484206124
729+481810351+479379630+476894785+474593342+472275713+469765765+467189941
716+464800096+462594220+460442725+458330921+456284118+454306128+452391077
702+450512727+448639428+446811284+445145408+443701129+442381800+441050150
689+439742367+438671336+437915924+437282007+436581800+435837728+435103914
675+434187213+433124688+433112729+434704430+435581079+434587058+433934894
662+434474223+435399481+436318038+437181800+437991852+438989996+440367006
648+441962882+443536026+445068707+446732779+448723603+451086129+453640458
635+456179272+458700457+461335663+464164941+467123188+470204683+473384682
621+476745455+480460970+484349166+488025041+491704989+495710144+499907823
608+504242874+508847204+513599110+518211739+522661738+527210346+532015294
594+536960757+542098591+547607353+553249466+558593022+563715083+569105753
581+574898329+580830957+586645699+592280492+597811574+603360388+609093119
567+614988788+620910231+626800797+632671879+638533528+644383217+650282959
554+656214195+662111463+668030122+674014296+679972749+685917955+691915943
540+697873056+703741251+709416560+714840889+720132486+725370114+730779289
527+736393567+741793205+746866555+751878668+756746966+761224801+765429336
513+769571965+773492273+776921242+779667788+781478509+782579953+783225210
500+782844643+780874283+777351500+772582737+766614955+759480007+751838101
486+744780576+739778154+738353206+740758824+745176452+748614957+748692586
473+744315009+736185629+727568516+723135527+726874650+740633721+763627481
459+792975312+823116133+847313450+864302829+876779889+886149888+892523598
446+896041742+898001433+899547618+900422360+901058546+902966174+907076999
432+913978029+924133594+936998129+951308849+965929981+980284721+994256266
419+1006961110+1017079562+1025381417+1033645849+1042156363+1050050795
407+1056664196+1061768113+1065553680+1069088318+1073741823
##END=
