##TITLE=6
##JCAMP-DX=4.24
##DATA TYPE=INFRARED SPECTRUM
##DATE=16/11/2015
##SAMPLING PROCEDURE=Instrument type and / or accessory
##ORIGIN=Default
##XUNITS=1/CM
##YUNITS=TRANSMITTANCE
##RESOLUTION=4
##FIRSTX=3996.3359
##LASTX=399.24785
##DELTAX=-1.9287336
##MAXY=0.60196722
##MINY=0.0068530552
##XFACTOR=1
##YFACTOR=5.6062566e-010
##NPOINTS=1866
##FIRSTY=0.050432615
##XYDATA=(X++(Y..Y))
3996+89957736+90114781+90214082+90299795+90383547+90419648+90416386+90423987
3981+90486091+90655681+90879414+91009262+91028758+91065179+91185338+91336615
3965+91465453+91550281+91576256+91568130+91591327+91678966+91751568+91735262
3950+91721121+91810840+91946901+92039757+92086071+92110186+92119874+92130898
3935+92174249+92254353+92317552+92339574+92371230+92429937+92464192+92442961
3919+92403783+92416787+92490545+92544728+92537518+92525118+92555638+92606532
3904+92652654+92714896+92765929+92703912+92545731+92466311+92558436+92677034
3888+92669366+92613010+92619675+92661412+92680137+92626845+92507842+92435745
3873+92489655+92614951+92713002+92755656+92769298+92716092+92550788+92370984
3857+92343075+92519955+92718883+92682350+92470870+92280587+92173757+92150879
3842+92197134+92255469+92270992+92230485+92157431+92084011+92014307+91945532
3827+91908401+91940309+92016905+92033198+91956875+91894068+91853474+91755754
3811+91649749+91640087+91734125+91833659+91848457+91754067+91581207+91438308
3796+91392313+91381129+91350297+91320787+91298082+91255634+91176839+91087273
3780+91024126+90976695+90934507+90897874+90862709+90860848+90872092+90801955
3765+90649189+90526857+90487805+90450926+90363512+90304924+90371147+90526751
3749+90580441+90441490+90265826+90199610+90158538+90051349+89917854+89770191
3734+89599039+89456500+89344580+89204851+89028024+88861324+88725935+88559148
3719+88311487+88046037+87833076+87658056+87445925+87131642+86741116+86344091
3703+85961725+85533010+84953896+84211104+83446684+82798203+82230425+81639489
3688+81050939+80554001+80140411+79781335+79528743+79436073+79442898+79361079
3672+79118873+78851776+78602706+78302949+77967462+77638800+77318191+77013011
3657+76746272+76485906+76158739+75789583+75469804+75158412+74748130+74250004
3641+73714194+73178357+72707873+72333334+72005722+71670561+71303019+70851865
3626+70261122+69592680+69006303+68566511+68144076+67627876+67063606+66496844
3611+65915550+65304148+64631732+63922099+63257717+62650648+62032574+61349520
3595+60608895+59879075+59217338+58576034+57857363+57083308+56380791+55776426
3580+55162971+54472349+53739059+53003066+52309051+51714534+51156746+50488524
3564+49713548+48934074+48174727+47426327+46733027+46113398+45476629+44746649
3549+43969179+43226377+42541772+41884424+41244934+40635040+40030396+39431765
3533+38877659+38327738+37708120+37035243+36370183+35719035+35070059+34456780
3518+33898829+33360322+32817116+32311394+31864503+31391188+30812505+30184089
3503+29614423+29121526+28672841+28246253+27829313+27417553+26968324+26488688
3487+26061125+25664793+25197532+24667705+24197530+23842096+23525142+23148374
3472+22671770+22161695+21780532+21569185+21345355+20967097+20522839+20167726
3456+19898707+19625958+19341038+19064447+18796263+18567797+18355684+18044011
3441+17635261+17222139+16827966+16508095+16314634+16180599+16021530+15851649
3425+15721016+15608470+15455455+15240808+14989065+14703586+14428547+14281738
3410+14218151+14095980+13931973+13757023+13562474+13433167+13374022+13265387
3395+13092187+12965846+12966617+13033809+13054238+12988539+12853092+12718439
3379+12631003+12558039+12474695+12365611+12249044+12223941+12327281+12448580
3364+12492904+12490748+12510671+12561831+12597757+12600753+12619433+12700562
3348+12840567+13000021+13133589+13220239+13269014+13334524+13471631+13660006
3333+13868867+14050179+14136567+14197157+14347540+14569355+14810571+15071769
3317+15333262+15557741+15751747+15941390+16120780+16260457+16401159+16664092
3302+17075814+17481925+17745058+17962332+18280112+18653164+19008842+19362858
3287+19730928+20107595+20478972+20849838+21238605+21644229+22036326+22408034
3271+22846605+23391187+23945518+24457262+24960220+25485770+26045862+26623968
3256+27191142+27737939+28295242+28909491+29610304+30387748+31158780+31878327
3240+32597965+33313043+33971903+34653083+35498119+36465710+37405718+38320565
3225+39275857+40194913+41019832+41890992+42911357+43993668+45047167+46061532
3209+47063865+48088775+49155029+50274705+51436472+52566072+53619521+54683613
3194+55823518+56994041+58151340+59274271+60374291+61514134+62705654+63886243
3179+65064367+66290952+67522627+68725523+69920492+71098430+72261583+73414157
3163+74545488+75693923+76886134+78061553+79148722+80173416+81226816+82338670
3148+83465010+84557276+85584701+86549358+87508453+88537685+89624648+90658406
3132+91578402+92438702+93313135+94227045+95144856+95987108+96728191+97457998
3117+98263644+99108846+99910258+100638657+101301417+101937644+102598252
3103+103266049+103885239+104441987+104934552+105368117+105796546+106252338
3090+106708356+107137436+107521404+107850611+108113489+108321892+108565613
3076+108881511+109146549+109257917+109281513+109322159+109363577+109350919
3063+109320651+109296969+109201974+108988022+108703953+108402800+108127709
3049+107881702+107555605+107068914+106500258+105944866+105379234+104734707
3036+103974885+103103243+102199313+101307324+100322892+99161088+97877476
3022+96562800+95207477+93712592+92044016+90236874+88281671+86173344+83917321
3007+81448137+78707987+75707425+72468186+68989172+65244756+61203067+56817805
2991+52061217+47004739+41770813+36482179+31289890+26435878+22261579+19059108
2976+16895646+15595587+14909091+14621911+14550351+14694393+15350520+16880509
2961+19433907+22824615+26441983+29499500+31509091+32303490+31868260+30400486
2945+28295587+26038077+24188223+23250941+23422555+24526658+26184793+28138596
2930+30350885+32783350+35385153+38162268+41050927+43931010+46667409+49035341
2914+50824007+51950504+52456687+52536014+52403468+52163764+51853648+51453201
2899+50891047+50065723+48867319+47214359+45091366+42526967+39553260+36313924
2883+33213453+30984827+30479138+32101256+35508857+40014166+45143538+50676544
2868+56415052+62175884+67854147+73330000+78491211+83419792+88357078+93531193
2853+99002029+104604228+110082806+115206101+119849211+124010049+127737707
2839+131124111+134263019+137201638+140002455+142781370+145606787+148433067
2826+151160564+153718763+156129845+158457932+160684246+162740437+164662562
2812+166558931+168482318+170433574+172379381+174297372+176177913+177958130
2799+179600266+181112986+182456222+183588709+184535910+185339528+185996601
2785+186475577+186810492+187104581+187400823+187664771+187852782+187932813
2772+187917822+187864171+187807012+187743606+187680334+187620782+187577777
2758+187613460+187706661+187743022+187706900+187618324+187431244+187175615
2745+186957836+186828154+186821124+186994821+187413023+188127893+189067107
2731+190026442+190824279+191414331+191899726+192433257+193135408+194094650
2718+195316829+196665009+197957332+199111388+200112360+200954585+201669361
2704+202298592+202865426+203381614+203857480+204327592+204775537+205100286
2691+205300775+205474605+205595914+205562836+205377377+205129138+204928210
2677+204936888+205302197+205990301+206857126+207780830+208661104+209455207
2664+210161332+210783559+211370328+211975810+212573264+213088668+213533064
2650+213996664+214528334+215098930+215619211+216024522+216358400+216693010
2637+217022237+217309828+217559835+217793522+218040339+218313497+218563770
2623+218723459+218777854+218782360+218778692+218736829+218647349+218558294
2610+218501162+218472748+218448282+218405010+218359107+218311982+218222542
2596+218098495+217993214+217901966+217781986+217643773+217527315+217451510
2583+217416478+217416398+217461012+217570081+217769348+218036884+218281043
2569+218477692+218677969+218881448+219050614+219176268+219262054+219297976
2556+219291291+219288407+219315372+219345367+219376319+219453891+219600637
2542+219807678+220074683+220409332+220801340+221231888+221688790+222148709
2529+222590275+223031840+223491932+223939876+224372564+224820217+225263616
2515+225696225+226141564+226601709+227111478+227689582+228256763+228761455
2502+229241826+229709041+230139364+230541193+230921067+231269711+231612640
2488+231958652+232276118+232586753+232918731+233252968+233606848+234001368
2475+234394133+234744664+235081533+235453062+235866001+236310012+236750541
2461+237164357+237595398+238050147+238490596+238901010+239256591+239578230
2448+239926687+240295478+240653345+241013816+241380348+241698053+241919513
2434+242081595+242256648+242462772+242672006+242875100+243076972+243234907
2421+243305954+243330594+243363472+243417083+243509872+243657894+243847831
2407+244072720+244329904+244602689+244887595+245188980+245491987+245788083
2394+246076976+246360685+246635172+246872208+247017386+247023074+246911174
2380+246767777+246678949+246648116+246570265+246337136+246011271+245752918
2367+245622120+245689925+246006992+246544589+247315581+248186725+248875108
2353+248995194+248397368+247681422+247631479+248247140+248857300+249110629
2340+249302906+249686820+250209055+250729641+251265803+251860865+252407580
2326+252802498+253189124+253760583+254349639+254711997+254907676+255132937
2313+255442589+255805957+256195560+256569374+256877723+257128793+257368647
2299+257622614+257896676+258174618+258414817+258610947+258794054+258960415
2286+259077046+259162605+259250637+259328727+259388664+259432759+259440175
2272+259405622+259367746+259349326+259317564+259267329+259262730+259356662
2259+259546945+259797218+260048075+260268712+260496126+260767530+260995370
2245+261217415+261418090+261608027+261828265+262091722+262383352+262694572
2232+263017486+263302126+263515454+263727053+263982163+264239028+264484277
2218+264728197+264948116+265114052+265226510+265288201+265285650+265260133
2205+265301518+265446110+265686230+266054888+266562875+267096433+267572180
2191+268047661+268545335+269017760+269459485+269885209+270278267+270626246
2178+270959128+271293312+271619682+271929307+272191700+272416882+272658038
2164+272933109+273250549+273585185+273868921+274119539+274422014+274766830
2151+275072681+275325904+275560016+275764440+275925830+276103222+276363303
2137+276671253+276965568+277265172+277590931+277940983+278322027+278707510
2124+279076647+279446607+279821724+280185571+280515369+280823107+281159577
2110+281522574+281867948+282209043+282581794+282981364+283384629+283775108
2097+284175742+284589478+284964701+285264678+285511469+285731095+285912527
2083+286024693+286065997+286062675+286016692+285919810+285804375+285699997
2070+285597905+285548255+285653164+285919225+286280148+286728758+287278794
2056+287880262+288490076+289104860+289690992+290199777+290605886+290911577
2043+291147656+291334457+291474159+291601661+291796250+292132188+292596134
2029+293110687+293670345+294328799+295069810+295802049+296459786+297054210
2016+297617457+298145433+298625485+299061575+299452534+299794825+300108915
2002+300404532+300668972+300914540+301175657+301478690+301789113+302006560
1989+302130473+302261112+302425745+302591097+302749192+302930171+303155672
1975+303410224+303667780+303878635+304040159+304209843+304366821+304472608
1962+304565184+304638198+304617466+304494775+304301834+304015892+303617438
1948+303115564+302523345+301902421+301329340+300843732+300501468+300348848
1935+300369235+300528712+300823505+301299199+302029631+303111019+304513992
1921+306025383+307554078+309025547+310244218+311240365+312157013+312990759
1908+313702054+314319363+314879553+315377148+315835618+316303604+316765184
1894+317158960+317511351+317915838+318317614+318611265+318851490+319106122
1881+319371306+319658391+319966076+320233094+320462236+320817817+321346882
1867+321799664+322052595+322288249+322625889+323001564+323332266+323606301
1854+323849530+324073489+324257393+324399540+324602049+324862130+324967837
1840+324981126+325179410+325571458+326002843+326493129+327091434+327622546
1827+327989955+328303194+328584539+328844327+329138509+329448745+329757945
1813+330123201+330532499+330848051+331018585+331151137+331383841+331745668
1800+332089048+332270587+332386659+332656628+333012341+333131816+333034323
1786+332997244+333081102+333192843+333277339+333278323+333243955+333392375
1773+333751491+333978826+333917480+333745245+333634780+333707715+333897625
1759+334032570+334126103+334224314+334410424+334805183+335220834+335349930
1746+335234655+335102714+335076719+335079750+335007586+335077783+335391793
1732+335466827+335109625+334656285+334293235+333970879+333643924+333419752
1719+333393119+333289778+332756806+331924149+331131415+330539303+330099864
1705+329640942+329140343+328735324+328239802+327376686+326239906+324959039
1691+323652974+322438583+321374472+320537057+319720827+318481610+316937978
1678+315560388+314523255+313662716+312900203+312325660+311808795+311217985
1664+310820408+310763608+310758345+310650273+310726131+311442555+312635178
1651+313266495+313357716+313735012+314339590+314755267+315183995+316013808
1637+317509597+319498728+321142432+322218531+323395366+324944580+326620923
1624+328279087+329717650+330834362+332109727+333759279+335182134+336175676
1610+337110372+338090811+338973171+339735285+340445065+341104211+341666527
1597+342121515+342495090+342786960+342990559+343123031+343200803+343204312
1583+343091428+342876373+342676549+342632267+342578895+342160321+341537457
1570+341036061+340516644+339794611+338998475+338412502+338285692+338176104
1556+337249383+335769010+334371990+333156482+331970318+330826681+329841298
1543+329003990+328056962+326583978+324608056+322594073+320673543+318672451
1529+316606983+314597757+312635763+310626378+308402576+305904526+303244634
1516+300478556+297629923+294789741+291999450+288912691+284984291+280388824
1502+275697459+270853342+265365681+258910472+251760182+244073943+235173897
1489+224789943+213878930+203478922+193994126+185591423+178560422+172845705
1475+167486131+161015214+153243721+146066692+141099219+138076862+135412344
1462+132047550+129316438+130685310+138524793+150581503+163253037+174809825
1448+184302196+190868202+194319712+195590412+196169314+197391241+199697108
1435+202151461+203778300+204746645+205513757+206271632+207183615+208356556
1421+209906434+211979863+214279869+216419254+218591373+221018056+223545038
1408+225961754+228212269+230189493+231669068+232470095+232223171+230342458
1394+226539407+221076903+214317253+206561389+199102351+194445911+194829667
1381+201271320+212860708+226711589+239783849+250428176+258642604+265464503
1367+271415711+276118054+279176825+280450329+280232430+279228123+277960865
1354+276527750+274875222+273097902+271799307+272166157+274852284+278993107
1340+283179701+286846824+290280845+293987864+298269665+303145731+308521041
1327+314283640+320320514+326499482+332694716+338783260+344600427+350036949
1313+355017393+359359716+362838657+365317835+366779549+367403264+367585865
1300+367723946+368046435+368641285+369578718+370906020+372511795+374127351
1286+375407580+375997646+375616203+374188165+372000458+369870295+369061693
1273+370651335+374790032+380617273+386960316+392980524+398202868+402350018
1259+405250853+406785980+406884165+405492807+402501441+397809039+391448294
1246+383625064+374827163+365985140+358351396+353180935+351730729+355107126
1232+363531850+375910651+390246103+404506281+417257434+427812295+436195821
1219+442809842+447985646+452008190+455218837+457844628+459983216+461712001
1205+463116091+464277457+465217043+465920071+466425613+466736541+466872894
1192+466838925+466641971+466290643+465799240+465174462+464409929+463543436
1178+462546864+461319847+459872433+458216103+456238693+453876890+451159772
1165+448071817+444612093+440911586+437164857+433475939+429760813+425793208
1151+421332075+416162544+410092260+403077340+395329622+387263216+379403280
1138+372219340+365931715+360487007+355710375+351439896+347505489+343674264
1124+339660969+335117705+329589191+322535438+313312930+301126140+285222151
1111+265197406+241287559+214688064+187796832+163992745+146299954+135603425
1097+130490336+129004766+130244462+134347981+141442746+150727252+160152642
1084+166861220+167973174+161142889+145240920+121610264+95119732+72957594
1070+60805132+59395421+63855032+66387283+61785312+51123508+39431387+30904796
1055+27122676+28348959+35273110+49858948+75143235+113721914+165612860+226927415
1040+290311730+347477156+392229785+421815902+435899087+434235608+415323535
1026+376833492+318545082+248316938+184224039+145983844+143136951+171940287
1013+220460630+276694298+334241697+390831171+443911829+489594769+524514039
999+547435952+559177349+561451174+555964895+544026384+526350259+503084779
986+473911310+437973592+393850817+340083530+276879690+208884013+146011154
972+99245239+75071710+75255075+100875334+153076110+229556262+322466146
959+419945660+509990511+584457078+640752609+680561607+707463537+725122705
945+736457382+743505527+747555289+749356689+749375029+747956639+745339195
932+741625876+736876275+731099376+724217991+716121922+706563820+695163386
918+681665880+666003897+648297631+629250481+610323363+593594904+581770579
905+577001682+578270110+580380577+576549405+562006633+535169450+497278908
891+453026133+411168730+381251008+367445791+368882654+387511655+428145150
878+487362036+550428062+602388207+636835744+654309387+657524020+648604465
864+629158143+603608579+582644461+579285766+597469826+627513243+655833244
851+675642004+687286598+693318926+695729848+695715123+694049491+691276503
837+687755886+683743016+679428469+674923134+670256036+665433820+660379139
824+655005292+649397172+643618094+637523197+630847750+623422070+615289268
810+606626631+597878407+590182732+585058200+583146867+583525412+584321682
797+584044883+582234179+579124216+575269229+571054886+566476564+561517782
783+556322708+550871833+544908240+538287759+531026660+523326732+515996845
770+510423863+507200193+504897237+501125231+494444787+484859042+474090616
756+466205694+465337341+471310663+479560947+485794057+488866596+489640220
743+489116178+487764981+485769019+483448202+481058809+478561025+475946982
729+473393754+470953913+468564255+466298085+463952761+461392462+458740836
716+456257777+453964071+451722035+449497648+447352947+445363948+443508379
702+441648477+439736240+437897176+436189920+434543186+433002105+431717544
689+430671693+429723150+428812987+427939637+427128377+426407700+425715596
675+424846578+423877329+423952018+425512688+426168431+425010760+424372825
662+424883816+425651991+426443077+427314168+428171118+429176489+430594054
648+432299157+434046867+435859244+437779535+439755005+441808911+443956616
635+446212366+448725939+451571542+454576304+457527587+460584923+463886419
621+467432233+471224758+475104518+478765900+482331755+486183606+490414800
608+494897117+499543643+504268365+508930041+513511340+518258974+523381114
594+528582460+533637832+538807867+544177515+549471199+554669994+560143036
581+565997122+572041677+577976778+583524668+588931049+594649739+600691264
567+606730929+612512665+618084318+623805985+629860640+635997798+641982709
554+647908985+654004892+660253046+666495778+672517953+678158872+683680608
540+689356292+695035166+700589276+706263312+712027507+717506928+722889175
527+728523714+734100842+739256950+744368510+749656347+754505833+758572394
513+762179660+765518898+768647574+771708099+774369134+775949287+776197114
500+775302607+773391327+770216297+765556535+759495181+752197615+744140086
486+736582253+731402117+730064050+732552212+737022303+740516500+740496672
473+735868433+727738714+719485029+715305187+718889542+732366687+755354411
459+784842954+814793927+838696730+855913083+868609110+877438189+883518095
446+887849866+890444452+891397115+891326467+891676094+893649836+897434441
432+903978213+914670197+928637841+943660374+958704063+973619427+988379566
419+1001537917+1010509888+1016606486+1023344819+1031912462+1042112406
407+1052793971+1060867341+1065133142+1068620800+1073741823
##END=
