##TITLE=6
##JCAMP-DX=4.24
##DATA TYPE=INFRARED SPECTRUM
##DATE=16/11/2015
##SAMPLING PROCEDURE=Instrument type and / or accessory
##ORIGIN=Default
##XUNITS=1/CM
##YUNITS=TRANSMITTANCE
##RESOLUTION=4
##FIRSTX=3996.3359
##LASTX=399.24785
##DELTAX=-1.9287336
##MAXY=0.6027227
##MINY=0.0087005049
##XFACTOR=1
##YFACTOR=5.6132926e-010
##NPOINTS=1866
##FIRSTY=0.050352968
##XYDATA=(X++(Y..Y))
3996+89703088+89786350+89856598+89909916+89976561+90040570+90079553+90119180
3981+90141605+90149788+90210227+90317845+90440071+90594789+90735059+90772987
3965+90775641+90890892+91101403+91244912+91227763+91140432+91141435+91213740
3950+91206353+91118950+91077452+91149564+91343644+91573096+91678199+91612962
3935+91505834+91497260+91594187+91703325+91752807+91776871+91839387+91904319
3919+91918601+91928715+91976857+91994039+91930023+91850889+91830687+91862675
3904+91920924+92009097+92085232+92098060+92070897+92029445+92009920+92044304
3888+92054332+91994397+91942314+91926472+91913637+91911042+91945254+92031516
3873+92127673+92162906+92137415+92070525+91965820+91882804+91864055+91857021
3857+91828961+91825391+91859344+91857472+91778205+91657964+91558967+91543318
3842+91618755+91724223+91768821+91679148+91504653+91384591+91356472+91363746
3827+91398017+91449085+91479315+91509080+91565636+91614249+91579102+91447977
3811+91321736+91267436+91262479+91274770+91315724+91368199+91329667+91198376
3796+91080810+90978945+90859799+90801703+90859448+90945311+90956421+90879994
3780+90765627+90663629+90584854+90533480+90516676+90496422+90405912+90255873
3765+90147193+90141612+90192693+90204851+90145945+90084909+90088526+90117468
3749+90087245+90024171+89969028+89851063+89651177+89489351+89433883+89419880
3734+89349480+89201186+89051001+88950191+88856006+88731948+88573853+88370807
3719+88131248+87917557+87799573+87724739+87551260+87256530+86918750+86565699
3703+86174195+85732825+85274358+84787654+84194266+83508724+82855681+82302829
3688+81820067+81378929+80996398+80725925+80635934+80716262+80796113+80674937
3672+80406700+80175158+79981457+79738639+79444109+79118075+78780779+78472756
3657+78198242+77902577+77550010+77155866+76755416+76366182+75966576+75545765
3641+75113560+74679111+74266643+73887942+73499272+73078170+72665038+72252981
3626+71779430+71246727+70711715+70221678+69770386+69296085+68765566+68205196
3611+67643757+67100774+66588459+66077478+65518049+64909245+64298683+63697292
3595+63052776+62352899+61641607+60914845+60176090+59510451+58940922+58379178
3580+57756557+57091979+56441491+55826296+55226322+54644329+54072348+53434894
3564+52726263+52039254+51409429+50791460+50159803+49514538+48823706+48082108
3549+47342298+46637924+45973802+45368137+44829527+44294313+43686275+43036003
3533+42439427+41939867+41469150+40893389+40211274+39588072+39069678+38525083
3518+37916786+37302454+36699298+36138081+35627472+35129939+34606037+34024366
3503+33445868+32936310+32489896+32113600+31752230+31316338+30808778+30284617
3487+29823755+29469077+29089221+28558758+28030754+27665765+27363557+26991080
3472+26529090+26019824+25571370+25274525+25053792+24749645+24364118+23989262
3456+23598067+23188824+22840211+22535881+22217482+21901103+21607638+21315905
3441+21004998+20627270+20188916+19838625+19667864+19587284+19463708+19280692
3425+19112122+18979298+18838807+18655459+18439697+18193921+17931495+17726628
3410+17575797+17409258+17236716+17028720+16727936+16491823+16472474+16486296
3395+16337848+16156911+16108738+16105444+16049994+15991921+15964391+15952206
3379+15928393+15847059+15722904+15631844+15567462+15499824+15513822+15642620
3364+15758008+15802134+15877754+16024624+16143722+16137525+16053261+16071200
3348+16247392+16449241+16592511+16693650+16770077+16862006+17038978+17294709
3333+17543948+17713066+17795124+17886743+18093498+18366117+18590929+18807790
3317+19100996+19426242+19731629+19993458+20169837+20311548+20537121+20899340
3302+21362129+21812593+22162961+22440115+22714744+23056246+23499367+23985647
3287+24442217+24875018+25309576+25734965+26142310+26554963+27000355+27467907
3271+27972100+28574593+29235773+29848131+30416216+30998484+31583151+32179717
3256+32851094+33558942+34241215+34946216+35703195+36476890+37231161+37958968
3240+38713899+39539081+40380951+41214498+42132420+43141945+44125104+45063001
3225+46028510+47010169+47971354+48979562+50051222+51100325+52114486+53130436
3209+54195987+55355678+56538457+57667401+58796789+59975076+61163682+62329718
3194+63492873+64681884+65875149+67028449+68156868+69326049+70553878+71795669
3179+73032802+74252169+75409251+76527059+77695789+78930453+80153815+81319200
3163+82449112+83579410+84723578+85855355+86941261+88002731+89080726+90152827
3148+91172998+92173365+93199615+94193956+95108758+96018955+96988176+97954684
3132+98833111+99666542+100542448+101421465+102223566+102960926+103688438
3119+104420948+105130362+105802259+106460838+107134600+107818709+108464485
3105+109026714+109520546+109996314+110485992+110983554+111465401+111912718
3092+112295142+112608401+112917850+113254270+113553764+113782646+113980800
3078+114175092+114355300+114474652+114491735+114451477+114447641+114496407
3065+114512175+114447920+114343886+114218694+114047935+113802011+113463826
3051+113078269+112701578+112284550+111775341+111220194+110642827+110021161
3038+109344983+108605087+107807507+106951823+106011755+104988227+103891703
3024+102698066+101407920+100050354+98600991+97008531+95272767+93415714+91413387
3009+89227918+86859870+84293297+81464076+78336720+74950579+71331131+67366030
2993+62962340+58227944+53267026+48042176+42576538+37066667+31851251+27331152
2978+23792958+21315708+19817214+19079411+18802472+18766574+18987080+19774905
2963+21559956+24524347+28407657+32524708+35995296+38195140+38965925+38438661
2947+36855754+34553605+32034114+29969277+28928922+29092715+30306945+32223797
2932+34466921+36895965+39548316+42412781+45459230+48635394+51792832+54756905
2916+57336695+59308395+60545733+61093494+61144310+60962701+60705050+60381279
2901+59973443+59413956+58542550+57202033+55330320+52966135+50156747+46923976
2885+43408904+40046751+37641290+37110399+38893809+42661174+47679000+53331566
2870+59294445+65396992+71465335+77351013+82953484+88199047+93171104+98117080
2855+103263142+108676005+114213544+119625890+124676796+129183280+133111083
2841+136617465+139847262+142805027+145525455+148147251+150776852+153406572
2828+155976245+158455633+160836377+163112010+165249537+167215868+169055028
2814+170814644+172519560+174227782+175961196+177718926+179503707+181251270
2801+182863952+184304389+185615227+186800967+187780960+188543499+189168092
2787+189702255+190132316+190444845+190689734+190926327+191121587+191222781
2774+191242014+191189413+191085352+190986507+190904718+190819425+190747352
2760+190731172+190763014+190768987+190708143+190616121+190521178+190396425
2747+190224538+190027897+189845591+189761081+189915540+190396770+191124852
2733+191932109+192692578+193351880+193899422+194359069+194827769+195440628
2720+196296093+197395225+198615249+199785193+200774716+201562063+202218949
2706+202827574+203423895+203995952+204538039+205026515+205412869+205695533
2693+205924056+206131169+206274041+206303056+206206375+205995518+205758474
2679+205613877+205669425+206029816+206662213+207417360+208217953+208991377
2666+209651740+210254419+210859646+211423089+211951995+212476084+212958415
2652+213393282+213805889+214210719+214644643+215079590+215440060+215752284
2639+216064732+216349228+216577313+216768645+216959804+217167674+217369266
2625+217528411+217643767+217720061+217741948+217723578+217696408+217660637
2612+217606815+217550762+217519358+217510094+217487689+217417023+217309564
2598+217225611+217166174+217067622+216943717+216865472+216836072+216791607
2585+216707841+216652067+216683299+216780577+216919281+217105875+217300352
2571+217466053+217653377+217863357+218022356+218136982+218253985+218369315
2558+218444852+218445940+218422288+218466766+218574610+218683861+218770521
2544+218857738+219002694+219240508+219553713+219919334+220318894+220726724
2530+221138044+221547957+221946655+222355426+222776887+223185088+223580043
2517+223977041+224392330+224837483+225306236+225782395+226239441+226670153
2503+227104874+227555841+228005799+228432582+228820608+229184132+229541656
2490+229873325+230158696+230436502+230740589+231039632+231330525+231653460
2476+232006179+232348891+232649022+232928182+233260620+233661415+234072669
2463+234490214+234935022+235361699+235749645+236138972+236519432+236845579
2449+237132039+237438276+237783297+238133760+238460809+238735987+238950773
2436+239149312+239361389+239576971+239785253+239993269+240199957+240373888
2422+240504522+240603592+240663826+240699052+240759976+240873886+241025969
2409+241199130+241414738+241694960+241985853+242237060+242478922+242707406
2395+242913616+243133817+243423702+243760308+244025292+244138034+244131928
2382+244069597+243957095+243821337+243715657+243590545+243389245+243245577
2368+243287546+243413774+243525958+243678492+244012868+244642783+245477024
2355+246247687+246488806+245969616+245317110+245366167+246065500+246696477
2341+246982167+247161328+247355221+247613436+247986835+248551260+249234188
2328+249763864+250029406+250213504+250533280+250962054+251347531+251650609
2314+251932875+252196877+252443943+252717024+253025145+253320233+253581076
2301+253851422+254166260+254502627+254820120+255095457+255329913+255523780
2287+255667289+255758050+255818682+255882685+255951280+255995719+256013053
2274+256028424+256054572+256093143+256134847+256154598+256163570+256224945
2260+256365667+256533810+256696830+256879229+257105005+257385094+257701445
2247+257931255+258127883+258324883+258535075+258752303+258991511+259282696
2233+259604542+259914629+260214441+260490840+260709422+260905067+261141727
2220+261412843+261642309+261780933+261892268+262042944+262190541+262274400
2206+262296089+262306787+262384195+262598237+262967230+263464626+264027989
2193+264550206+264976114+265388774+265878578+266386593+266811863+267149637
2179+267443875+267743954+268066756+268380293+268663089+268902377+269113791
2166+269370546+269697728+270036192+270345960+270631384+270891245+271131356
2152+271392384+271694268+272005947+272284815+272493017+272650834+272838860
2139+273100208+273403764+273692825+273967871+274271002+274619819+275005588
2125+275383075+275709089+276007017+276335341+276699050+277054637+277391375
2112+277712372+278021317+278354339+278710775+279046372+279380031+279770579
2098+280189823+280573097+280925418+281275324+281616177+281944368+282237756
2085+282431278+282506245+282511819+282479061+282422969+282368735+282308077
2071+282221032+282146491+282164569+282304786+282545400+282891589+283358537
2058+283915423+284495750+285060759+285620114+286158976+286636462+287030143
2044+287330593+287559209+287752385+287928891+288105928+288328650+288652620
2031+289071015+289552616+290104034+290715924+291351201+291960118+292515969
2017+293051671+293573649+294048455+294501651+294958167+295361218+295680329
2004+295954977+296215156+296483326+296764291+297011595+297217726+297436494
1990+297651306+297815998+297972568+298162453+298368345+298571158+298770308
1977+298971342+299180340+299386817+299569348+299750314+299947181+300109351
1963+300218456+300334065+300469397+300538789+300478662+300307386+300049198
1950+299720954+299340308+298887350+298377795+297903335+297519796+297257997
1936+297154679+297192056+297354413+297663198+298140791+298826347+299788700
1923+301017709+302367929+303745916+305064439+306168921+307073084+307902149
1909+308684280+309365402+309920377+310402005+310864307+311308903+311731678
1896+312134251+312490448+312815559+313186542+313563764+313841039+314073717
1882+314351921+314660255+314965457+315250191+315500628+315728049+316020217
1869+316448779+316898657+317242617+317536775+317870965+318241046+318583810
1855+318865997+319104408+319302522+319433554+319511521+319678841+320006209
1842+320289192+320445257+320649079+320974270+321347217+321768771+322294545
1828+322793083+323154934+323494752+323833482+324122941+324410915+324716807
1815+325020044+325349270+325722589+326064133+326314304+326500207+326692110
1801+326966412+327272330+327463038+327576709+327814802+328165769+328368529
1788+328388040+328436142+328575642+328718965+328816151+328839167+328837733
1774+328992763+329324591+329535580+329502185+329410813+329385355+329478081
1761+329651852+329808661+329960638+330080759+330181077+330431939+330791507
1747+330994267+330999337+330974756+331025432+331059677+330953306+330915584
1734+331148978+331314414+331160340+330885162+330632071+330389837+330106456
1720+329827190+329709112+329661674+329353951+328759156+328117561+327604078
1707+327222476+326815815+326335010+325925243+325489460+324794905+323906484
1693+322896241+321810581+320768032+319836234+319045449+318258885+317202691
1680+315928686+314749450+313843747+313131778+312517605+312061116+311681665
1666+311233246+310907869+310888836+310953874+310881217+310885252+311480232
1653+312612640+313240219+313268756+313570347+314197077+314667290+315062987
1639+315750189+317022575+318796631+320337612+321348014+322370839+323708184
1626+325208708+326734238+328068451+329108770+330311127+331886830+333267657
1612+334241080+335149757+336114526+337007115+337783777+338485951+339101929
1599+339606918+340049708+340486101+340872428+341148217+341314847+341387902
1585+341383071+341310573+341168073+341020423+341009778+341006141+340647529
1572+340062105+339619288+339236014+338655422+337922481+337306503+337082135
1558+336990577+336316303+335092205+333803519+332643716+331560816+330496924
1545+329506910+328670917+327837631+326602410+324868200+323012009+321267897
1531+319525962+317695495+315833650+313975150+312069637+310017085+307792035
1518+305425255+302933841+300352594+297716556+295033611+292113183+288613438
1504+284604589+280418572+275990293+270926817+264977468+258373913+251181140
1491+242763577+232968877+222734201+212973706+204031059+196063933+189342952
1477+183841782+178690385+172464848+164931593+157940690+153116568+150224744
1464+147677357+144370284+141634472+143040850+151046004+163306408+176062921
1450+187539641+196854267+203243208+206558165+207718699+208210772+209346724
1437+211526354+213855398+215423137+216392432+217199477+218008061+218941956
1423+220099756+221592634+223601465+225943053+228217797+230492621+232962029
1410+235521560+237981464+240274844+242289329+243763307+244488736+244220008
1396+242507406+238995450+233789421+227226296+219710973+212577623+208228625
1383+208782339+215199884+226541617+239917400+252360880+262375701+270054031
1369+276405396+281928307+286265585+289080943+290307988+290177992+289233265
1356+287952862+286531632+284979342+283337274+282145800+282562523+285219877
1342+289245954+293251113+296725480+299994247+303515840+307539103+312122836
1329+317217743+322687801+328387669+334181325+339955602+345622420+351043739
1315+356088898+360662039+364609168+367743319+369973545+371317898+371909321
1302+372074385+372214496+372567985+373181256+374082526+375315093+376813069
1288+378356412+379624604+380287303+380056856+378793575+376758569+374826935
1275+374213744+375784722+379595642+384933712+390809502+396423838+401273883
1261+405108216+407809797+409288580+409456432+408231829+405529372+401268414
1248+395436425+388214743+380130627+372058033+365064993+360330902+359140968
1234+362521920+370570331+382215434+395621585+408882078+420638197+430328995
1221+438026386+444038039+448674652+452282122+455168597+457486665+459327325
1207+460788163+461968354+462966598+463790061+464369671+464704047+464882225
1194+464978428+464963509+464770943+464402694+463915890+463323803+462610082
1180+461803715+460910806+459866585+458588810+457018921+455154050+453029929
1167+450632700+447865842+444696226+441289153+437859145+434479415+431092464
1153+427509868+423448431+418687476+413122834+406757293+399710789+392275383
1140+384990441+378394851+372663393+367692457+363329482+359396794+355748337
1126+352252414+348625672+344460705+339330014+332745786+324090316+312587554
1113+297479286+278363019+255377750+229507067+203079537+179536771+162006334
1099+151531547+146740740+145603913+147210781+151705571+159109639+168503664
1086+177878310+184472705+185402977+178255545+161768613+137111264+109184120
1072+85585142+72603815+71329651+76548183+79558490+74460656+62388179+48998914
1057+39157536+34837868+36484924+44912524+62093649+90696049+132546127+186699122
1042+248431988+310221331+364393852+405757961+432482529+444758981+442577600
1028+424425756+387654114+331533129+263158283+199854187+161447484+158348015
1015+187112832+235236560+290236898+345612810+399142222+448603030+490721928
1001+522730863+543707780+554533004+556872786+552236014+541682783+525846326
988+504859800+478281581+445108886+403803895+352693108+291554572+224440803
974+160996809+112761453+87355561+87500689+114359946+168042649+244624387
961+335063535+427414939+510669914+578162736+628474376+663787464+687622982
947+703336424+713487586+719807547+723439758+725107391+725290666+724324490
934+722347701+719391515+715506478+710688873+704838249+697872578+689657059
920+679896710+668305310+654730537+639265143+622548042+605869699+591135866
907+580819692+576868024+578376539+580656486+577565499+564684750+540456454
893+505980952+465471869+426954176+399541026+387419286+389649486+407602737
880+445264766+499075647+555490631+601348350+631445587+646653907+649404465
866+641332189+623823587+600951962+582194467+579146538+595423131+622334717
853+647721330+665610339+676291735+681949634+684295097+684380098+683019552
839+680802572+677953899+674588371+670920589+667092414+663048896+658795610
825+654382303+649767193+645006237+640106020+634849288+629056534+622648334
812+615531615+607847232+600129932+593345731+588816258+587213346+587624440
798+588226349+587740022+585957922+583203276+579838916+576111404+572052224
785+567608124+562844514+557824308+552454861+546495025+539823062+532818580
771+526349164+521455318+518478692+516265164+512794513+506648589+497800208
758+487950239+480877109+480342893+486152477+494078855+500110577+503139659
744+503887943+503261930+501928674+500261360+498340317+496171333+493868768
731+491565460+489325386+487120458+484927051+482851775+480748413+478525434
717+476264547+474119401+472035418+469928074+467874088+465905899+463982468
704+462120039+460394111+458836645+457405752+456080778+454845317+453615432
690+452368822+451218309+450248524+449401328+448607915+447909166+447319044
677+446725258+445891707+444900260+444989933+446686501+447553553+446611959
663+446181645+446883155+447802291+448703959+449747172+450855794+451916952
650+453031468+454342638+455902812+457749525+459849702+462058558+464232427
636+466315932+468420887+470801073+473620864+476712912+479698192+482651086
623+485771592+489040067+492521336+496248954+499969245+503675945+507553284
609+511551301+515604641+519793314+524170942+528706467+533274697+537795303
596+542440730+547353636+552381275+557354812+562384521+567593258+573022860
582+578726683+584470645+589997936+595372268+600663989+605761072+610819398
569+616320515+622235965+628027179+633422854+638734006+644278818+649860264
555+655368389+661059099+666989202+672882672+678703989+684652887+690540357
542+696008132+701140787+706347507+711854942+717592373+723272676+728603101
528+733616830+738557768+743551853+748601366+753586849+758171485+762239903
515+766017321+769766283+773658381+777409359+780445130+782456005+783588626
501+784023665+783623826+782182155+779519305+775715075+770858234+764720221
488+757542977+750610382+745968194+745186780+747860249+751823225+754759607
474+754981746+751203478+743840357+736302456+733005736+737096188+750065813
461+771350295+798290020+826103540+849006171+865530228+877551411+885982432
447+891483655+895218175+898099288+900260680+901690033+903006088+905204432
434+909513943+916645422+926244529+937596854+949881057+962140413+973893904
420+985885143+998297404+1008688969+1016487819+1024354309+1033631252+1043317431
407+1051320793+1056372748+1060324628+1066007533+1073741823
##END=
