##TITLE=6
##JCAMP-DX=4.24
##DATA TYPE=INFRARED SPECTRUM
##DATE=16/11/2015
##SAMPLING PROCEDURE=Instrument type and / or accessory
##ORIGIN=Default
##XUNITS=1/CM
##YUNITS=TRANSMITTANCE
##RESOLUTION=4
##FIRSTX=3996.3359
##LASTX=399.24785
##DELTAX=-1.9287336
##MAXY=0.61292809
##MINY=0.0071291593
##XFACTOR=1
##YFACTOR=5.7083377e-010
##NPOINTS=1866
##FIRSTY=0.050932545
##XYDATA=(X++(Y..Y))
3996+89224829+89406984+89490785+89455472+89383457+89393873+89470045+89500352
3981+89489519+89525934+89648121+89864923+90111432+90269075+90358501+90452770
3965+90504665+90502133+90523323+90574037+90660971+90831980+90992253+91006408
3950+90910253+90844242+90886328+90978033+90997441+90922940+90879372+90914462
3935+90954108+91036043+91194267+91319671+91393807+91476460+91527461+91511120
3919+91497474+91518050+91500756+91440932+91431756+91506819+91605728+91651854
3904+91622676+91585712+91607438+91641849+91601779+91497219+91438289+91493923
3888+91596409+91636139+91565690+91472505+91498740+91595534+91599841+91516954
3873+91467473+91497180+91534235+91515270+91474156+91426261+91345195+91256349
3857+91214837+91254078+91354507+91422992+91399942+91324474+91265081+91241685
3842+91208122+91149498+91114975+91099097+91054400+91015296+91032864+91058114
3827+91010010+90917086+90901162+90973608+90998250+90943934+90862893+90752929
3811+90659411+90629802+90595358+90524772+90522912+90589471+90564705+90447262
3796+90375691+90351532+90309099+90266863+90256604+90268710+90249425+90151293
3780+90033308+89985485+89998714+89998955+89943405+89859663+89776273+89681032
3765+89587305+89528512+89502532+89477876+89434315+89397952+89400582+89395067
3749+89301327+89148076+89017887+88918182+88811697+88703038+88605878+88551236
3734+88567525+88560640+88413614+88174324+87987039+87899205+87816030+87652553
3719+87437898+87232386+87055700+86919645+86761558+86444489+85985904+85542485
3703+85188074+84845352+84376671+83723916+82979195+82296623+81722826+81150589
3688+80504700+79897451+79444536+79143659+78972690+78926687+78969485+78963912
3672+78792531+78523638+78253023+77976064+77667329+77341679+77056171+76856285
3657+76708665+76495870+76129276+75687834+75319387+74998024+74598167+74111734
3641+73610853+73146212+72714226+72293916+71891735+71530185+71189343+70780100
3626+70249291+69675632+69182445+68781654+68340689+67771924+67139902+66511437
3611+65871747+65224910+64607618+64014184+63424210+62825510+62192170+61548825
3595+60963725+60398289+59734655+58942262+58098267+57330673+56701712+56135694
3580+55535513+54878894+54170566+53413528+52613519+51832902+51191610+50678512
3564+50130305+49457201+48690710+47903998+47187790+46582032+45988076+45280515
3549+44475322+43679972+42963076+42307250+41660358+41003100+40358927+39757085
3533+39195847+38683947+38221815+37685360+36975943+36216447+35551113+34980576
3518+34462411+33963814+33479239+33028478+32566068+32023058+31417708+30824079
3503+30296360+29797952+29280227+28784855+28325055+27863536+27430555+27038803
3487+26603959+26102059+25589723+25102021+24683047+24355761+24082598+23793262
3472+23394327+22858481+22299689+21844461+21511997+21280824+21092114+20835903
3456+20492032+20144290+19828549+19518027+19230377+19001647+18760733+18424876
3441+18034863+17631980+17257046+16987476+16795841+16631468+16514960+16416950
3425+16264773+16048716+15811804+15598734+15423281+15222704+14950042+14687968
3410+14520943+14394142+14225850+14018793+13798299+13614212+13502023+13420214
3395+13351211+13314528+13288939+13237474+13184925+13165532+13136756+13067779
3379+13000925+12970211+12929928+12805527+12625789+12501712+12489029+12572915
3364+12709927+12832470+12915864+13002684+13097766+13140031+13111965+13109014
3348+13224710+13402119+13509589+13516751+13522257+13649601+13913629+14186026
3333+14349651+14431864+14516461+14635467+14790066+14975349+15187537+15424452
3317+15670279+15895698+16077542+16233480+16397540+16612918+16930629+17332779
3302+17743081+18065313+18253919+18413777+18671308+19027583+19414555+19770722
3287+20108099+20501805+20936063+21343995+21762284+22218316+22640930+23005697
3271+23418114+23952666+24528370+25071641+25619997+26188220+26705583+27174075
3256+27727396+28400685+29068398+29661072+30251199+30922329+31657436+32401125
3240+33150013+33926002+34705366+35479480+36310530+37194549+38066296+38931281
3225+39841055+40817228+41805667+42766854+43747141+44746521+45727801+46722942
3209+47761576+48827711+49899824+50964601+52042868+53173627+54346244+55498745
3194+56599840+57691289+58821399+59994294+61207147+62466590+63732794+64929430
3179+66053523+67179136+68350256+69534114+70679665+71815537+73005406+74219323
3163+75387101+76513654+77640122+78760841+79841176+80887766+81942239+83039842
3148+84186476+85329683+86399218+87381539+88332802+89323933+90358860+91372363
3132+92300047+93132758+93915460+94698691+95505644+96339373+97189332+98011849
3117+98772056+99506863+100249972+100974592+101672396+102356007+102989523
3103+103543931+104091010+104706286+105305827+105774261+106157536+106526936
3090+106891201+107296671+107726646+108061805+108287528+108490625+108711082
3076+108944943+109150905+109285883+109368405+109424614+109451521+109433600
3063+109361585+109273653+109212870+109123998+108906419+108579242+108262507
3049+107977554+107610267+107114366+106567489+106022649+105466355+104834014
3036+104063287+103196099+102308079+101372798+100317033+99163854+97964268
3022+96670942+95256375+93741345+92086091+90269721+88320755+86223178+83949639
3007+81492032+78800996+75841294+72654173+69252143+65578812+61570655+57187785
2991+52460108+47481358+42327216+37053701+31812231+26910850+22712346+19477197
2976+17239389+15856291+15154597+14904947+14853891+14996022+15665272+17237774
2961+19833158+23218290+26801576+29865804+31916197+32738043+32314192+30838498
2945+28706865+26420319+24532189+23562733+23744549+24899898+26624045+28600846
2930+30780237+33216321+35863812+38628329+41473876+44377649+47200157+49665271
2914+51510088+52635215+53098702+53086018+52883802+52673454+52410885+52007458
2899+51425262+50604778+49444674+47804704+45608688+42939846+39916976+36689328
2883+33655410+31505559+30998713+32566975+35961837+40487943+45611664+51106631
2868+56854885+62704876+68426441+73876979+79072636+84051941+88958050+94063817
2853+99461520+105000376+110459665+115606892+120292153+124468356+128152912
2839+131463839+134526032+137392117+140156630+142941335+145740959+148480217
2826+151131164+153684821+156117276+158384961+160470752+162438017+164363829
2812+166253460+168114428+170016328+171961888+173882857+175752780+177521679
2799+179124425+180574787+181866998+182944801+183837447+184620965+185291765
2785+185826744+186249698+186575361+186798800+186937961+187033972+187092237
2772+187075191+187001225+186932179+186876172+186832317+186828702+186846831
2758+186842681+186825804+186801919+186743850+186654248+186535930+186357064
2745+186127621+185942660+185913071+186115679+186592237+187325648+188222405
2731+189113016+189844194+190409820+190908437+191446575+192137579+193096517
2718+194329823+195656308+196877293+197941379+198873717+199684644+200383884
2704+201020527+201628402+202196221+202731592+203223813+203614723+203893007
2691+204112818+204280707+204310152+204173914+203965198+203754381+203604255
2677+203664830+204043733+204684591+205478250+206370270+207270721+208053861
2664+208716398+209332157+209925010+210492711+211039333+211571663+212086477
2650+212574704+213042909+213504118+213947381+214350873+214722206+215082679
2637+215431392+215739800+215995060+216217206+216419383+216608025+216778773
2623+216922111+217024923+217064444+217070461+217078919+217062239+217006924
2610+216925609+216819091+216714165+216643749+216605337+216574442+216507655
2596+216388842+216250476+216117645+216011257+215955812+215937343+215893580
2583+215810699+215763816+215809446+215950722+216153590+216380540+216607503
2569+216793117+216962977+217175818+217395237+217546785+217602217+217617958
2556+217656514+217694926+217704258+217697719+217719138+217808675+217957809
2542+218164202+218449755+218796406+219180634+219610883+220060215+220485400
2529+220909907+221360074+221800974+222200812+222578905+222993388+223473027
2515+223964438+224423846+224868087+225331176+225846708+226390981+226900404
2502+227362057+227788286+228192249+228601224+229001166+229364249+229712245
2488+230037894+230324884+230623542+230951307+231281055+231629990+232002445
2475+232367982+232728455+233098900+233482501+233867956+234255603+234675437
2461+235109445+235533795+235959842+236372341+236783247+237219788+237637037
2448+237982161+238278444+238571959+238857069+239110672+239354198+239615031
2434+239868111+240105320+240353075+240588927+240774554+240923713+241058698
2421+241155884+241209110+241264007+241336603+241406328+241493333+241660556
2407+241920815+242217229+242503043+242768863+243005680+243215897+243446214
2394+243744690+244095191+244425409+244653978+244752495+244764268+244738921
2380+244671389+244565693+244455299+244330729+244146147+243906223+243662801
2367+243473937+243482552+243762362+244238869+244943499+245852761+246688905
2353+246956786+246447859+245771995+245685407+246166142+246704724+247096078
2340+247420110+247715035+248029852+248396172+248891578+249514998+250095242
2326+250521890+250886017+251325168+251778807+252132467+252413687+252708848
2313+253022437+253351272+253700546+254036821+254342449+254662486+255009672
2299+255329762+255605318+255867691+256117091+256331772+256510507+256682899
2286+256850567+256967748+257024629+257068954+257114219+257130012+257125418
2272+257120797+257099679+257063968+257048436+257077203+257148102+257255208
2259+257392699+257559818+257765858+258018260+258323183+258654210+258880273
2245+259070886+259257165+259480539+259734115+259967095+260207411+260490902
2232+260802639+261115863+261390009+261635206+261893037+262139592+262347590
2218+262527787+262687127+262849835+263000639+263077620+263115706+263176868
2205+263253249+263380116+263613226+263954539+264397214+264923266+265486177
2191+266019407+266471663+266869778+267270843+267671229+268038985+268384996
2178+268728032+269059633+269389225+269712839+269993537+270243459+270496226
2164+270754240+271036374+271353514+271685403+272018545+272325008+272584458
2151+272826679+273083205+273342420+273567255+273758364+273963021+274201666
2137+274461559+274742727+275051801+275397238+275782797+276179398+276547859
2124+276882228+277213490+277557648+277896820+278219285+278521781+278818064
2110+279148830+279533005+279929058+280294361+280660316+281067541+281483172
2097+281859804+282206755+282565635+282933940+283265306+283501967+283619331
2083+283671905+283723252+283752750+283720746+283643843+283544726+283421879
2070+283286268+283208138+283284101+283541489+283951481+284480039+285060231
2056+285624917+286184096+286764340+287339389+287867477+288300259+288612048
2043+288828556+288979856+289106252+289269508+289509928+289828243+290229177
2029+290752384+291381860+292038590+292701611+293368730+294010632+294622332
2016+295174671+295656137+296138177+296618050+297011832+297321324+297594243
2002+297853693+298134652+298444744+298728236+298965053+299193961+299398357
1989+299564014+299746248+299950226+300135174+300299761+300472388+300667804
1975+300869694+301065972+301256089+301453906+301672138+301863377+301988051
1962+302073594+302121025+302088447+301970248+301789868+301537544+301173782
1948+300677489+300067695+299432266+298892431+298484240+298192291+298040991
1935+298062788+298251834+298570671+299044227+299776320+300846644+302193308
1921+303625933+305073802+306503112+307741000+308750945+309647363+310484734
1908+311255617+311919969+312452260+312891072+313287073+313671300+314078761
1894+314492721+314874548+315262665+315637417+315916419+316150678+316426965
1881+316730661+317019478+317305998+317600505+317851340+318107005+318489745
1867+318924432+319283809+319618961+319981391+320335860+320660910+320961213
1854+321223168+321408012+321504258+321580326+321779788+322103454+322306284
1840+322379506+322590063+322981182+323386946+323798635+324307119+324797330
1827+325165608+325526786+325909291+326255850+326579020+326880263+327151276
1813+327453198+327823982+328172134+328420150+328605724+328812992+329092124
1800+329372588+329531223+329621073+329864078+330262558+330497627+330497940
1786+330517596+330636423+330734992+330779343+330775793+330735175+330795658
1773+331036443+331239978+331257442+331210297+331201657+331273757+331384882
1759+331474185+331603192+331756006+331912501+332196854+332556648+332750733
1746+332732042+332652215+332648978+332674743+332578758+332518379+332726821
1732+332902894+332752612+332450247+332171428+331912814+331599616+331258486
1719+331040855+330887754+330533128+329953145+329322337+328768562+328303046
1705+327788193+327162997+326603950+326103245+325425893+324554770+323524907
1691+322377627+321223951+320138486+319201528+318335730+317234420+315892977
1678+314625592+313639036+312850871+312131492+311549707+311093745+310637626
1664+310316023+310280155+310334217+310268121+310238676+310735282+311812994
1651+312498360+312611365+312987762+313718340+314286942+314713459+315378933
1637+316660075+318534931+320234994+321382561+322481730+323849747+325361207
1624+326900780+328259113+329297642+330470974+332077009+333551192+334569674
1610+335456459+336403964+337305525+338078470+338746607+339336301+339846691
1597+340285032+340662917+340952151+341135768+341246972+341316122+341334578
1583+341275765+341112483+340870367+340704945+340602642+340244336+339644409
1570+339107106+338610395+337949594+337129347+336361362+335954449+335748931
1556+335060511+333863659+332570065+331353009+330196071+329059259+327930383
1543+326840010+325754075+324435604+322736586+320860477+319002640+317128358
1529+315161877+313115777+311028772+308897494+306641830+304229331+301696180
1516+299068713+296349882+293528827+290601240+287373247+283558926+279322084
1502+274924491+270169715+264678069+258279171+251246203+243644032+234814468
1489+224588616+213907050+203706623+194352860+186023714+179012881+173285006
1475+167929493+161509608+153828407+146752980+141859668+138861783+136183622
1462+132781971+129991222+131315854+139188477+151334098+164053450+175582946
1448+185023661+191569317+195045366+196357245+196939095+198085866+200273881
1435+202656568+204286776+205308599+206163903+207001378+207921408+209023175
1421+210471854+212487085+214838317+217100834+219369367+221828879+224344098
1408+226732998+228951359+230890719+232329034+233091068+232821516+230954622
1394+227226237+221866809+215146647+207370139+199928640+195337185+195761561
1381+202200397+213743624+227477229+240382782+250893770+259044834+265855368
1367+271815193+276473880+279419348+280624997+280439082+279470434+278186133
1354+276741317+275114660+273356385+272052846+272410787+275101869+279263088
1340+283444433+287057934+290423784+294072238+298321898+303203410+308578475
1327+314283836+320216434+326284800+332399448+338475802+344337110+349791061
1313+354705569+358925053+362282836+364687033+366154090+366845068+367062386
1300+367160067+367429071+368013440+368966713+370283749+371855561+373467104
1286+374794738+375449014+375090472+373632918+371424816+369346373+368646206
1273+370310114+374434239+380198152+386497409+392500541+397665988+401690421
1259+404488688+406032281+406228455+404925568+401960208+397260616+390911865
1246+383140644+374436693+365724780+358213870+353122714+351725252+355121122
1232+363481594+375720001+389892992+403966212+416504923+426897293+435179766
1219+441671907+446737585+450762435+454026766+456622881+458655250+460306394
1205+461674933+462783682+463666005+464346959+464841686+465155615+465296264
1192+465255176+465047282+464696546+464198165+463524833+462695555+461810205
1178+460875413+459780759+458446991+456799972+454795900+452478839+449855784
1165+446844925+443424074+439734610+435988918+432299062+428600593+424706237
1151+420346887+415238060+409221223+402310683+394686977+386728327+378942879
1138+371781556+365517408+360167560+355503000+351274224+347344888+343552626
1124+339588259+335090531+329669471+322745827+313582442+301441690+285663108
1111+265829369+242091276+215578019+188736815+165023051+147445289+136865034
1097+131859174+130468929+131833631+136055634+143178387+152431388+161848401
1084+168609599+169808891+163013536+147021931+123176994+96407211+73996328
1070+61696320+60246715+64757998+67367961+62744039+51947921+40133295+31540649
1055+27699638+28890276+35917371+50810172+76488313+115452277+167719707+229260381
1040+292577355+349439385+393784920+422979366+436779588+434980512+416037657
1026+377566456+319378175+249347749+185416621+147183242+144281982+173102341
1013+221706111+278002542+335462228+391761740+444458845+489761281+524313328
999+546884641+558331386+560431261+554913824+543023986+525392110+502172838
986+473117240+437373041+393512288+340097761+277281022+209594230+146895470
972+100188203+76003552+76163518+101833081+154157333+230669042+323376426
959+420434702+509930746+583822298+639613404+679080089+705826091+723445854
945+734761661+741758371+745729969+747441465+747399385+746010485+743503176
932+739894583+735173586+729401685+722568388+714492426+704934110+693697295
918+680499218+665056232+647526424+628714899+610013273+593473388+581839110
905+577226236+578535571+580625369+576855400+562479814+535862454+498276472
891+454463855+413036457+383409673+369847756+371493261+390173716+430598347
878+489407047+552062514+603637373+637710146+654943254+658058008+649054668
864+629579940+604231453+583541522+580174392+598104430+627891677+656063490
851+675842071+687480056+693480734+695904457+695941734+694278479+691484389
837+688038791+684203561+680065366+675606716+670825940+665930096+661070642
824+656099775+650798116+645056548+638824692+631997502+624578061+616665511
810+608226231+599574619+591950417+586925723+585123906+585575404+586354302
797+586012754+584228480+581296038+577537972+573158574+568419930+563531135
783+558423482+552937736+547026439+540534950+533224885+525435965+518264357
770+512959983+509860004+507592958+503867888+497131960+487380891+476554851
756+468802059+468094009+474148983+482421249+488634467+491715494+492538298
743+491993399+490588262+488628306+486384911+484054067+481635094+479093171
729+476536630+474015121+471520081+469226827+466935086+464446572+461817879
716+459295482+456919843+454609673+452415458+450411334+448552923+446694983
702+444784625+442927676+441185168+439525254+437972576+436590124+435340333
689+434088401+432801307+431635859+430715007+429978843+429343310+428723987
675+427829109+426712267+426686789+428312402+429146562+428170500+427700050
662+428392699+429301569+430122442+431005886+431973830+433027996+434224430
648+435567178+437078377+438858449+440903922+443078715+445263480+447427049
635+449683549+452161673+454865755+457768438+460804827+464001652+467326649
621+470806810+474599542+478544670+482267025+485931272+489865698+494105125
608+498571241+503166677+507793856+512333847+516711522+521193562+526192360
594+531561264+536863498+542026701+547193245+552444941+557964205+563916485
581+570071857+576070916+581738452+587178516+592568982+598033897+603836809
567+609914025+615914389+621809606+627749670+633709312+639547204+645258125
554+651062760+657168899+663391723+669450092+675351887+681269449+687227577
540+692983188+698572777+704326091+710191079+715731697+720910980+726228354
527+731844099+737424186+742658235+747603416+752529436+757351613+761691385
513+765503173+768979940+772130874+774925694+777337096+779084720+779596154
500+778631812+776498577+773219941+768578353+762607642+755622471+748091982
486+740724018+735115321+733269911+735677136+740329479+743811415+743446165
473+738453840+730262028+722141219+718011064+721644090+735358612+758361272
459+787401781+817407728+842320275+860336039+872991671+881252137+886492295
446+890376705+893463893+895521844+896604751+897382656+898987125+902965197
432+910505970+921314781+933652672+946127976+959099781+973292115+988165768
419+1002052683+1013367185+1022819935+1031698392+1039549388+1046502399
407+1053686590+1060623207+1066287715+1070508139+1073741823
##END=
