##TITLE=6
##JCAMP-DX=4.24
##DATA TYPE=INFRARED SPECTRUM
##DATE=16/11/2015
##SAMPLING PROCEDURE=Instrument type and / or accessory
##ORIGIN=Default
##XUNITS=1/CM
##YUNITS=TRANSMITTANCE
##RESOLUTION=4
##FIRSTX=3996.3359
##LASTX=399.24785
##DELTAX=-1.9287336
##MAXY=0.6227107
##MINY=0.0086456556
##XFACTOR=1
##YFACTOR=5.7994454e-010
##NPOINTS=1866
##FIRSTY=0.051553134
##XYDATA=(X++(Y..Y))
3996+88893214+88880123+88787181+88714197+88740270+88868381+89031994+89124679
3981+89132580+89137539+89213112+89360269+89521519+89645589+89709844+89747485
3965+89840575+89981784+90058359+90061994+90086873+90144196+90217848+90321678
3950+90411383+90411640+90358280+90363932+90389703+90365307+90357110+90383229
3935+90408345+90434077+90482016+90555032+90618946+90645604+90652400+90737390
3919+90931098+91097088+91082108+90954165+90883409+90920435+91048443+91202016
3904+91208877+91067013+90978497+90942949+90909906+90936121+90993040+90923781
3888+90837128+90910253+90947182+90912007+90915778+90895338+90898164+90968001
3873+91052432+91135398+91053209+90877763+90842742+90852339+90811781+90714085
3857+90651681+90793519+90940303+90737101+90457144+90383633+90490643+90617302
3842+90621021+90552611+90501961+90455956+90438021+90425296+90365172+90346692
3827+90372360+90332585+90288186+90212767+90139289+90259197+90344482+90276084
3811+90267213+90377788+90418860+90220302+90114288+90195918+90136000+90007587
3796+89929798+89872834+89842406+89808837+89776295+89757153+89734940+89719986
3780+89698390+89603020+89482470+89393928+89332551+89305386+89260826+89237367
3765+89211943+89099865+88988828+88920032+88844196+88751569+88708685+88720485
3749+88675129+88631918+88736506+88646692+88258544+87981401+87915367+87964847
3734+88046638+88070392+87942134+87784519+87667720+87502013+87285527+87068392
3719+86869301+86675825+86552583+86510490+86382462+86091509+85708429+85320255
3703+84965894+84555071+84038921+83495504+82957540+82430277+81897690+81333305
3688+80737279+80221149+79900672+79693899+79513674+79418413+79377881+79150006
3672+78915290+78875529+78758916+78488248+78141917+77743060+77377273+77155552
3657+77030010+76767262+76352681+75936957+75534902+75143131+74778377+74455563
3641+74122946+73731027+73307730+72888350+72463594+72086411+71806198+71405492
3626+70846779+70324213+69879923+69464076+68971045+68384564+67792135+67210593
3611+66663399+66160937+65629956+65031129+64386303+63755756+63183266+62643670
3595+62071719+61418459+60730756+60112061+59532126+58861156+58122470+57480085
3580+56978240+56456110+55809582+55117678+54440631+53790725+53192980+52591330
3564+51932587+51264608+50624863+49978855+49292793+48590258+47888623+47190112
3549+46512558+45851063+45224432+44680899+44169429+43566670+42870980+42232006
3533+41729271+41245660+40659532+40010178+39382368+38790603+38220891+37662699
3518+37112055+36566656+36006508+35449607+34923877+34412635+33884772+33306847
3503+32749936+32306003+31896458+31438775+30954207+30453865+29959665+29536965
3487+29171440+28764526+28268347+27738386+27270410+26887028+26545914+26180799
3472+25710435+25159354+24691336+24371047+24079718+23745816+23430863+23189230
3456+22957571+22631095+22215619+21804184+21450118+21148324+20902088+20683070
3441+20400613+19995905+19556365+19278658+19173492+19062510+18907361+18784952
3425+18643545+18383822+18092846+17897465+17714730+17441001+17183311+17046993
3410+16941949+16792560+16621500+16384894+16088032+15916560+15934218+15940187
3395+15776141+15521861+15393787+15448369+15510933+15459158+15333030+15205109
3379+15113056+15071625+15070231+15055145+14984729+14908377+14907728+14972115
3364+15029559+15077324+15184669+15347395+15435238+15379522+15307034+15366182
3348+15551877+15772282+15940911+16011409+16050273+16186139+16414677+16631607
3333+16828513+17022550+17156742+17240768+17403178+17691180+17982034+18214002
3317+18462074+18730356+18956584+19150501+19347530+19556209+19826870+20221396
3302+20659778+20985718+21228883+21525262+21885264+22301733+22761561+23165118
3287+23536541+24001339+24524870+25005729+25436285+25819773+26176746+26587923
3271+27095150+27678509+28294789+28889820+29461109+30059782+30678981+31268009
3256+31853938+32485104+33162211+33875191+34603368+35359219+36173337+37020908
3240+37855958+38646993+39386681+40133683+40983474+41931214+42880332+43811914
3225+44772810+45757492+46752410+47771474+48804460+49853217+50940611+52035393
3209+53097475+54169302+55299875+56464994+57625764+58763698+59883403+61010848
3194+62170789+63363632+64546917+65705535+66887117+68101460+69306636+70488944
3179+71672710+72862907+74039440+75214265+76410679+77601852+78759089+79906980
3163+81071617+82243301+83390145+84475445+85513738+86580622+87701110+88824142
3148+89911915+90944992+91908984+92815832+93729534+94724378+95751217+96712518
3132+97612621+98492439+99360662+100181968+100927515+101657870+102424300
3119+103183869+103898885+104586909+105281717+105982543+106636657+107230140
3105+107819916+108397134+108890102+109341342+109828207+110294606+110689448
3092+111060972+111429194+111761072+112064995+112372746+112643742+112807580
3078+112878920+112954911+113102433+113283692+113388858+113372003+113307010
3065+113242466+113151522+113016923+112842280+112642740+112410696+112107840
3051+111753171+111424852+111096430+110636890+110049908+109448024+108838122
3038+108165977+107428017+106623900+105733560+104759400+103715455+102593515
3024+101379635+100081234+98698878+97205613+95584719+93821152+91890323+89816147
3009+87622910+85241740+82591341+79665443+76489008+73093319+69477489+65530956
2993+61179851+56499886+51561808+46362126+40953084+35524506+30394885+25959848
2978+22508985+20110913+18705811+18081952+17859510+17785069+17965384+18726285
2963+20418249+23256482+27052084+31116565+34542425+36702163+37480852+36989658
2947+35405789+33112317+30644792+28575362+27464384+27632375+28919069+30837479
2932+33013099+35389705+38020352+40858636+43839256+46931311+50040351+52992062
2916+55546981+57448166+58597361+59121110+59226411+59065823+58762028+58434904
2901+58066103+57488731+56560717+55206290+53397396+51155273+48460631+45276826
2885+41790115+38522392+36242736+35757731+37465160+41079949+45954823+51529944
2870+57467668+63583728+69706500+75597538+81090329+86245827+91240596+96232468
2855+101397749+106834322+112424545+117911793+123039195+127651957+131712770
2841+135271855+138440389+141361514+144170240+146905636+149564206+152194114
2828+154825230+157421761+159897274+162206982+164380049+166401032+168269970
2814+170053091+171774391+173478193+175253207+177088859+178882552+180579442
2801+182196206+183711606+185061999+186231441+187225225+188038881+188698795
2787+189227131+189628216+189949623+190233633+190467565+190644765+190759720
2774+190787624+190757279+190720447+190648054+190522602+190405000+190323678
2760+190267575+190230601+190223934+190259533+190258814+190122686+189882767
2747+189638416+189444464+189320683+189299614+189449115+189853527+190552343
2733+191447333+192308099+192967885+193456433+193897897+194405445+195087508
2720+196009889+197130781+198351509+199535661+200523497+201307385+202006381
2706+202656827+203257016+203851360+204418159+204858608+205190640+205522376
2693+205819889+205978151+206010822+205992412+205936142+205815148+205654097
2679+205545026+205611085+205936720+206514362+207272248+208094589+208871039
2666+209566335+210209394+210830973+211417056+211946367+212430496+212887389
2652+213327683+213760141+214193999+214631068+215054867+215438262+215763781
2639+216039710+216273166+216474634+216705675+216988542+217245175+217436827
2625+217589296+217699370+217762449+217777839+217722314+217621722+217553581
2612+217538447+217533360+217507178+217450008+217368070+217273824+217169197
2598+217065033+216970402+216886947+216835174+216805780+216745270+216653619
2585+216583474+216546218+216536814+216594497+216744705+216941136+217137671
2571+217345485+217560210+217745311+217890251+218013686+218142465+218264023
2558+218338845+218378259+218425048+218485250+218526258+218545297+218604034
2544+218750336+218954758+219190887+219506026+219914433+220334327+220724954
2530+221128866+221541539+221918240+222273718+222653837+223071418+223503156
2517+223928779+224355764+224790842+225227462+225680655+226171413+226663301
2503+227117290+227562980+228009570+228421061+228812819+229204757+229550086
2490+229828533+230085166+230363382+230665313+230964007+231266067+231593590
2476+231939022+232303031+232672075+233014012+233349860+233713278+234091161
2463+234482277+234892303+235286014+235659247+236047922+236435492+236787604
2449+237112403+237434505+237771226+238109618+238414504+238665330+238874891
2436+239087125+239333865+239608484+239878889+240109031+240277944+240396882
2422+240496935+240573195+240604465+240625688+240690746+240809247+240977441
2409+241201313+241466400+241737138+241984059+242213764+242438382+242632142
2395+242815058+243060128+243388396+243715200+243936323+244022758+243999171
2382+243894108+243736295+243578815+243473701+243410545+243373956+243434209
2368+243605409+243745776+243759753+243657054+243708751+244333580+245365481
2355+246146223+246185894+245576045+245003991+245084645+245702254+246287489
2341+246615295+246883592+247176968+247464048+247744525+248132147+248682694
2328+249228720+249601670+249941603+250441328+250952667+251266340+251448666
2314+251656326+251924392+252241612+252600995+252973766+253328678+253652321
2301+253944361+254222397+254513871+254792883+255017912+255203244+255376422
2287+255537242+255681668+255820391+255950660+256046602+256102718+256146526
2274+256183551+256179338+256131007+256100277+256130904+256194009+256261456
2260+256359428+256498921+256651544+256826367+257075548+257412758+257775893
2247+258008039+258195349+258388106+258587005+258809079+259068384+259351507
2233+259652128+259945170+260209896+260453965+260673983+260882388+261116128
2220+261360170+261566340+261739878+261911181+262078321+262208102+262267018
2206+262289526+262359132+262508903+262742437+263091799+263567320+264106948
2193+264630748+265106192+265526779+265908953+266296395+266689926+267064546
2179+267435210+267802790+268127974+268401925+268665084+268949544+269242611
2166+269523884+269804824+270100845+270391523+270653937+270913679+271206078
2152+271509988+271775845+272004754+272231992+272467916+272711727+272951273
2139+273185218+273446964+273734404+274037800+274388756+274766511+275113639
2125+275436537+275762800+276093484+276440483+276826717+277220582+277546948
2112+277821567+278132312+278487327+278838335+279182250+279552554+279960499
2098+280380521+280772202+281116272+281423599+281709292+281977770+282225307
2085+282426723+282552984+282597974+282576571+282515779+282455423+282415109
2071+282351054+282257193+282246813+282403496+282674594+283026835+283472987
2058+283992471+284556534+285143388+285736382+286307896+286817076+287206599
2044+287453288+287631888+287806634+287965783+288129635+288364607+288702331
2031+289131294+289644303+290212425+290806396+291431996+292075094+292707529
2017+293301500+293814278+294269552+294699337+295095360+295460165+295796399
2004+296113156+296416423+296695461+296927119+297098294+297271600+297498685
1990+297709454+297939236+298190499+298395564+298561008+298713888+298902303
1977+299118956+299326564+299535252+299729988+299918171+300107948+300229455
1963+300336394+300478688+300576506+300583572+300519465+300368897+300106432
1950+299755733+299338641+298824938+298294329+297808710+297380672+297160550
1936+297147061+297246831+297428823+297713796+298162647+298823140+299798334
1923+301023070+302308598+303796775+305225856+306310225+307242792+308101181
1909+308887601+309586147+310197718+310725450+311184886+311603366+312012648
1896+312429740+312741179+313013408+313425953+313792813+314099215+314457237
1882+314769395+315034944+315308535+315603272+315825449+315904869+316151507
1869+316650127+317048309+317386315+317784908+318167621+318514158+318837673
1855+319137780+319402712+319583059+319614123+319524862+319766900+320209199
1842+320290726+320413878+320813267+321211526+321497784+321890031+322450111
1828+322778867+323107238+323591315+323937697+324276783+324675709+325005545
1815+325229032+325495994+325843250+326131872+326351325+326520701+326737945
1801+327074897+327332429+327361335+327380246+327732667+328140407+328189534
1788+328245573+328501512+328686638+328817935+328946534+328842421+328635249
1774+328769887+329139625+329208280+329231610+329241631+329222386+329444486
1761+329578840+329621467+329797112+329787759+329850555+330244832+330547868
1747+330646765+330647844+330636307+330743940+330725183+330328029+330458684
1734+331016683+330956096+330774953+330768169+330669555+330372968+329760189
1720+329254812+329251471+329170920+328754008+328295034+327865505+327438315
1707+326968267+326155767+325305703+325037765+324461652+323802007+323364873
1693+322356456+321290767+320210920+319031843+318380703+317671211+316238482
1680+314900409+314004918+313378727+312467845+311589389+311399149+311207754
1666+310727480+310612550+310773729+310656230+310227703+309977648+310911372
1653+312219511+312017735+311940345+313001023+313932897+314323885+314697734
1639+315276288+316611946+318535458+319860555+320819794+322133431+323556397
1626+324962276+326537890+327743355+328599560+330089562+331832240+332895539
1612+333817393+334938504+335982970+336830618+337565008+338255331+338868984
1599+339387388+339836136+340220469+340511968+340730728+340902262+341015213
1585+341060692+340976441+340630315+340200607+340266333+340290048+339467605
1572+338837432+338757600+338333133+337539416+336477967+335531190+335518651
1558+335306701+334078727+333092741+332296455+331360162+330188510+328818783
1545+327444841+326292691+325626726+324507875+322503657+320877169+319532441
1531+317664068+315697081+313800419+311643038+309486916+307456182+305045843
1518+302604414+300254610+297686689+294894304+291944106+289116186+285770915
1504+281475244+277185458+272926915+267923757+261837927+254869041+247436864
1491+239060403+229254784+218947718+209196776+200330290+192388856+185583795
1477+179949037+174671068+168445564+160959532+154006654+149351291+146639303
1464+144040601+140548231+137808339+139368049+147342294+159423757+172207645
1450+183842788+193275829+199687796+203032694+204262466+204731190+205891151
1437+208143690+210329308+211851865+213018326+213919830+214675159+215572205
1423+216630006+218083754+220214361+222505351+224731052+227155857+229726476
1410+232231961+234605737+236889199+238813636+240121981+240809786+240451636
1396+238641229+235150478+229887193+223317079+215901578+208705697+204205091
1383+204775808+211318892+222767919+236260464+248934394+259161474+266969941
1369+273523456+279209306+283623247+286501219+287650748+287404701+286510006
1356+285345189+283955060+282354857+280666162+279472337+279906722+282539366
1342+286548496+290649328+294246992+297620321+301283120+305484544+310228783
1329+315408228+320913166+326661402+332547949+338464302+344289851+349842786
1315+355019790+359742189+363802218+367032251+369349860+370715939+371288841
1302+371440231+371544343+371819065+372368456+373290823+374613608+376189299
1288+377762833+379017836+379624166+379303041+377954048+375862368+373865524
1275+373184039+374766616+378693499+384211002+390280080+396061307+401049768
1261+404979015+407695474+409160269+409342749+408102237+405275037+400780879
1248+394681251+387205959+378867063+370554734+363397459+358597285+357423937
1234+360905618+369173393+381141686+394876834+408430711+420467350+430395144
1221+438266613+444425287+449183272+452872279+455823607+458195893+460073157
1207+461582789+462812458+463795874+464558424+465120097+465490247+465716458
1194+465806233+465730076+465500165+465134332+464631447+463984007+463174179
1180+462240918+461235559+460098697+458733517+457104407+455191738+452959022
1167+450351635+447348044+444036843+440557912+437030161+433516645+429952589
1153+426150168+421903240+417010541+411249972+404555936+397181134+389562675
1140+382162898+375388337+369458032+364344030+359862591+355822269+352062655
1126+348359953+344474026+340139661+334886627+328119183+319197930+307398011
1113+292065485+272813553+249739339+223822405+197388506+173901105+156468882
1099+146037444+141213207+140002989+141469134+145759485+152976975+162244033
1086+171538634+178119989+179147471+172201979+156052124+131946047+104699013
1072+81665492+68972420+67673254+72603775+75326118+70310344+58752843+46021203
1057+36669185+32532458+34038612+41993892+58359639+85923932+126882932+180738862
1042+243024850+306151024+362005891+404834948+432485386+445048369+442513080
1028+423441932+385330469+327831486+258564496+195048685+156835165+153961252
1015+182984681+231677173+287668400+344414802+399636977+450952414+494813655
1001+528142621+549791557+560633239+562472835+556955178+545263431+528085117
988+505571215+477421463+442757842+400035467+347700693+285852211+218744992
974+155860780+108349999+83471024+83703099+110251607+163697099+240796194
961+333045644+428656732+516158629+587927635+641731264+679502074+704950758
947+721702653+732443769+738975881+742552347+744012030+743869479+742422746
934+739842954+736219262+731596326+726004773+719403646+711623828+702455243
920+691698659+679041995+664246502+647518144+629584269+611693919+595816858
907+584721831+580540114+582101648+584328968+580858105+567126399+541522214
893+505271159+462966725+423075688+394778143+382078467+384148642+402791212
880+442320888+499031703+558724064+607452592+639458106+655444983+658098877
866+649361234+630662959+606256788+586259162+583019391+600418160+629184520
853+656270998+675237571+686335784+692065366+694479790+694554303+692901144
839+690179007+686905936+683313077+679327252+674962284+670447982+665877411
825+661143989+656239908+651192556+645805014+639921936+633537103+626593988
812+619065098+611054547+602922720+595667267+590779424+589014136+589391531
798+589968980+589484390+587704455+584826817+581213454+577175316+572829465
785+568178367+563230298+557991885+552337895+545989958+538843294+531355207
771+524469031+519347628+516404419+514263071+510652432+504142571+494760982
758+484355020+476979062+476501665+482513420+490548432+496608234+499727449
744+500658398+500149706+498720496+496818978+494718792+492493014+490156802
731+487751679+485367985+483007723+480635745+478378928+476059829+473600491
717+471109909+468738805+466504599+464403129+462430797+460506976+458585879
704+456681585+454841887+453106403+451457406+449926346+448572728+447322966
690+446072023+444834903+443695009+442673051+441735165+440945019+440406214
677+439981593+439262055+438284599+438309009+439812885+440511457+439560004
663+439143194+439813964+440649588+441394872+442215131+443213964+444479091
650+445930551+447357140+448813585+450552871+452551873+454621071+456746283
636+458947138+461204366+463626190+466376129+469458651+472612141+475678734
623+478779911+482058377+485542499+489283099+493100423+496867283+500785224
609+504979634+509282267+513609978+518095349+522764123+527383051+531933274
596+536747837+541822527+546879077+551911732+557186168+562606702+567962640
582+573590010+579494929+585205908+590666833+596079092+601588989+607057262
569+612461248+618032709+623809773+629659090+635518067+641361885+647125640
555+652835489+658648628+664662953+670648396+676499871+682331150+688036323
542+693620065+699356225+705264432+710871093+716128417+721462361+726884436
528+732311496+737623908+742473466+747137359+752043136+757094342+761961990
515+766398438+770476865+774096446+777208106+779992063+782374627+784209238
501+784712021+783538519+781326359+778211667+773952816+768301807+761564039
488+754542249+747782590+742445357+740598567+743152510+748018924+751496623
474+751356230+746856677+738643656+730284487+726362435+730516813+744298314
461+766705277+795271120+824377978+847886910+865436144+878184845+886966168
447+893379110+897897883+900366162+901519520+902645127+904525525+907216419
434+911323880+918024596+927588665+938989760+951057772+963803080+977535248
420+992693851+1006240918+1015007853+1022432321+1031410050+1040698473+1048092622
407+1053684072+1059157947+1064742408+1069569613+1073741823
##END=
