##TITLE=39
##JCAMP-DX=4.24
##DATA TYPE=INFRARED SPECTRUM
##DATE=16/11/2015
##SAMPLING PROCEDURE=Instrument type and / or accessory
##ORIGIN=Default
##XUNITS=1/CM
##YUNITS=TRANSMITTANCE
##RESOLUTION=4
##FIRSTX=3996.3359
##LASTX=399.24785
##DELTAX=-1.9287336
##MAXY=1.2319026
##MINY=0.035083719
##XFACTOR=1
##YFACTOR=1.1472987e-009
##NPOINTS=1866
##FIRSTY=0.1621909
##XYDATA=(X++(Y..Y))
3996+141367631+141404049+141483107+141615001+141752986+141845747+141918415
3983+142054815+142277092+142501305+142643420+142733869+142877244+143114431
3969+143360801+143503111+143541439+143571039+143688490+143893324+144075079
3956+144194569+144320098+144458875+144566416+144680191+144858063+145066404
3942+145237378+145341088+145408418+145492710+145602732+145728781+145870065
3929+145995880+146099563+146254887+146476035+146669167+146796709+146901757
3915+147006869+147084187+147126086+147183584+147299957+147476373+147676571
3902+147838467+147946696+148030443+148084525+148105436+148145504+148236706
3888+148337883+148429488+148530236+148615438+148674260+148758189+148891784
3875+149045848+149164676+149215953+149226499+149239877+149298855+149427151
3861+149578163+149686652+149772360+149902124+150054980+150136558+150138272
3848+150136415+150189094+150302805+150452492+150597581+150701421+150774608
3834+150866434+150988300+151090932+151144612+151198564+151299039+151425816
3821+151540097+151610557+151630416+151624091+151636897+151722631+151869448
3807+151990847+152060125+152163510+152339238+152494796+152577556+152629729
3794+152660809+152657380+152650692+152686084+152754882+152802041+152811146
3780+152834732+152900218+152971003+153029241+153086440+153147432+153211463
3767+153266987+153296301+153304029+153327330+153383918+153435559+153467977
3753+153545009+153690436+153797782+153802679+153801731+153835863+153794756
3740+153655979+153557659+153624950+153817381+153964276+153965990+153872178
3726+153771131+153712516+153711191+153734323+153722919+153659057+153554101
3713+153407687+153222438+153054789+152931363+152769779+152516006+152200098
3699+151845005+151457234+151039889+150565722+150002287+149412527+148957075
3686+148687950+148507923+148353456+148211613+148064524+147933397+147833584
3672+147708002+147530053+147308165+147029715+146691688+146324062+145969982
3659+145651658+145356621+145034440+144630045+144168826+143736117+143338709
3645+142903817+142384036+141790872+141180317+140584270+139990119+139386968
3632+138777608+138158598+137490155+136718081+135870274+135062730+134354583
3618+133669698+132898857+132027814+131102547+130146731+129180070+128243217
3605+127311130+126316727+125272917+124240212+123221274+122179672+121104094
3591+120022411+118932714+117814977+116725319+115707355+114703679+113667844
3578+112604928+111506556+110366063+109200088+108039496+106904432+105769446
3564+104592613+103393330+102261663+101229971+100192934+99036135+97755124
3551+96441105+95148763+93881468+92675392+91540373+90426584+89296066+88156190
3535+87041076+85960445+84872794+83745225+82569820+81340009+80133946+79062153
3520+78068029+77010556+75868011+74727992+73674786+72692695+71713670+70672048
3505+69522250+68394660+67433688+66554353+65665386+64774062+63862874+62918909
3489+61989206+61121202+60288507+59383448+58372394+57415987+56618911+55883561
3474+55065321+54057952+52939624+51995770+51334558+50723900+49963288+49141635
3458+48409947+47734043+47045664+46368276+45697330+45007987+44316620+43639229
3443+42977560+42310550+41576453+40823750+40222940+39754214+39266426+38779949
3427+38380648+38034361+37660049+37251627+36850219+36436812+35957128+35453046
3412+35020908+34686768+34421591+34139777+33684829+33086038+32673729+32583962
3396+32534316+32282198+31938191+31788568+31836215+31816973+31665955+31531561
3381+31465319+31390852+31289233+31215049+31098540+30830252+30579411+30623018
3366+30926179+31207769+31321210+31393014+31556560+31745974+31824876+31819516
3350+31934258+32218352+32505122+32727574+32907160+33036975+33206164+33539908
3335+33984498+34388099+34699484+34951068+35200666+35559902+36061614+36564881
3319+36998578+37424472+37866393+38289462+38623219+38859085+39138438+39631071
3304+40336848+41065084+41647273+42100809+42555368+43077337+43677862+44392760
3288+45160843+45868126+46526272+47179395+47846614+48555936+49274451+49925918
3273+50509438+51186732+52102022+53125482+54077603+54991373+55934273+56854001
3258+57702107+58586827+59627532+60711871+61665401+62577973+63657546+64881071
3242+66098700+67278449+68429267+69528289+70648404+71953559+73443222+74930839
3227+76328119+77700656+79101241+80527321+81987378+83496328+85024943+86540140
3211+88060676+89611513+91204444+92867050+94581926+96269728+97906597+99568417
3196+101296073+103018820+104689913+106370286+108116346+109891597+111663321
3182+113443631+115204017+116933868+118680357+120456276+122238456+124016441
3169+125791049+127567371+129351798+131132042+132880492+134585082+136250330
3155+137876134+139502120+141206138+142980226+144742222+146442487+148060056
3142+149600035+151148365+152792222+154471563+156084820+157621266+159114151
3128+160608022+162106102+163543514+164886633+166201854+167556493+168939330
3115+170344519+171761527+173122505+174420049+175712697+176979940+178165267
3101+179299071+180455617+181634632+182756981+183777971+184732760+185681524
3088+186635430+187563218+188466991+189350281+190201855+191073625+192013037
3074+192937526+193736771+194427150+195081540+195743280+196434036+197118441
3061+197701084+198135080+198505771+198897270+199270741+199582493+199835526
3047+200011475+200111275+200183255+200248974+200280678+200215439+200015112
3034+199725387+199370424+198918349+198349668+197649340+196829054+195889733
3020+194782815+193479504+191957825+190193075+188206775+186011056+183527717
3007+180624851+177211789+173235540+168610655+163237230+157012387+149752073
2993+141262194+131456094+120339228+108059647+94997829+81779965+69339495
2980+58854763+51327935+47246820+46701264+49521272+55237685+63110626+72328712
2964+82266971+92506580+102592202+111869896+119580921+125158271+128451571
2951+129582972+128747698+126308012+122815580+118883671+115183820+112330127
2937+110554935+109628719+109179722+109063648+109490656+110767004+112935980
2924+115762373+118852617+121765782+124175259+125887823+126788283+126831404
2910+126041004+124562406+122644852+120523502+118454780+116750334+115555136
2897+114744292+114092695+113410940+112621709+111697740+110568131+109290069
2883+108169415+107701976+108450301+110739573+114488584+119424130+125287580
2870+131807537+138688289+145666178+152479886+158891068+164807497+170309529
2856+175523045+180479931+185131350+189469589+193530274+197318457+200822799
2843+204048937+207039121+209863591+212588625+215278708+217976791+220677135
2829+223358827+226008024+228594410+231074944+233401102+235551843+237564755
2816+239465165+241292193+243132650+245045243+247108393+249365844+251702574
2802+254021563+256320394+258529036+260575743+262465555+264172443+265668847
2789+267010278+268271391+269455432+270516607+271453513+272310022+273096110
2775+273785022+274371691+274882719+275349613+275770477+276115102+276394890
2762+276663353+276930049+277156431+277356914+277583452+277848356+278157237
2748+278505914+278895036+279361333+279898128+280475083+281107003+281799006
2735+282524206+283250575+283962346+284682610+285426461+286215095+287142961
2721+288281518+289589959+290977524+292339475+293578456+294662360+295618514
2708+296468789+297252929+298095359+299099880+300224722+301384061+302535788
2694+303653045+304757184+305877455+306973126+308010922+309011183+309978091
2681+310886968+311746127+312605363+313479926+314351969+315244065+316162684
2667+317040104+317830815+318558094+319251967+319911136+320528509+321124582
2654+321713590+322292103+322867369+323452559+324046580+324630522+325181786
2640+325684865+326164020+326651123+327119810+327557065+327993905+328428095
2627+328849998+329318321+329873040+330449190+331010299+331583175+332147532
2613+332682145+333203251+333692537+334122623+334514732+334918348+335354772
2600+335768104+336138678+336539957+336982381+337415429+337822526+338214063
2586+338608042+339009633+339408599+339800267+340189726+340557028+340887288
2573+341215807+341555288+341886821+342216691+342531392+342785957+342980102
2559+343148116+343304388+343443645+343549238+343619815+343694600+343833417
2546+344070422+344407072+344843548+345370577+345952597+346562282+347202930
2532+347864463+348534386+349229635+349946367+350638604+351269719+351852934
2519+352415965+352970736+353511039+354026274+354540679+355082955+355666222
2505+356289622+356935751+357611727+358332823+359100286+359894582+360675449
2492+361444601+362249106+363099147+363942825+364741303+365516196+366305167
2478+367124401+367973948+368827367+369667978+370520981+371380711+372228493
2465+373089236+373975228+374863168+375727938+376570498+377395421+378181976
2451+378912813+379580269+380190343+380768752+381317809+381821199+382281106
2438+382709789+383126419+383538867+383919313+384244066+384526634+384774420
2424+384966201+385115615+385279576+385488320+385758004+386132163+386635606
2411+387245862+387928929+388656934+389400863+390134506+390855394+391548410
2397+392253063+392985900+393738946+394470251+395129108+395673333+396058584
2384+396278186+396412898+396575586+396768563+396900859+396955876+397017076
2370+397193142+397443265+397575795+397582237+397685518+398083524+398845922
2357+399857898+400881199+401819300+402574736+403097089+403565360+404190292
2343+405035736+405984668+406868452+407595652+408132656+408582458+409089225
2330+409642412+410150452+410634776+411196794+411872692+412615893+413318261
2316+413907918+414437284+415022161+415713619+416462873+417231505+417986084
2303+418672996+419314501+419959695+420601018+421229847+421856130+422465140
2289+423040250+423568889+424040589+424466778+424877538+425291623+425703006
2276+426082023+426389346+426616429+426792599+426933337+427036514+427122858
2262+427231542+427399504+427689838+428178241+428882764+429755950+430671944
2249+431515050+432520298+433440735+434261864+435013326+435726240+436409099
2235+437059124+437699383+438330030+438923791+439496772+440081545+440676034
2222+441263301+441830826+442399703+443004893+443622760+444199949+444740199
2208+445313024+445941853+446577332+447173898+447737423+448329314+448971910
2195+449631859+450285936+450925364+451556167+452167384+452737922+453319475
2181+453977605+454676413+455353298+456008363+456659064+457309868+457967531
2168+458651845+459356783+460026655+460627689+461180824+461730581+462316758
2154+462923507+463482720+463980422+464463161+464944602+465405158+465841556
2141+466276811+466740276+467274812+467936319+468731551+469623205+470581723
2127+471581854+472592323+473603053+474634719+475677710+476689063+477652256
2114+478575342+479452190+480279528+481085254+481860588+482565216+483215293
2100+483852174+484509161+485191605+485860489+486496280+487159813+487891351
2087+488635929+489343881+490038170+490754694+491495636+492257982+493057681
2073+493898995+494744828+495543696+496288742+497030983+497818733+498631473
2060+499417405+500178556+500949630+501729276+502495415+503254540+504006755
2046+504726656+505428530+506154457+506883086+507555191+508185371+508829162
2033+509498773+510188594+510902625+511645956+512397548+513115007+513777813
2019+514437398+515168105+515921983+516620168+517300741+517994406+518654251
2006+519266974+519873412+520502085+521134239+521718701+522244041+522767459
1992+523342154+523935499+524460632+524910745+525363508+525858353+526347430
1979+526809389+527293427+527825209+528387124+528939947+529486224+530100662
1965+530805237+531513293+532172306+532812305+533422379+533958733+534422198
1952+534824724+535148645+535349856+535375988+535221690+534950344+534553170
1938+533917327+532999021+531855034+530586986+529376033+528520745+528355069
1925+529115857+530793080+533069104+535690299+538503976+541173330+543520684
1911+545664957+547693429+549572071+551266907+552809418+554253221+555597067
1898+556830412+558001309+559110384+560123971+561134856+562203252+563219280
1884+564168966+565146550+566133329+567065143+567968487+568881962+569741458
1871+570547392+571453386+572489883+573510224+574421205+575253634+576100506
1857+577010916+577923923+578774900+579592731+580397054+581157218+581955982
1844+582914136+583899409+584762438+585586139+586415452+587174057+587898218
1830+588732102+589611601+590411040+591246171+592150555+592990673+593750162
1817+594505026+595266697+596018185+596800221+597631455+598448455+599166849
1803+599805913+600509761+601306135+602020737+602581925+603176205+603950968
1790+604745109+605370457+605897875+606455997+607059993+607675886+608211928
1776+608595179+608963676+609487925+610062308+610552165+611000928+611437118
1763+611930456+612529984+613172216+613881571+614650255+615407822+616262539
1749+617290724+618326442+619230566+620015303+620729541+621336083+621728581
1736+622052139+622595611+623248286+623761157+624141655+624383233+624461421
1722+624389311+624215791+624111990+624159163+624189139+624084248+623833267
1709+623410169+622818226+622105546+621329277+620573009+619853420+619076008
1695+618203523+617146193+615799333+614231469+612576169+610893699+609208371
1682+607490261+605648661+603739471+601888104+600115756+598408088+596863187
1668+595564591+594390628+593248511+592228327+591367635+590555571+589773120
1655+589334644+589463849+589552947+589256508+589177021+589613679+590210193
1641+590812942+591615032+593025221+595294959+597798845+599952262+602154306
1628+604813322+607854965+611138549+614342543+617202042+620342550+624307642
1614+628358768+631905126+635206270+638418940+641446763+644293274+647017074
1601+649560756+651856158+653969935+656021630+658006254+659829100+661454060
1587+662930904+664295115+665495522+666470144+667277169+668200671+669293692
1574+670054064+670384220+670763627+671298007+671647229+671600732+671262212
1560+671182621+671717416+672172102+672097446+671810151+671563430+671321645
1547+670923016+670392844+670019568+670014996+670093496+669706296+668934807
1533+668226543+667568309+666686265+665616882+664507184+663329377+662056705
1520+660747146+659355452+657803537+656009837+653858446+651368899+648722819
1506+646017255+643030213+639414187+634943964+629376614+622504850+614398080
1493+604872443+593492167+581478906+571491778+564623183+559898654+555984111
1479+552252024+548445853+543893233+537484415+528937089+519447976+509789861
1466+499395118+487713155+475210972+463167630+454280070+452009397+456031482
1452+462596624+469334559+476134577+483286104+490113708+495541514+498896377
1439+500318515+500508816+499959786+498846814+497432261+496070855+494997939
1425+494389163+494323340+494858499+496279391+498642798+501485049+504571839
1412+507983121+511668815+515478363+519311497+522933030+525914045+527997846
1398+528881553+527937842+524799360+519446833+511435134+500035792+486186021
1385+473353630+465317410+464601925+471775739+485349799+503690522+525730446
1371+549942594+574419646+596268958+612368932+622054477+626720145+628277618
1358+628430618+628126074+627475529+626201091+624134486+621502433+618852094
1344+616565524+614594459+612819565+611427507+610638873+610476211+610968718
1331+612229077+614321658+617187911+620756816+624977461+629754722+634989630
1317+640618282+646604938+652959570+659679062+666624442+673631178+680607002
1304+687472792+694129786+700418283+706162425+711234982+715565350+719070199
1290+721574293+722832003+722519095+720252214+715834774+709658026+702906012
1277+697525535+695743056+698995885+707138139+718638373+731558147+744316766
1263+755913268+765972297+774502581+781627352+787560912+792482496+796408625
1250+799435669+801784946+803450065+804284832+804477574+804547294+804876307
1236+805779755+807739962+811016949+815413400+820445850+825577372+830391571
1223+834641518+838314120+841571468+844519753+847119647+849363617+851371671
1209+853287199+855151659+856863119+858366874+859775089+861177641+862497694
1196+863657474+864680776+865650618+866558223+867224094+867590720+867850169
1182+868138555+868390316+868422110+868158661+867682935+866927654+865654255
1169+863751351+861290222+858327546+854842543+850971744+847178561+843955553
1155+841438055+839444391+837714592+835987650+833976894+831500698+828570025
1142+825166587+821159049+816555205+811625620+806609379+801447309+796148396
1128+791067683+786349076+781560802+776074030+769401814+761097781+750390389
1115+736114092+717086354+692251923+660445616+620388787+571515261+515060460
1101+454156944+393117001+336928845+290723685+258567195+242423036+242129896
1088+255891529+280755728+313089999+348804485+383450912+412620387+432483646
1074+441053622+440461419+436815677+434361846+429368179+411864120+373556520
1061+314457847+243955053+176292262+123491594+90577102+76601147+79372821
1047+98904767+137255552+195898137+272819075+361294953+451633835+534999335
1034+606616270+666049903+714742740+753597292+781845084+796722156+795861153
1020+783115730+771757741+776474633+800175780+833576498+866751017+895661459
1007+920075025+940607350+957784708+971796932+982619918+990617953+996606582
993+1001129433+1004122916+1005362495+1004908433+1002899235+998969366+991909379
980+979572300+958755278+925624451+879331440+829306810+796162839+797116369
966+830568936+879765553+928213850+967973669+997946013+1019706174+1035117055
953+1045791354+1053257294+1058818254+1063160623+1066400567+1068676591
941+1070432886+1071912380+1072960151+1073513857+1073741823+1073732160
930+1073358104+1072436785+1070965707+1069138966+1066974223+1064163819
918+1060495373+1056016058+1050761617+1044680720+1037726300+1030002157
907+1021868112+1013589847+1004645659+993427733+977575987+954444703+921065649
893+874069933+811203353+734162353+649873923+569478424+508046815+484528955
880+514051497+593619814+699254347+801933685+884105844+942202177+980275940
866+1003732444+1016750512+1022772079+1025586847+1028776814+1033730452
854+1039378379+1044223645+1047633369+1049458345+1049744705+1048963656
843+1047723143+1046248429+1044318822+1041770360+1038897302+1036036712
831+1033099961+1029749878+1025970981+1022072387+1018040069+1013410508
820+1007786687+1001143564+993428461+984158637+972847509+959696547+946058066
806+934768239+929172472+930727296+937696678+946376117+953565984+957947941
793+959729485+959798477+959039560+957762056+955775302+953192968+950455713
779+947695806+944647461+941073464+937278359+933801305+930787976+927887487
766+924695546+921235325+917582984+913545782+909203308+905349186+902863171
752+901635957+900638579+899174464+897375464+895370838+893043381+890427798
739+887701245+885023423+882396618+879686274+876942161+874415311+872067074
725+869555447+866322464+863550972+861258999+859221539+857179871+854868311
712+852375023+849955248+847769724+845774917+843767694+841630382+839479926
698+837472858+835642324+833904888+832193740+830535998+829029126+827716606
685+826511472+825294493+824035432+822839390+821818426+820844323+819635760
671+818567520+818505125+818916950+818563727+818223596+818305992+818382985
658+818369738+818411455+818564299+818940380+819612174+820427667+821230639
644+822115281+823276048+824725097+826267661+827763727+829268210+830885065
631+832612734+834439683+836597828+838881126+840891986+842320410+843679843
617+846087773+849540150+852886804+855634450+858175794+860867331+863607028
604+866191440+868884433+871973872+875131524+878126462+881366614+884998797
590+888469202+891576564+894697850+897869633+900965255+904216421+907791664
577+911493879+915071201+918368812+921489890+924819608+928349757+931692671
563+934924719+938394811+942016500+945558910+949073058+952622637+956091483
550+959425772+962863551+966452406+969801865+972668586+975268064+978114523
536+981331296+984505677+987484718+990489735+993539223+996313364+998671057
523+1000908948+1003278278+1005744551+1008245009+1010749934+1013090379
511+1015129397+1017037080+1019019886+1020883410+1022450599+1023951393
500+1025471721+1026686882+1027199650+1027094603+1026911004+1026742159
488+1026311060+1025786551+1025741768+1026582251+1027858092+1028501675
476+1028196716+1027386054+1026147930+1024377401+1022257025+1020439427
465+1020010510+1021139327+1022507954+1022817278+1021882970+1020212812
453+1017968894+1014654658+1009999329+1004224847+997493301+990332528+983253630
440+975968275+968987256+963846382+961294699+961697952+965945561+974112960
426+984697589+995877070+1006491312+1016708743+1026797021+1035189373+1041047706
413+1045189540+1048239131+1050766916+1053145493+1055340992+1057497941
401+1058650032+1057922391
##END=
