##TITLE=39
##JCAMP-DX=4.24
##DATA TYPE=INFRARED SPECTRUM
##DATE=16/11/2015
##SAMPLING PROCEDURE=Instrument type and / or accessory
##ORIGIN=Default
##XUNITS=1/CM
##YUNITS=TRANSMITTANCE
##RESOLUTION=4
##FIRSTX=3996.3359
##LASTX=399.24785
##DELTAX=-1.9287336
##MAXY=1.2208996
##MINY=0.030237138
##XFACTOR=1
##YFACTOR=1.1370513e-009
##NPOINTS=1866
##FIRSTY=0.1660642
##XYDATA=(X++(Y..Y))
3996+146048113+146148105+146249499+146381637+146535832+146672898+146785694
3983+146920519+147112168+147321928+147488467+147606885+147727609+147868344
3969+148010587+148158137+148323104+148491989+148630052+148761351+148920211
3956+149078862+149242885+149418506+149582150+149703830+149794308+149956798
3942+150138814+150237679+150323989+150424388+150544797+150684091+150788748
3929+150888596+151049055+151222999+151320369+151414582+151567099+151704558
3915+151754947+151798469+151891909+151973763+152077044+152295506+152545525
3902+152725183+152836681+152824349+152810798+152967352+153170454+153137285
3888+153083764+153241117+153303091+153380306+153593814+153647650+153652080
3875+153761625+153892047+154063855+154053764+153951819+154072491+154207814
3861+154227118+154164148+154196098+154592003+155000869+154894115+154732293
3848+154806062+154961422+155066014+155113206+155247913+155446088+155521665
3834+155587859+155736824+155845007+155954225+156063927+156120463+156269415
3821+156306516+156240663+156474222+156612520+156489397+156490420+156711634
3807+156925797+156869628+156939059+157184426+157192394+157223820+157326524
3794+157305111+157284011+157341805+157452936+157550176+157557764+157564290
3780+157700308+157842577+157902624+157918180+157952555+158063397+158128805
3767+158170492+158204500+158202115+158261324+158262071+158125384+158056517
3753+158242216+158462592+158338106+158134139+158370646+158506808+158206557
3740+158042875+158116617+158239491+158359756+158459695+158411875+158367698
3726+158388679+158362587+158330899+158275779+158157400+157979250+157844647
3713+157807049+157701225+157469226+157174374+156842645+156492464+156027718
3699+155418148+154761832+154037972+153276252+152572181+151955822+151362738
3686+150854680+150557352+150315943+149975761+149669692+149513938+149238809
3672+149026612+148994373+148723923+148349196+148065786+147735524+147303266
3659+146953937+146754818+146396367+145924191+145601649+145256251+144761036
3645+144234866+143737607+143182776+142567794+141959875+141326427+140582582
3632+139854647+139310445+138610240+137688664+136822299+136034185+135271272
3618+134386521+133403653+132522073+131672313+130747827+129717348+128563628
3605+127431781+126368840+125258183+124096928+122988434+121914603+120771289
3591+119604123+118481384+117263252+115918945+114668313+113571430+112493366
3578+111352555+110156689+108919261+107653001+106442621+105286687+104011830
3564+102661875+101397135+100166587+98918084+97688853+96490163+95266377+93967348
3549+92600939+91192306+89839991+88649676+87540566+86361003+85110567+83882902
3533+82702638+81519150+80325420+79125852+77886582+76650772+75489058+74377930
3518+73233790+72043108+70915015+69934878+69007562+67991269+66882696+65719311
3503+64570552+63523999+62551405+61604844+60677757+59759575+58826335+57848132
3487+56859942+55938851+55052993+54133258+53244769+52455875+51710163+50863846
3472+49803759+48658573+47718398+47049049+46447866+45752981+45013376+44333576
3456+43665209+42943741+42205764+41474474+40766383+40107049+39509310+38955600
3441+38346037+37578871+36757778+36114544+35643331+35172596+34692376+34276912
3425+33903214+33534427+33180449+32818145+32410472+31944524+31460337+31036023
3410+30702089+30426640+30107695+29602621+28975248+28582223+28552425+28557199
3395+28345149+28041012+27885261+27863648+27800249+27666832+27526300+27398779
3379+27275961+27181716+27132489+27042652+26838261+26624933+26592588+26784614
3364+27038250+27178340+27244662+27366562+27519331+27587691+27579130+27680747
3348+27959384+28218118+28363345+28510977+28703045+28913765+29189123+29530714
3333+29844112+30079594+30267354+30482989+30834012+31324509+31817880+32252051
3317+32661458+33042288+33377877+33658667+33886046+34138087+34561070+35201244
3302+35901986+36476048+36912978+37338212+37831200+38393716+39017725+39681553
3287+40354981+41011255+41640791+42275159+42922822+43549944+44149764+44739162
3271+45393073+46220358+47178799+48114021+48962205+49767389+50588976+51447229
3256+52352040+53320916+54313630+55240625+56124039+57122667+58290343+59517465
3240+60709832+61834641+62886318+63947451+65175798+66589247+68035132+69407372
3225+70714271+72014362+73377671+74838410+76366195+77909425+79444824+80984036
3209+82539309+84099162+85663720+87267934+88940510+90654499+92352552+94024198
3194+95707494+97422931+99180127+100974018+102758400+104520793+106280328
3180+108042517+109831670+111654850+113495880+115328456+117134128+118948528
3167+120782310+122601690+124409157+126209063+127977162+129717571+131432136
3153+133120399+134873362+136745084+138621025+140387264+142036802+143627380
3140+145279224+147059760+148860426+150556841+152159410+153749319+155356803
3126+156940199+158460128+159884533+161235078+162610405+164077376+165635532
3113+167191342+168630085+169993001+171372076+172745070+174071043+175343901
3099+176584036+177836018+179066271+180201067+181267180+182350525+183443463
3086+184457483+185398140+186328837+187267843+188238433+189253776+190251388
3072+191144801+191919548+192634326+193370688+194154543+194912174+195566616
3059+196112561+196593400+197036260+197441247+197819420+198150835+198372534
3045+198478633+198537973+198582189+198572413+198425400+198109541+197718983
3032+197277708+196676643+195905920+195038179+194056294+192883283+191487276
3018+189876949+188038003+185960060+183665844+181146167+178297933+174975819
3005+171116225+166720804+161715603+155964342+149375286+141832087+133052305
2991+122828880+111381740+99115224+86309454+73444035+61470117+51517079+44386563
2976+40402117+39676583+42136887+47340529+54606974+63254545+72688252+82457297
2961+92165274+101241702+108933218+114583654+117934823+119129758+118451674
2947+116201321+112811191+108939187+105334370+102567774+100843576+99966551
2934+99553609+99440381+99857988+101114838+103234744+105962706+108937614
2920+111805834+114236383+115930976+116732287+116682487+115895251+114456719
2907+112512146+110280283+108063007+106315679+105274257+104651129+104081634
2893+103451954+102726018+101811105+100641869+99342755+98220592+97749490
2880+98520168+100874596+104690497+109650263+115500591+122015211+128962219
2866+136093473+143115980+149806810+156072590+161904120+167365142+172546895
2853+177503227+182230286+186676922+190783664+194539819+198000231+201235852
2839+204290924+207237800+210177416+213137752+216092111+219018216+221891939
2826+224661779+227279940+229760052+232110162+234300259+236340433+238311019
2812+240319427+242445466+244742814+247202902+249731005+252245007+254691911
2799+257008446+259175084+261216176+263129938+264868460+266394443+267745447
2785+268986315+270128817+271143387+272023472+272817615+273565365+274253277
2772+274870947+275412501+275853986+276215843+276550809+276868556+277143972
2758+277366103+277587737+277867216+278169655+278465804+278823311+279309221
2745+279893682+280507367+281131484+281775835+282475516+283258310+284058533
2731+284816610+285579588+286403295+287305476+288318657+289481419+290808729
2718+292270628+293746130+295097029+296277693+297298868+298204849+299100556
2704+300090934+301191080+302366161+303594344+304841687+306075662+307281147
2691+308454026+309596816+310695442+311740809+312744397+313702301+314608596
2677+315525691+316512111+317520836+318496641+319428308+320306506+321134958
2664+321924068+322686103+323415925+324084625+324706803+325334484+325980041
2650+326623448+327264969+327903973+328514251+329099786+329673737+330211151
2637+330700993+331148033+331569939+332010715+332483704+332971712+333477542
2623+334033512+334653907+335298259+335900752+336434417+336958202+337517186
2610+338048336+338508560+338931881+339342699+339752102+340179748+340626422
2596+341049664+341440352+341859453+342306232+342731335+343142258+343565002
2583+344002162+344429624+344827075+345194044+345527044+345833808+346141253
2569+346468278+346794647+347083300+347327081+347532359+347694836+347825205
2556+347934528+348016723+348085525+348159647+348280660+348511781+348852094
2542+349284011+349809159+350394642+351027958+351734297+352478692+353193575
2529+353874489+354537711+355189401+355846779+356491366+357088670+357655989
2515+358215655+358758049+359288936+359837069+360427690+361057625+361713954
2502+362403754+363132580+363905859+364720341+365555240+366400073+367248470
2488+368097575+368957505+369823909+370671598+371492580+372316209+373172233
2475+374049803+374919325+375776713+376645633+377546922+378462287+379370286
2461+380286673+381210188+382120258+383009098+383837104+384556128+385197465
2448+385825120+386429815+386964267+387442996+387918684+388404333+388886626
2434+389338411+389707162+389977861+390195537+390396857+390586147+390749515
2421+390878705+391029571+391290310+391686581+392206487+392838493+393540899
2407+394277274+395047015+395843569+396640961+397389655+398127236+398872522
2394+399621164+400354000+401043302+401634315+402047152+402250857+402305165
2380+402315518+402337508+402337928+402256204+402073677+401898226+401846906
2367+401823710+401746626+401870574+402441563+403329092+404273969+405222122
2353+406344364+407486105+408309236+408853884+409346189+409924989+410667156
2340+411541187+412358185+412977715+413535704+414225241+414979255+415606387
2326+416101628+416641715+417384852+418308158+419223103+420011479+420690402
2313+421314178+421950037+422654881+423443650+424252575+424990234+425650914
2299+426287271+426925044+427561296+428195451+428805913+429364583+429869889
2286+430335277+430767456+431173662+431563224+431923325+432226368+432479506
2272+432709212+432908881+433048764+433127867+433179475+433242169+433368188
2259+433639778+434118350+434804794+435676545+436647265+437576809+438615519
2245+439536387+440359833+441123807+441854127+442550532+443202536+443833153
2232+444474412+445119497+445747335+446347758+446914842+447471546+448052626
2218+448661803+449272448+449862072+450440059+451023393+451621876+452227488
2205+452818318+453376019+453921400+454521037+455178598+455824574+456434380
2191+457034855+457641516+458252003+458860027+459480055+460152399+460864687
2178+461557474+462220015+462879254+463542004+464205437+464861373+465490312
2164+466109816+466740171+467348142+467932420+468527076+469111878+469652856
2151+470171451+470679981+471145473+471569607+471992429+472441829+472932012
2137+473467853+474086256+474835448+475695980+476622353+477605287+478659199
2124+479769147+480867931+481916810+482929519+483896360+484820950+485736419
2110+486622009+487446424+488226806+488959119+489625119+490274188+490971065
2097+491683824+492349668+492991870+493688484+494438567+495187182+495918918
2083+496653956+497409124+498196635+499023933+499866119+500700703+501520505
2070+502299839+503047878+503822651+504616505+505418693+506223660+507032454
2056+507867039+508694389+509503550+510311296+511082871+511803074+512530669
2043+513291026+514007036+514654218+515308109+515985381+516661131+517336515
2029+518050743+518820117+519602805+520349376+521031155+521716080+522469989
2016+523194019+523875903+524587038+525313375+526001968+526623202+527243073
2002+527910646+528571143+529123549+529565243+530101975+530783964+531329817
1989+531777434+532234068+532689496+533188329+533683596+534142169+534613324
1975+535158548+535740728+536264932+536809947+537458649+538100536+538752855
1962+539420743+540051884+540650734+541193075+541645620+542018801+542292645
1948+542387631+542265072+542106081+541839261+541256085+540514127+539524640
1935+538220316+536807850+535508192+534583444+534340056+535125733+536819959
1921+539022348+541910500+544921526+547528915+550049705+552468014+554643512
1908+556556540+558326199+559996102+561513777+562875396+564151832+565393198
1894+566434162+567444093+568692798+569774125+570719631+571791418+572821845
1881+573784231+574704365+575605524+576440895+577129017+578057801+579226723
1867+580132704+581027939+582083947+583067405+583954358+584847444+585765272
1854+586630417+587384799+588033239+588608028+589690509+590906399+591447534
1840+592175706+593305417+594208305+594802385+595542928+596522297+597143479
1827+597920663+599003458+599815187+600655538+601591556+602363865+602974772
1813+603710702+604579726+605331906+606014157+606668101+607388200+608213663
1800+608843809+609173795+609610456+610613363+611593047+611933622+612406401
1786+613254406+613875167+614355286+614902030+615139861+615215818+615754857
1773+616555054+616882524+617292399+617706782+618070369+618876542+619459509
1759+619852662+620563272+621078512+621845526+623104559+624033448+624738554
1746+625530206+626346653+627212428+627683111+627469445+628246210+629562590
1732+629621720+629730440+630330024+630728524+630700636+630083125+629688871
1719+630072850+630081866+629549852+629157066+628838665+628376527+627692913
1705+626389743+625127775+624843919+623704824+622489353+621932439+620421056
1691+618818565+617029615+614916603+613665853+612083230+609216150+606767910
1678+605061103+603505948+601147818+598790684+597542974+596114939+594361477
1664+593418278+592710446+591339863+589659528+588527510+589235395+590008753
1651+588300163+587584416+588925958+589771813+589913243+590374385+591252373
1637+593334667+596311672+598428302+600386202+603249193+606364745+609575649
1624+613279410+616435063+619069868+623023727+627653231+631283603+634814901
1610+638668322+642233745+645386149+648380610+651290831+653943039+656322819
1597+658574955+660727545+662702010+664535046+666274301+667887380+669344824
1583+670509185+671136499+671583592+672965970+674290108+674067951+674289636
1570+675495200+675919700+675704200+675018489+674447422+675594379+676338539
1556+675335790+675186968+675564500+675684280+675345487+674582719+673696815
1543+673100218+673605184+673636898+672214367+671765806+671981830+671008751
1529+669726968+668664617+667187359+665825320+664846318+663074509+661301338
1516+659832677+657826497+655227548+652394227+650404403+648044543+643715459
1502+639196562+634972948+629715815+622563738+613383727+603096650+591701354
1489+579326321+568526678+561000581+555942121+551674317+547351839+543041732
1475+538246212+531796463+522736809+512328221+502428007+492208342+479966300
1462+466341619+453890996+445315392+442677599+445769614+452176326+459401058
1448+466783313+474268102+481222816+486708136+489996780+491702591+492293106
1435+491304091+489737037+488419241+486954616+485484278+484555179+484030346
1421+484243435+485562856+487062026+488728731+491084083+493899843+496928429
1408+500236783+503979440+507675023+510920211+513701478+514753135+512989137
1394+508965141+503510068+496357362+485846607+471846176+458281464+449944057
1381+449387091+456873243+470917707+490044063+512890535+537845983+563328465
1367+586102702+602975768+613590577+618860711+620572917+620956372+621019591
1354+620618471+619433770+617412179+614781044+612084698+609746120+607827063
1340+606218806+604784271+603785348+603559364+604162880+605586931+607795506
1327+610728897+614357120+618668171+623646690+629145062+634928181+641030121
1313+647564215+654409528+661468245+668674786+675887462+682986018+689824464
1300+696219538+702043755+707230855+711689521+715253320+717719069+718874571
1286+718407768+715939031+711224081+704621579+697404710+691585473+689375221
1273+692264998+700164905+711478949+724136894+736489071+747615346+757248898
1259+765404930+772221831+777915364+782552312+786154220+789150935+791995369
1246+794165834+794789217+794533406+794957958+795993103+796876124+798225372
1232+800957731+805154348+810359428+815949798+821398895+826421080+831008858
1219+835251028+839152256+842623480+845638857+848337615+850863700+853233939
1205+855352403+857192777+858893713+860574834+862177744+863570291+864779524
1192+865938853+867057346+867941782+868484910+868848707+869208940+869546684
1178+869676791+869475392+869007069+868264534+867022853+865097139+862543061
1165+859463732+855853804+851863828+847979112+844635060+841909672+839700626
1151+837834199+836022708+833926680+831315360+828117717+824327725+819971960
1138+815103576+809877580+804483001+798909930+793233643+787818672+782734316
1124+777482582+771447216+764170640+755166709+743586474+728254042+708042689
1111+681921622+648726741+607247661+557093954+499740834+438449137+377453693
1097+321548817+275649494+243584822+227044599+225726961+237934798+260859167
1084+290924971+324123626+356250861+383262681+401635914+409529163+408905649
1070+405010658+401363459+395533502+379535122+344635007+289179190+222284751
1057+158571967+109542316+79225536+66318699+68750126+86560010+121911563
1043+176715061+249607608+334499058+422560498+505581930+578234248+638673459
1030+687183997+725603144+755191346+772484562+772962112+760273029+748593457
1016+753207236+777333446+811804658+846593694+877405440+903794166+926300115
1003+945447596+961317127+973731842+983043481+990089931+995397178+998930625
989+1000535527+1000308547+998387865+994400772+987149987+974485332+953071404
976+918799809+870665806+818447523+783521722+783680241+817391725+867673285
962+917709151+959194837+990787227+1014005988+1030695059+1042431454+1050760002
949+1056970976+1061738713+1065291346+1067868750+1069898991+1071566168
937+1072729900+1073401300+1073741823+1073736476+1073210595+1072104630
926+1070513777+1068564159+1066190565+1063066101+1058962950+1053895683
914+1047933705+1041057621+1033198236+1024486077+1015321320+1006010520+996158532
901+984261206+967855310+944075755+909786757+861711832+798008509+720451533
887+635643352+554707517+492761325+468611578+497659221+577395522+683789464
874+787486746+870721215+929794980+968776860+993074956+1006823874+1013532003
860+1017035151+1020938267+1026658586+1033022838+1038459144+1042417720
849+1044728305+1045272743+1044539487+1043355835+1042000035+1040128523
837+1037572087+1034685507+1031778274+1028720070+1025202663+1021251531
825+1017189686+1012988299+1008119810+1002192011+995258369+987277579+977736024
812+966097550+952552862+938514479+926815512+920838857+922232085+929323617
798+938228893+945582526+950029241+951794864+951842461+951093794+949742397
785+947510128+944626693+941696395+938859300+935774257+932159663+928295234
771+924683261+921451231+918377616+915178925+911738996+907983496+903732624
758+899120681+895085256+892600950+891373685+890231130+888605260+886709321
744+884612192+882170241+879472165+876774299+874177709+871496826+868594154
731+865696670+863072035+860610270+858023063+854756226+851812665+849279766
717+847116063+845092322+842847787+840443213+838138185+835981820+833821053
704+831555130+829244808+827001006+824907023+823027176+821297619+819563553
690+817775337+816059252+814507556+813092364+811844183+810771872+809725194
677+808636161+807562802+806382924+805320730+805163364+805540267+805136106
663+804535159+804345187+804424552+804658871+804981885+805310194+805763892
650+806480321+807319624+808130462+809027951+810163795+811526148+812989148
636+814457390+815969613+817599100+819326980+821148378+823257983+825342636
623+827165030+828718035+830400467+832982222+836362812+839591749+842211247
609+844531110+847136874+850094116+852992543+855861562+858855656+861756337
596+864668864+868105963+871938573+875411422+878637424+882035941+885366835
582+888532396+891701102+895131386+898894120+902492673+905821471+909182035
569+912779121+916410804+919631301+922541680+925749806+929489789+933355686
555+936934949+940191826+943354975+946553142+949934779+953516348+956993496
542+960287277+963442878+966583801+969706797+972628708+975459827+978321455
528+981308472+984220633+986452377+988555692+991276833+994114242+996590580
515+999081177+1001799277+1004156621+1006058013+1007843869+1009548789+1011287887
501+1012650922+1013792113+1015150954+1015983494+1016009914+1015854330
490+1015786498+1015621164+1015227697+1014830980+1015102937+1016300742
478+1017268527+1017004538+1016089278+1014619097+1012290270+1010106123
467+1008623675+1008385057+1009270857+1009949176+1010177834+1009227453
455+1006908795+1004245526+1000737975+996472005+991448038+985132013+977948641
442+970185395+962115385+954969126+949594676+946705056+947479409+952207621
428+960375448+970880699+982164601+993408455+1005701554+1017409433+1026082487
415+1032483747+1036224045+1038037055+1040006908+1042206676+1044326765
403+1046940340+1049551083+1051338827
##END=
