##TITLE=39
##JCAMP-DX=4.24
##DATA TYPE=INFRARED SPECTRUM
##DATE=16/11/2015
##SAMPLING PROCEDURE=Instrument type and / or accessory
##ORIGIN=Default
##XUNITS=1/CM
##YUNITS=TRANSMITTANCE
##RESOLUTION=4
##FIRSTX=3996.3359
##LASTX=399.24785
##DELTAX=-1.9287336
##MAXY=1.2179694
##MINY=0.034987926
##XFACTOR=1
##YFACTOR=1.1343224e-009
##NPOINTS=1866
##FIRSTY=0.14771804
##XYDATA=(X++(Y..Y))
3996+130225798+130295580+130386446+130497306+130614169+130744971+130892928
3983+131045458+131198749+131340270+131449448+131562213+131735314+131951517
3969+132128270+132214788+132275518+132413400+132637038+132864485+133023649
3956+133112531+133174667+133256627+133355453+133462530+133621233+133802020
3942+133922876+134013453+134132629+134252803+134357147+134499653+134691842
3929+134852568+134952301+135043745+135128201+135191164+135294339+135456012
3915+135603497+135707709+135791902+135865401+135954139+136105263+136298739
3902+136431222+136481785+136552118+136658748+136741640+136827357+136949041
3888+137061070+137158702+137266304+137363672+137462972+137584919+137696935
3875+137787762+137865622+137932777+138010913+138097234+138161827+138213283
3861+138282592+138376716+138504706+138682155+138860498+138934155+138902023
3848+138890725+138987713+139145694+139276850+139385214+139489125+139551156
3834+139577613+139604609+139655382+139764087+139934837+140093514+140163926
3821+140191947+140288974+140450922+140557302+140550682+140516067+140552481
3807+140681470+140835260+140942311+141005419+141053302+141108949+141157869
3794+141168536+141191880+141288303+141410106+141488925+141538674+141595726
3780+141676490+141786575+141893533+141966494+142028420+142099686+142141736
3767+142120902+142085367+142120718+142250508+142397441+142470756+142489594
3753+142537451+142632639+142715820+142747019+142747532+142712995+142638918
3740+142586227+142597945+142673231+142811980+142941126+142949021+142850536
3726+142763414+142747295+142751486+142728470+142708095+142717633+142718486
3713+142671865+142587094+142477206+142340690+142189869+142032151+141829203
3699+141525918+141132174+140713444+140318137+139957471+139622540+139305882
3686+139036805+138849673+138709584+138571637+138471877+138437709+138406234
3672+138326875+138198964+137996989+137722460+137425966+137117466+136781983
3659+136455958+136169186+135862157+135478449+135069638+134695494+134295089
3645+133803478+133266584+132742788+132228384+131686262+131109564+130538989
3632+129985976+129401896+128776974+128155231+127536115+126888677+126195090
3618+125451820+124667669+123865100+123056607+122236146+121373294+120457593
3605+119525917+118600837+117684991+116789612+115910694+115033010+114150938
3591+113244223+112237406+111114514+110021403+109071652+108201915+107293118
3578+106301743+105279491+104282828+103285319+102270003+101280894+100312220
3564+99294631+98210768+97129000+96081926+95021578+93943088+92886562+91856257
3549+90764039+89547936+88350304+87325884+86393151+85399655+84338393+83279214
3533+82241592+81224857+80223059+79179348+78065132+76959476+75957612+75045917
3518+74103621+73051384+71990714+71079978+70254887+69318187+68226468+67107425
3503+66145247+65346081+64537725+63669953+62803738+61956682+61100345+60221374
3487+59358318+58549122+57729272+56828008+55958180+55227022+54541028+53764036
3472+52831517+51800772+50881915+50220506+49700690+49110323+48395172+47670829
3456+47001788+46336730+45658283+44975773+44287217+43624025+43009773+42408273
3441+41763794+41066483+40397405+39856590+39396582+38921158+38479295+38123345
3425+37773809+37360472+36920211+36526684+36184403+35804229+35343981+34895356
3410+34561180+34328793+34056937+33592236+33020645+32670758+32627381+32571067
3395+32278075+31919593+31791012+31866376+31900909+31815446+31648249+31446852
3379+31304044+31273002+31303607+31257721+31046431+30844781+30898684+31147557
3364+31345716+31430937+31547669+31740994+31890341+31928135+31925429+32051875
3348+32369965+32714329+32948161+33095534+33221021+33421522+33767012+34180934
3333+34573485+34943170+35261762+35510432+35814393+36279433+36789298+37205811
3317+37547110+37879851+38238126+38600220+38915818+39218325+39666704+40340661
3302+41076792+41673831+42120926+42553587+43071206+43676460+44348568+45037196
3287+45701397+46365936+47047756+47751547+48463677+49116064+49690049+50262132
3271+50955355+51850813+52848401+53770857+54593640+55425970+56324232+57235191
3256+58151772+59115691+60075236+60971567+61886723+62946874+64115094+65260693
3240+66368688+67477675+68555560+69630891+70863395+72271089+73665994+74969744
3225+76267189+77608044+78971474+80341925+81729041+83158876+84647255+86157500
3209+87642844+89119236+90626407+92164436+93723338+95303069+96898919+98508490
3194+100119703+101715874+103303139+104903553+106523890+108153789+109787472
3180+111432433+113086609+114732602+116382259+118029302+119633020+121223576
3167+122856208+124507901+126128815+127729867+129356942+130988195+132544714
3153+134044022+135604456+137225186+138782926+140263436+141740846+143197434
3140+144622416+146116312+147683524+149197953+150607249+151965983+153335856
3126+154713888+156047084+157300081+158492965+159670203+160879744+162182305
3113+163535232+164797320+165960765+167107394+168215337+169258056+170297924
3099+171386175+172480363+173489216+174394106+175263501+176170624+177109445
3086+177998164+178795845+179522997+180248729+181082773+182008248+182863166
3072+183561627+184131559+184647211+185224880+185887662+186525642+187065439
3059+187512255+187899470+188251912+188569582+188861307+189119389+189295091
3045+189384827+189449367+189510335+189523025+189445637+189289363+189083539
3032+188825628+188506185+188100736+187565300+186879096+186038668+185062407
3018+183953361+182641919+181088396+179368641+177517758+175394210+172840018
3005+169837026+166374962+162311977+157492926+151850000+145254747+137507965
2991+128514071+118227060+106702653+94295491+81651469+69688075+59539754+52199219
2976+48228955+47807782+50746933+56484380+64248148+73271377+82972224+92931194
2961+102642853+111441392+118701752+123977615+127065259+128049429+127197427
2947+124881336+121597654+117938777+114507269+111782524+109977822+108960667
2934+108427287+108261838+108632402+109778480+111769256+114394807+117263095
2920+119988576+122278407+123917055+124767560+124799232+124071555+122713636
2907+120923837+118940917+117029237+115434018+114252077+113410703+112783626
2893+112231915+111584897+110697282+109578167+108398400+107391793+106951145
2880+107623576+109737415+113215585+117808396+123279417+129364154+135769346
2866+142213305+148444857+154313418+159777043+164838661+169537498+173963987
2853+178183561+182199898+185982679+189459325+192599240+195438851+198051764
2839+200559952+203038004+205500582+207957234+210389834+212781329+215154617
2826+217506019+219762207+221879752+223869792+225740893+227514336+229220047
2812+230901535+232645500+234545633+236633882+238840282+241048863+243176654
2799+245157183+246970115+248655990+250206584+251605345+252900064+254104061
2785+255189225+256162675+257042539+257824667+258521144+259152674+259694822
2772+260153869+260593577+260988517+261279913+261531190+261804774+262077359
2758+262335441+262582330+262822993+263077370+263368951+263714786+264110776
2745+264546202+265035856+265586806+266175353+266795244+267455306+268135389
2731+268797265+269439934+270119728+270882939+271744491+272736385+273881845
2718+275141989+276418500+277597065+278623534+279524286+280321258+281063793
2704+281881731+282839890+283887745+284953887+286006156+287046577+288070812
2691+289085879+290097083+291090685+292050604+292942633+293762436+294549372
2677+295356828+296236298+297164190+298062498+298897751+299668476+300375910
2664+301056255+301726958+302353233+302936893+303498116+304040606+304605139
2650+305202251+305782101+306327166+306850135+307355947+307846626+308327269
2637+308789966+309211389+309599524+309980276+310382992+310831266+311307100
2623+311808735+312344052+312885071+313431764+313988416+314518084+315015673
2610+315496657+315936918+316332435+316724143+317133506+317542107+317937861
2596+318325786+318712843+319133688+319582750+319993217+320371262+320766438
2583+321179322+321603451+322017412+322380035+322720904+323089544+323452220
2569+323762559+324024004+324258519+324479792+324693078+324889786+325048345
2556+325176769+325309580+325460940+325607518+325744665+325939428+326262957
2542+326719087+327263941+327858820+328474743+329088722+329721724+330395291
2529+331073193+331717360+332326400+332907511+333460799+333999953+334549457
2515+335095941+335611027+336108222+336631506+337220579+337852108+338467743
2502+339081354+339753240+340498874+341268864+342019832+342773375+343557552
2488+344364561+345159668+345915575+346663443+347441393+348232060+349013505
2475+349794451+350584303+351390025+352229560+353081522+353904058+354729458
2461+355586544+356430834+357238710+358010434+358734314+359426955+360103334
2448+360723934+361271021+361788762+362290870+362761318+363232529+363715116
2434+364132256+364453236+364745894+365034978+365282840+365477630+365640445
2421+365817132+366067122+366404076+366813440+367310635+367895950+368538541
2407+369222880+369932257+370658765+371411913+372135715+372831246+373504760
2394+374175753+374864138+375559091+376184552+376619610+376813822+376858040
2380+376906173+376999627+377103879+377269085+377517420+377739980+377893941
2367+378052710+378215605+378521793+379055192+379557064+380030507+380756989
2353+382177267+384092980+385281319+385074654+384474862+384899858+386303374
2340+387733032+388795102+389475973+389899313+390211466+390529293+390885295
2326+391257745+391645144+392099355+392744679+393561619+394314872+394836291
2313+395245654+395767940+396486382+397325207+398131691+398811353+399424492
2299+400048586+400644989+401207157+401801537+402425079+403024976+403582363
2286+404106750+404597429+405037953+405428216+405788789+406121934+406433036
2272+406745845+407039816+407254416+407373828+407452858+407560867+407747302
2259+408065103+408548268+409206176+410041376+410941943+411747744+412683544
2245+413565274+414412507+415206904+415898022+416520251+417161896+417819620
2232+418431734+419015342+419624933+420238886+420819709+421411119+422051871
2218+422703500+423310911+423870163+424427918+424999229+425581497+426176296
2205+426754597+427321757+427935684+428599766+429255099+429889388+430521470
2191+431147062+431763694+432371999+432962017+433534957+434141370+434816303
2178+435513096+436191550+436859258+437511727+438145516+438788370+439439027
2164+440071135+440679229+441263703+441852434+442474952+443092215+443646791
2151+444152971+444647223+445118407+445569256+446042332+446548145+447058003
2137+447590404+448224377+448982150+449818690+450715553+451674841+452678269
2124+453699615+454715969+455703947+456654566+457580277+458503571+459413834
2110+460256574+461012297+461735547+462453647+463122511+463745397+464383679
2097+465053016+465731969+466392794+467047470+467734043+468452878+469176601
2083+469906787+470656730+471409826+472162082+472934357+473730962+474541964
2070+475335100+476077582+476805508+477580254+478375597+479126171+479847687
2056+480607982+481420560+482216324+482944303+483642593+484372779+485129658
2043+485848179+486513260+487180074+487872269+488547491+489182673+489820325
2029+490496177+491213805+491958283+492696929+493403364+494089568+494792745
2016+495506484+496194685+496867385+497554115+498237324+498885117+499504640
2002+500118278+500717413+501284862+501843431+502419235+503007020+503576519
1989+504105504+504629550+505160427+505658778+506127808+506610973+507122513
1975+507653758+508199137+508750508+509337084+509997541+510703555+511395645
1962+512069290+512749242+513390414+513934585+514416541+514886517+515287342
1948+515522435+515587908+515529739+515358910+515017516+514430151+513604383
1935+512599537+511480665+510397472+509642799+509529457+510266631+511868773
1921+514065531+516599217+519280716+521803210+524047627+526117380+528072897
1908+529896050+531552052+533043111+534414048+535706009+536935649+538100079
1894+539184323+540214444+541261432+542309156+543279742+544210813+545164112
1881+546113416+547044855+547985910+548923917+549790566+550628525+551594854
1867+552656030+553624514+554461737+555272162+556154154+557108188+558034267
1854+558866708+559656167+560472003+561326356+562252751+563253709+564178842
1840+564982120+565789812+566617261+567402516+568214989+569152156+570071351
1827+570853295+571660356+572549495+573392656+574159099+574919604+575702021
1813+576502672+577352558+578228981+579046972+579746313+580380812+581118775
1800+581965403+582708463+583312905+583989336+584810217+585583596+586185673
1786+586714344+587290358+587934578+588597819+589185394+589694097+590290919
1773+591002083+591586505+591993057+592391517+592853611+593419379+594045628
1759+594648651+595322928+596104767+596944722+597933016+599064972+600117005
1746+600979188+601754196+602549224+603273735+603781386+604275428+604975715
1732+605591139+605943569+606235517+606493467+606643067+606714110+606791038
1719+606958609+607132538+607132433+606980836+606762821+606482117+606130581
1705+605708160+605283795+604929054+604473108+603739349+602822045+601747575
1691+600485409+599119988+597792559+596534124+595136072+593452378+591657285
1678+589973539+588420002+586916542+585474877+584156118+582934203+581773504
1664+580750529+579901903+579124846+578364341+577789325+577719858+578023472
1651+577906976+577390655+577217094+577459596+577742611+578128039+578926378
1637+580433989+582616191+584752311+586513826+588469816+590966142+593850260
1624+596965741+600005764+602786997+605954025+609875832+613720762+617057148
1610+620247665+623404973+626389244+629183876+631833059+634305844+636582998
1597+638725843+640781619+642714016+644500859+646159961+647685911+649070142
1583+650288853+651301896+652214681+653334604+654571443+655338411+655695622
1570+656160448+656696633+656993783+657045751+657105865+657590869+658375755
1556+658591038+658191002+657744462+657491713+657357037+657156572+656919798
1543+656948330+657324195+657487667+656919430+656017995+655311613+654679899
1529+653866269+652969143+652129135+651311775+650397361+649255842+647853219
1516+646293324+644600802+642699250+640657136+638598050+636300350+633350759
1502+629733355+625545821+620511501+614217221+606632926+597684314+587028099
1489+575745004+566307605+559820269+555426491+551862526+548508747+545120866
1475+541036901+535088167+526913460+517761387+508537642+498671989+487488470
1462+475437986+463892843+455475002+453376717+457211926+463447091+469857393
1448+476329543+483143454+489677188+494911185+498184988+499614094+499846507
1435+499328819+498252878+496908686+495633226+494668000+494211423+494328234
1421+495064988+496675906+499166714+502110367+505348754+508961587+512835628
1408+516770466+520666314+524293913+527225113+529250359+530213431+529616293
1394+526875836+521638897+513622774+502472938+489120090+476758795+468973982
1381+468203913+475024078+488036214+505683107+526918767+550234584+573779293
1367+594788267+610295993+619663401+624147612+625537151+625573460+625279673
1354+624724099+623550684+621600264+619125588+616652698+614541486+612732836
1340+611088079+609781353+609043075+608899465+609376535+610611377+612680657
1327+615499040+618967370+623030316+627644159+632735230+638166223+643894577
1313+650001424+656478565+663191797+670036764+676892713+683600901+690055395
1300+696125458+701687188+706678893+711002049+714489033+716958507+718220884
1286+718008648+715967533+711876002+706089479+699754423+694708858+693066571
1273+696262184+704229281+715495981+728131044+740592230+751956877+761871766
1259+770311939+777360891+783213254+788125614+792195601+795392108+797787387
1246+799497985+800557112+801036178+801229286+801599108+802654925+804832818
1232+808266836+812712110+817668188+822635880+827252665+831279092+834702232
1219+837698852+840388076+842734013+844741236+846550358+848300576+850021946
1205+851595188+852950572+854229658+855548942+856792245+857826674+858705777
1192+859576892+860458097+861149976+861524212+861742595+861988776+862263121
1178+862399899+862249616+861837337+861147927+860011242+858295442+856015240
1165+853232326+849963252+846363556+842882194+839939381+837603060+835732616
1151+834157272+832633372+830840644+828583510+825874582+822700932+818979433
1138+814754224+810231916+805587964+800800034+795905120+791200739+786809220
1124+782341298+777213708+771011280+763308754+753260239+739676030+721464052
1111+697658975+667055224+628240404+580550905+525167130+465117491+404581744
1097+348498655+302108446+269738004+253588265+253557079+267820005+293392457
1084+326554038+363094805+398502485+428357685+448884624+458198171+458434945
1070+455681825+454159659+449753952+431955726+392483549+331741820+259237379
1057+189186215+133939074+99124715+84220735+87149019+107810556+147932227
1043+208481543+286951573+376296397+466680749+549359002+619913207+678375364
1030+726462746+764785941+792176579+806279055+805378934+793184736+782320122
1016+787044313+810223824+842713625+874731926+902357290+925472590+944804963
1003+960964161+974202089+984490689+992163315+998065335+1002735771+1006040629
989+1007728632+1007886376+1006613491+1003447040+997139992+985577875+965606116
976+933462596+888558796+840353132+808615271+809735247+842297720+890120162
962+937045110+975299154+1003821801+1024205840+1038387924+1048033460+1054721680
949+1059734824+1063621372+1066444484+1068440514+1070114540+1071612219
937+1072681435+1073276366+1073597110+1073741823+1073552130+1072779382
926+1071430198+1069799471+1067942058+1065473005+1062126740+1057975673
914+1053148019+1047643565+1041338408+1034211740+1026569801+1018768436
903+1010359949+999718237+984545758+962259641+929905515+884151303+822659788
889+746909945+663656991+583915613+522723719+499221362+528632570+607680335
876+712161644+813307777+894007970+950924421+988162637+1011100434+1023813423
862+1029660585+1032410657+1035589088+1040419581+1045738125+1050271204
851+1053646474+1055576401+1055840605+1055009635+1053930646+1052766216
839+1051094082+1048679466+1045852886+1043099451+1040452580+1037439985
827+1033874392+1030131822+1026289308+1021849026+1016439261+1010076408
816+1002665569+993722369+982786396+970097789+957028430+946204801+940746063
802+942215368+949140678+957894290+965141500+969524927+971361532+971570036
789+970970796+969798064+967849746+965297353+962634928+960031881+957210451
775+953855989+950256345+947001091+944190695+941439257+938408901+935127269
762+931628409+927679542+923395217+919684595+917388630+916253205+915251459
748+913823982+912118639+910100223+907692018+905186602+902773878+900369667
735+897819797+895101778+892414341+889958424+887662563+885269492+882214755
721+879384286+877105766+875304788+873472125+871288451+868901002+866538407
708+864403812+862475566+860509330+858439734+856473918+854712980+853028603
694+851305499+849606304+848029121+846614991+845316725+844071058+842951871
681+841962053+840918112+839983310+839687211+839350913+836862050+833500862
667+834215231+837436435+838353791+837173335+836279362+836313464+836727793
654+837130352+837607789+838320424+839212611+840109632+840998088+842026212
640+843228948+844515181+845908346+847468661+849144946+850833789+852565143
627+854711824+856981569+858941290+860362620+861790203+864295724+867790169
613+871045739+873591720+875909020+878431356+881153946+883967495+886973258
600+890111334+893067599+895962909+899290783+902996676+906502787+909673546
586+912814879+915946965+918935072+921970577+925313059+928876550+932511505
573+936042628+939318586+942702264+946322190+949544235+952364404+955629327
559+959489496+963336529+966875429+970232728+973528233+976794417+980204158
546+983736542+987045498+990025514+992920194+996103145+999484720+1002571616
532+1005409125+1008287201+1011065753+1013524823+1015740393+1018048760
521+1020654644+1023368985+1026041814+1028747537+1031336397+1033573931
509+1035490091+1037198272+1038749759+1040216856+1041673655+1043206225
498+1044662288+1045433671+1045289168+1044758133+1044304552+1044073663
486+1044031836+1044150591+1044739321+1045798763+1046479871+1046189709
474+1045225271+1043895635+1042206686+1040175029+1038283672+1037558005
463+1038198126+1039225304+1039793227+1039378110+1037786477+1035493769
451+1032499566+1027908896+1021637684+1014852252+1008158882+1001083710+993398157
438+986091570+980767456+978216535+978683357+983049549+991632911+1002603039
424+1013798380+1024618015+1035013179+1044173921+1051318035+1057077129
413+1061767953+1065076384+1067811848+1070222365+1071314071+1071509018
401+1071998751+1073049891
##END=
