##TITLE=39
##JCAMP-DX=4.24
##DATA TYPE=INFRARED SPECTRUM
##DATE=16/11/2015
##SAMPLING PROCEDURE=Instrument type and / or accessory
##ORIGIN=Default
##XUNITS=1/CM
##YUNITS=TRANSMITTANCE
##RESOLUTION=4
##FIRSTX=3996.3359
##LASTX=399.24785
##DELTAX=-1.9287336
##MAXY=1.2267618
##MINY=0.035290454
##XFACTOR=1
##YFACTOR=1.142511e-009
##NPOINTS=1866
##FIRSTY=0.15488352
##XYDATA=(X++(Y..Y))
3996+135564141+135669485+135723637+135802101+135957658+136122632+136250383
3983+136394868+136571424+136705526+136778108+136856610+136983944+137145853
3969+137298528+137438565+137609852+137794468+137947639+138075572+138187620
3956+138298364+138430666+138583159+138745707+138890387+138992301+139098349
3942+139254168+139401704+139469707+139499523+139612288+139828388+140013461
3929+140091716+140132930+140227644+140386515+140541068+140663432+140782419
3915+140895575+140999119+141119201+141268211+141457510+141696513+141912848
3902+142006363+142011802+142029265+142074040+142131584+142203056+142264734
3888+142327560+142451776+142606708+142709456+142783903+142873791+142984130
3875+143156891+143388643+143579663+143661504+143661139+143623642+143583145
3861+143595848+143677598+143806771+143998352+144204697+144284569+144245989
3848+144223034+144279013+144402590+144572677+144766762+144946813+145080877
3834+145180743+145268179+145338739+145396413+145477315+145596197+145705637
3821+145758537+145791495+145855325+145909477+145931493+145980481+146052032
3807+146084938+146101476+146188208+146340309+146449018+146494093+146554688
3794+146639386+146695208+146724971+146782710+146878389+146977551+147079661
3780+147197265+147279080+147267759+147212016+147224054+147337862+147455062
3767+147496563+147528152+147625410+147744839+147793397+147756212+147731836
3753+147823890+148016371+148186223+148250913+148252348+148239945+148183784
3740+148077722+147988342+147988838+148089291+148188401+148185179+148112950
3726+148057859+148045547+148056998+148059776+148018953+147934451+147847327
3713+147796566+147758951+147692500+147595751+147464883+147283254+147018035
3699+146668301+146318894+146004792+145636342+145168222+144695080+144324270
3686+144063238+143861028+143674533+143492865+143368192+143353284+143360914
3672+143269813+143100261+142894594+142648065+142353006+141996098+141599373
3659+141223358+140886185+140569331+140262246+139926442+139466969+138861133
3645+138236568+137673538+137155583+136660425+136135023+135537939+134923651
3632+134347344+133769106+133120804+132383122+131615117+130923266+130291032
3618+129571297+128726497+127873311+127065370+126226556+125309971+124377017
3605+123463353+122511384+121499301+120506183+119563969+118612651+117637505
3591+116672806+115667728+114549714+113401834+112356924+111402085+110436042
3578+109409222+108359753+107331283+106296878+105234576+104187018+103164280
3564+102095378+100963820+99845135+98757231+97653134+96526271+95379591+94215342
3549+93022230+91800920+90637545+89591676+88583924+87517944+86414975+85341228
3533+84271354+83149422+82013514+80893303+79737095+78581546+77529358+76547997
3518+75528885+74461189+73422663+72459027+71517035+70538289+69519986+68471208
3503+67479655+66598675+65704699+64735937+63800505+62975302+62193119+61340135
3487+60414948+59510447+58620579+57691192+56816180+56067099+55342929+54517435
3472+53520824+52422316+51480468+50844220+50301693+49611769+48849632+48146454
3456+47454724+46767458+46126988+45456182+44718972+44020030+43429262+42883128
3441+42253190+41475053+40679848+40083608+39661538+39234041+38799916+38429654
3425+38063320+37626981+37155852+36742324+36381299+35960620+35472281+35018364
3410+34670443+34438017+34210445+33804779+33254465+32869621+32775670+32728048
3395+32506838+32186013+32008003+32011316+32008251+31900099+31720909+31524688
3379+31367406+31302155+31312520+31270686+31085092+30888503+30903785+31139655
3364+31390749+31526456+31639446+31824075+32012708+32105639+32113096+32184455
3348+32400695+32639180+32833963+33063784+33317532+33552316+33856750+34250055
3333+34612525+34907806+35187342+35475509+35814007+36242400+36700855+37135916
3317+37572301+38010179+38423390+38782498+39054707+39309339+39730607+40392705
3302+41151825+41821585+42324072+42734421+43206685+43814474+44527476+45260538
3287+45949177+46623124+47310142+47970782+48583061+49174051+49777946+50411073
3271+51132547+52026979+53033708+53990999+54859158+55702797+56539027+57376556
3256+58288205+59314223+60380875+61370126+62301209+63331185+64499868+65702188
3240+66875254+68032538+69178488+70325130+71559260+72905810+74281621+75666137
3225+77067413+78433644+79768286+81159441+82645024+84175747+85679276+87138982
3209+88611770+90148114+91752057+93368012+94944207+96532251+98172843+99809614
3194+101436708+103120588+104848350+106547900+108196331+109820216+111468862
3180+113182903+114952987+116719250+118433187+120102258+121771393+123477948
3167+125200284+126886910+128554337+130263904+131998396+133667166+135205186
3153+136668146+138216248+139902665+141623932+143289546+144862533+146335340
3140+147787632+149350967+151004582+152578795+154023613+155456133+156943195
3126+158414321+159772563+161016971+162238437+163484723+164778627+166170793
3113+167565032+168824139+170028011+171269302+172487768+173637840+174738089
3099+175830435+176942788+178014526+178991472+179928886+180879656+181808997
3086+182675330+183506213+184316816+185102924+185946094+186874469+187759062
3072+188510895+189161896+189787413+190437932+191085164+191688235+192240740
3059+192724016+193134527+193495843+193823156+194126824+194390256+194572003
3045+194675756+194758014+194859902+194940609+194905225+194730117+194480106
3032+194198766+193861971+193402772+192775286+192015771+191170254+190192329
3018+189008999+187599865+185982313+184198168+182244120+180011850+177369355
3005+174244693+170598006+166340684+161343593+155504272+148663277+140583678
2991+131178768+120481546+108545784+95674474+82571941+70262858+59892030+52412688
2976+48369018+47911309+50848165+56646739+64561103+73822891+83768509+93937002
2961+103902497+113022611+120573521+126033267+129216920+130245306+129377029
2947+126965660+123539208+119729504+116147286+113318493+111495377+110503720
2934+109987851+109807917+110145573+111288706+113334848+116078044+119112713
2920+122000654+124389355+126054318+126908273+126965008+126245090+124828365
2907+122961297+120928980+118944634+117227685+115960427+115122879+114514565
2893+113908651+113149332+112191415+111070702+109877655+108838379+108394433
2880+109075661+111221042+114816433+119584589+125215087+131451042+138043931
2866+144732486+151237912+157354698+163045870+168348272+173274711+177888666
2853+182263044+186371239+190206050+193794293+197094507+200088197+202862342
2839+205516797+208073342+210582374+213150931+215749030+218275642+220750346
2826+223197295+225559182+227790304+229858318+231757223+233544380+235279602
2812+237035431+238915450+240957405+243128636+245383287+247649338+249855080
2799+251955830+253907244+255692001+257332769+258831818+260160532+261318886
2785+262371283+263366892+264283204+265109601+265851821+266505588+267089708
2772+267612007+268077492+268493912+268837790+269103465+269326961+269552126
2758+269788873+270013386+270234090+270479888+270753624+271083520+271514808
2745+272025316+272563475+273117493+273715359+274371865+275043604+275700605
2731+276357267+277029163+277753776+278575608+279506867+280542464+281689888
2718+282955556+284268958+285481490+286503393+287389081+288221112+289037649
2704+289902547+290867481+291927860+293066128+294224768+295333769+296409851
2691+297486141+298538877+299567171+300559181+301454416+302267353+303079925
2677+303929068+304806669+305712521+306639631+307544805+308377488+309112509
2664+309779318+310427633+311063714+311682475+312294193+312898007+313476232
2650+314024615+314578633+315152945+315712675+316247390+316764237+317251373
2637+317698287+318111342+318529405+318973970+319424379+319873561+320342438
2623+320849503+321381740+321929237+322501984+323081747+323624236+324121362
2610+324611629+325091617+325517245+325890651+326255162+326641845+327043162
2596+327454756+327899504+328345035+328717188+329048493+329441202+329900923
2583+330351618+330753039+331129888+331501833+331865875+332221804+332558612
2569+332874735+333166209+333416233+333638241+333847677+334028289+334173739
2556+334297199+334394522+334479715+334600097+334774658+334996145+335305251
2542+335761399+336334693+336947454+337565563+338186593+338824943+339496500
2529+340189916+340866716+341493589+342071474+342635665+343208882+343779490
2515+344330456+344846311+345337386+345860050+346455830+347092433+347730496
2502+348396497+349107155+349837141+350579649+351348216+352143336+352936188
2488+353713023+354512135+355340228+356134931+356896976+357696897+358531824
2475+359345960+360145203+360981799+361853635+362721064+363580432+364440843
2461+365299116+366140407+366954205+367743196+368500285+369214256+369867709
2448+370442152+370968207+371497366+372024568+372531242+373029125+373508775
2434+373945071+374322364+374631288+374883242+375098025+375289280+375470492
2421+375654156+375855088+376116486+376497013+376994739+377574764+378234243
2407+378958100+379723927+380506084+381244653+381920748+382613277+383328265
2394+384027811+384698507+385337014+385898805+386312590+386556145+386673293
2380+386748548+386847618+386977287+387137422+387320695+387526140+387747209
2367+387894641+387938073+388044969+388412845+389112886+390010312+390877454
2353+391732048+392573809+393255904+393779011+394320456+395125541+396223848
2340+397331466+398193782+398749521+399134900+399548477+400044951+400513437
2326+400911832+401376352+402025424+402808832+403557209+404176596+404701946
2313+405203481+405772916+406474913+407276295+408061973+408747041+409372323
2299+410010622+410660632+411291731+411903292+412500715+413085096+413649157
2286+414168612+414623533+415033328+415430601+415817389+416179395+416514482
2272+416815476+417061301+417234974+417336679+417401422+417495302+417679827
2259+418004923+418507684+419201804+420062790+420964963+421779987+422743303
2245+423649755+424485647+425255283+425970479+426636688+427262362+427874079
2232+428495657+429122843+429740952+430348209+430945972+431536352+432111968
2218+432681350+433274730+433886370+434483010+435055288+435638808+436247786
2205+436849253+437438485+438040265+438661973+439301732+439961994+440618187
2191+441236765+441821641+442398222+442984090+443593173+444243471+444932895
2178+445636249+446318788+446966738+447603210+448245317+448904483+449586447
2164+450256569+450869722+451437121+452011407+452593884+453144850+453658879
2151+454168214+454689547+455196169+455665750+456124218+456610911+457130680
2137+457682480+458302832+459040305+459900013+460840427+461843966+462908857
2124+463994982+465036292+465992827+466915294+467861969+468804104+469700435
2110+470548508+471361419+472136298+472850608+473492923+474097624+474733158
2097+475402601+476048777+476660521+477314157+478056169+478823953+479540298
2083+480227323+480946223+481705712+482502711+483331691+484164061+484977806
2070+485746321+486455883+487170715+487965731+488795858+489566929+490296681
2056+491056326+491839918+492617353+493397814+494171180+494914027+495638040
2043+496354906+497040262+497679708+498316754+498976547+499641086+500322842
2029+501034283+501747601+502447616+503150918+503855890+504566078+505303760
2016+506040868+506749387+507457228+508170077+508826165+509393512+509955904
2002+510593837+511260150+511873616+512425573+512956610+513515819+514094226
1989+514627506+515116025+515601831+516097132+516582572+517052675+517554497
1975+518122105+518705521+519245792+519798010+520440482+521138984+521823400
1962+522486584+523143455+523759633+524303556+524796300+525246005+525603003
1948+525821803+525894946+525816378+525592047+525209225+524616992+523778466
1935+522690516+521441465+520258200+519465479+519363696+520132575+521765909
1921+524008327+526602212+529330436+531885559+534169817+536296626+538311843
1908+540164186+541819849+543329802+544750805+546067259+547270035+548410886
1894+549505410+550535452+551561059+552618333+553620986+554554357+555505257
1881+556493146+557461523+558384773+559279904+560132672+560996397+561987989
1867+563036864+563976652+564804484+565633463+566532402+567470051+568378694
1854+569232558+570060024+570895316+571749597+572661787+573620096+574490133
1840+575279306+576113033+576958028+577728003+578509664+579430410+580352930
1827+581142208+581947971+582813156+583614225+584350811+585106492+585891231
1813+586677848+587486324+588313947+589108233+589822752+590498247+591255128
1800+592081185+592823510+593469843+594174814+594964875+595658004+596189354
1786+596700984+597293633+597946800+598582646+599098137+599521913+600074078
1773+600807065+601427939+601813891+602142561+602537122+603065133+603683190
1759+604298116+604995679+605807025+606678992+607680706+608786968+609792907
1746+610621625+611386384+612177279+612880946+613355952+613817551+614475048
1732+615039005+615342372+615585640+615803502+615912172+615928396+615964081
1719+616124503+616288316+616231190+615987974+615686693+615356041+614971184
1705+614497638+613998059+613558006+613011944+612188547+611176087+609983640
1691+608582566+607080909+605644829+604306567+602833186+601051690+599142012
1678+597355976+595712678+594088682+592506161+591096531+589846593+588659573
1664+587564788+586609923+585747033+584964485+584417015+584383156+584718556
1651+584638997+584146357+583952599+584163678+584470124+584936000+585827270
1637+587415791+589678502+591908451+593784531+595875343+598508148+601518192
1624+604743334+607854484+610662109+613828038+617740569+621596861+624987798
1610+628252432+631442671+634402216+637167062+639820108+642321027+644626779
1597+646783481+648836105+650751052+652514811+654166039+655714023+657120575
1583+658324395+659312909+660222178+661329379+662520730+663242657+663592664
1570+664068819+664583996+664817821+664790067+664790902+665270499+666062647
1556+666237416+665790476+665313644+665013615+664797788+664509289+664206912
1543+664188236+664502402+664579666+663964479+663080930+662378985+661691907
1529+660814202+659877961+658999473+658118219+657115932+655891192+654411237
1516+652734915+650901823+648910916+646836851+644710877+642238182+639063019
1502+635267453+630945023+625746609+619205447+611323728+602092478+591166074
1489+579578312+569823121+563084287+558503929+554752811+551221746+547730800
1475+543581261+537469561+528995870+519532726+510064000+499964383+488510958
1462+476202105+464460181+455909644+453747255+457590192+463881617+470376869
1448+476950586+483859232+490460390+495749684+499111041+500659025+500945490
1435+500351849+499155646+497740486+496439109+495440734+494921435+494973135
1421+495678420+497295268+499809386+502791207+506077439+509725104+513639670
1408+517654819+521635119+525285967+528189741+530207254+531202134+530615432
1394+527794711+522387722+514150883+502725734+489039596+476352562+468360817
1381+467585312+474572735+487840054+505809912+527445590+551209486+575202043
1367+596590383+612352726+621859119+626401028+627800276+627825004+627493517
1354+626871756+625631105+623618704+621056381+618454774+616206044+614306592
1340+612619783+611253507+610419780+610217100+610704315+611961608+614034004
1327+616858950+620353079+624477368+629190185+634393608+639952150+645805766
1313+651992173+658540795+665373900+672355689+679322975+686118465+692665314
1300+698861685+704544757+709604869+713977591+717515229+720015835+721289302
1286+721038104+718877802+714618654+708637431+702073940+696820174+695087665
1273+698340560+706473790+717967855+730839048+743498849+755023120+765089974
1259+773690907+780904486+786900995+791873774+795907183+799072016+801484977
1246+803178671+804157222+804554808+804698693+805034823+806057509+808226784
1232+811697072+816203661+821225585+826234674+830860055+834918609+838412530
1219+841469110+844212149+846623754+848664326+850470133+852221059+853935360
1205+855469572+856764480+857992141+859292162+860551125+861612365+862485062
1192+863293330+864088555+864740209+865143900+865388107+865605864+865810891
1178+865849549+865593865+865096425+864347214+863155341+861377131+859027713
1165+856151432+852752304+848989657+845325193+842212113+839772389+837872937
1151+836251758+834598599+832672227+830345921+827550607+824220344+820325759
1138+815921109+811194989+806338235+801344588+796310509+791588249+787186051
1124+782588582+777286089+770926738+763033438+752746427+738876964+720310908
1111+696064911+664919188+625486072+577150483+521147070+460580099+399667163
1097+343364687+296930141+264633916+248590586+248610098+262798789+288228051
1084+321273644+357756188+393186127+423143342+443749631+453004356+453084072
1070+450176019+448526304+444024253+426140397+386595325+325897355+253679053
1057+184200685+129677489+95459587+80825359+83655235+103891059+143367501
1043+203256290+281297441+370601531+461324876+544608068+615915458+675102954
1030+723707479+762404895+790128223+804354580+803227659+790597595+779398029
1016+784133018+807643734+840598969+873128654+901288070+924893056+944623804
1003+961095604+974586106+985079240+992857454+998749101+1003396706+1006742881
989+1008481598+1008606806+1007197907+1003841506+997293144+985362835+964828254
976+931901452+886042470+836914107+804562268+805561269+838531842+887153584
962+934966953+973940556+1003000528+1023795645+1038247533+1048061832+1054866035
949+1059954475+1063928462+1066864791+1068920388+1070542662+1071933407
937+1072934338+1073489843+1073726485+1073741823+1073432769+1072606398
926+1071274293+1069590980+1067500220+1064766415+1061289293+1057068960
914+1052108649+1046386345+1039807099+1032460747+1024717591+1016788293
903+1008151363+997243687+981698111+958891323+925950122+879517480+817184507
889+740520314+656507736+576322077+514982001+491491266+520980440+600310721
876+705507709+807680618+889326354+946919174+984581435+1007728370+1020496318
862+1026327136+1029053846+1032210332+1037085814+1042573562+1047204368
851+1050452360+1052230935+1052498045+1051690560+1050492113+1049097300
839+1047253304+1044816345+1041991034+1039138385+1036292415+1033053397
827+1029350171+1025539684+1021568096+1016912144+1011257766+1004703665+997226263
814+988244177+977135960+964157350+950767014+939666519+934082569+935587461
800+942563512+951273897+958445584+962802602+964651294+964864043+964214319
787+962959738+961008481+958523839+955808919+953004058+950055626+946704338
773+943052239+939617792+936583175+933649142+930584684+927379263+923829417
760+919683895+915264794+911538614+909242618+908014018+906857203+905330713
746+903608585+901651798+899302693+896695243+894068282+891533140+889007805
733+886359558+883651838+881125460+878777086+876283679+873097300+870374398
719+868089306+866023901+864001693+861821827+859530578+857256807+855074281
706+852974183+850868659+848715817+846624693+844705363+842904877+841079088
692+839245682+837577238+836177207+834953459+833779063+832679896+831656949
679+830595971+829512872+828451372+827210929+826088912+826015457+826577587
665+826380072+826077121+826123657+826169462+826197686+826350231+826630748
652+827161785+828025718+828959976+829696927+830401534+831399648+832746047
638+834269564+835812905+837362559+839024117+840816256+842651175+844677661
625+846782819+848722599+850200467+851650320+854117485+857579112+860908802
611+863617461+866104764+868788799+871602059+874280095+877004771+880039492
598+883095707+886022645+889262185+892869105+896227384+899231429+902390419
584+905796277+909127114+912346308+915705004+919274153+922963084+926530877
571+929823630+933098020+936403189+939499367+942540557+945941719+949712974
557+953524713+957239208+960835799+964213067+967339503+970488476+973818374
544+977009396+979903780+982818302+986077771+989381271+992244771+994933084
530+997814008+1000717261+1003519618+1006259266+1008804425+1011109081+1013405495
517+1015986755+1018848898+1021425777+1023310674+1024903211+1026698585
505+1028679266+1030587118+1032245181+1033695816+1034924104+1035499850
494+1035356070+1035233784+1035386329+1035286058+1034840110+1034586147
482+1035108994+1036290432+1037013194+1036637049+1035701226+1034448001
471+1032619343+1030352145+1028494168+1028277767+1029576588+1030809884
459+1031214200+1030720673+1028846836+1025729373+1022053276+1017827830
447+1012577454+1006364441+999728747+992481100+984319855+976875841+972174084
434+969903026+969456869+972643717+980966167+992468893+1003865295+1013988858
420+1024101048+1034567783+1043152126+1049090831+1053459744+1056765018
409+1059206985+1060503824+1060853884+1062137158+1064906126+1067776094
##END=
