##TITLE=39
##JCAMP-DX=4.24
##DATA TYPE=INFRARED SPECTRUM
##DATE=16/11/2015
##SAMPLING PROCEDURE=Instrument type and / or accessory
##ORIGIN=Default
##XUNITS=1/CM
##YUNITS=TRANSMITTANCE
##RESOLUTION=4
##FIRSTX=3996.3359
##LASTX=399.24785
##DELTAX=-1.9287336
##MAXY=1.2223499
##MINY=0.035055559
##XFACTOR=1
##YFACTOR=1.138402e-009
##NPOINTS=1866
##FIRSTY=0.15068898
##XYDATA=(X++(Y..Y))
3996+132368856+132553432+132730573+132840184+132924520+133054958+133222910
3983+133366096+133476022+133563971+133652587+133796454+133980990+134139086
3969+134268005+134412893+134562559+134674723+134791181+134938896+135056964
3956+135152046+135272562+135395302+135501485+135622615+135756273+135858005
3942+135958310+136120803+136294554+136406613+136495478+136619017+136776026
3929+136937407+137059795+137167312+137339112+137528204+137634386+137695881
3915+137793804+137932003+138098502+138249883+138336771+138427835+138582383
3902+138718960+138793635+138852735+138917868+138994089+139092483+139199529
3888+139279401+139340556+139429774+139534831+139621169+139704432+139817238
3875+139979456+140144502+140244624+140306485+140372679+140420980+140449135
3861+140500355+140572111+140633253+140718675+140855225+140971958+141035678
3848+141089201+141159884+141272952+141435681+141596905+141711975+141788274
3834+141841247+141877361+141924549+142010875+142116337+142188644+142232153
3821+142325194+142484035+142632654+142705262+142702186+142694790+142748274
3807+142875478+143041493+143195059+143293165+143301137+143262169+143277118
3794+143362160+143448630+143516080+143590717+143660013+143713968+143771811
3780+143839405+143902091+143938506+143975968+144078211+144228492+144323496
3767+144334216+144333640+144351494+144381953+144445071+144528478+144607316
3753+144700213+144794052+144821893+144795138+144802507+144849852+144856318
3740+144814105+144787310+144819197+144895365+144956794+144966362+144930340
3726+144875351+144852300+144881359+144895770+144845467+144772349+144729507
3713+144731706+144725292+144623403+144447401+144285274+144132519+143904565
3699+143577863+143211552+142850228+142486837+142095080+141696385+141367890
3686+141122631+140892072+140649235+140424187+140269651+140244048+140304810
3672+140299037+140160642+139916731+139606247+139277163+138971391+138696105
3659+138431251+138144486+137798634+137388970+136967382+136575560+136166015
3645+135680105+135126325+134546000+133981344+133441073+132897661+132348293
3632+131806608+131231794+130563861+129811382+129034505+128295299+127590270
3618+126873919+126120171+125341448+124570840+123790586+122924804+121976087
3605+121025551+120106744+119214534+118332351+117405546+116426370+115469721
3591+114557995+113593872+112513068+111422998+110435837+109512494+108576336
3578+107589706+106547110+105483494+104434334+103411295+102400396+101374987
3564+100320389+99225338+98111882+97039214+96035953+95040814+93960436+92818059
3549+91657351+90437890+89231080+88195795+87263493+86239112+85133032+84076117
3533+83078733+82063005+81001547+79888105+78705007+77557807+76574069+75665360
3518+74679403+73626762+72610438+71670851+70748025+69788130+68756916+67632099
3503+66571780+65724383+64945470+64089460+63217553+62391583+61573480+60715866
3487+59824769+58957358+58096112+57173941+56290384+55542100+54813854+53982884
3472+53038163+52051231+51196523+50559786+49961443+49235448+48485365+47853176
3456+47258348+46575332+45844039+45140352+44464487+43794371+43142849+42532294
3441+41905661+41181381+40445798+39872312+39422791+38949208+38503172+38184576
3425+37883556+37488860+37053044+36626871+36205015+35754277+35284506+34886918
3410+34592439+34346706+34059371+33607078+33042071+32674465+32618003+32573299
3395+32315163+32011139+31922506+31981969+31959547+31823909+31644874+31457507
3379+31311788+31255152+31267169+31218862+31010532+30793655+30824873+31104829
3364+31386647+31534801+31648863+31813179+31975365+32031294+31989747+32052090
3348+32312048+32599147+32799126+32970213+33149137+33387835+33758904+34172258
3333+34528258+34861099+35157086+35378980+35640054+36050084+36523621+36978201
3317+37445364+37933613+38395445+38755656+39012980+39297979+39753403+40398931
3302+41105599+41704537+42155590+42576562+43059890+43646708+44377242+45140588
3287+45807758+46440628+47105374+47788684+48469333+49117603+49732772+50331039
3271+50995710+51848336+52814711+53733872+54607641+55498106+56387174+57259121
3256+58197831+59225864+60223372+61142140+62088311+63176131+64374792+65560888
3240+66678342+67743321+68773454+69828995+71043986+72432328+73834598+75169279
3225+76512993+77916892+79311092+80664695+82053999+83514419+84998904+86468630
3209+87948861+89473976+91039040+92628902+94218595+95783469+97347623+98955876
3194+100605663+102258754+103892394+105518286+107156710+108808381+110456178
3180+112112227+113813397+115521399+117189098+118858787+120557273+122244829
3167+123890799+125518274+127157897+128795516+130404705+131983068+133530344
3153+135066938+136664857+138325645+139957715+141532295+143049530+144479588
3140+145892212+147424199+149052813+150608662+152007724+153331718+154690792
3126+156084907+157431180+158680576+159891529+161157890+162509477+163917872
3113+165262731+166437360+167548518+168737782+169956340+171106518+172194062
3099+173263412+174302526+175294320+176272515+177236324+178145367+179001750
3086+179823943+180621044+181412870+182215285+183054743+183952777+184846230
3072+185618356+186231182+186782710+187386714+188017211+188593753+189127937
3059+189644673+190106943+190490794+190816318+191107717+191369966+191567501
3045+191670070+191718554+191767443+191812079+191784473+191623053+191356392
3032+191043526+190694520+190274110+189731679+189048012+188207913+187189036
3018+186014433+184691158+183167641+181441523+179544429+177383752+174798999
3005+171733062+168167667+163991213+159073498+153340475+146643342+138766095
2991+129616741+119170161+107475558+94872424+82043553+69946749+59688082+52259014
2976+48260450+47830852+50741482+56477387+64298153+73418363+83227843+93289060
2961+103133607+112123183+119544626+124882005+127981726+128971557+128120384
2947+125795131+122462586+118701660+115160978+112389621+110600843+109591751
2934+109024378+108801758+109149534+110359616+112469114+115197406+118116688
2920+120864379+123181084+124835642+125683949+125719735+125003751+123627555
2907+121766825+119715144+117783546+116179397+114984047+114146944+113513450
2893+112913595+112223240+111362851+110293606+109094807+108022099+107529611
2880+108202257+110374774+113925731+118589797+124130364+130273116+136746117
2866+143260520+149546681+155498967+161088136+166280823+171120406+175678695
2853+179981777+184015228+187745289+191170233+194330637+197264750+200007375
2839+202623268+205174446+207688973+210193526+212697948+215191493+217664605
2826+220059389+222304900+224405902+226395696+228278364+230057888+231776859
2812+233508448+235321507+237269204+239362379+241545191+243738187+245882463
2799+247921081+249806079+251551020+253177815+254641539+255926775+257100672
2785+258202759+259197459+260053149+260819777+261567164+262270596+262859782
2772+263339461+263765081+264149364+264482833+264767007+264995446+265199250
2758+265435464+265681914+265895613+266123083+266424326+266791226+267199698
2745+267661471+268194530+268772171+269361986+269977744+270622640+271269996
2731+271920442+272594029+273312907+274107364+275003631+276035479+277204821
2718+278449741+279706703+280905653+281960173+282848455+283626183+284386188
2704+285223474+286167387+287195885+288287160+289408174+290534268+291642742
2691+292703676+293720157+294701716+295630026+296493910+297320148+298137825
2677+298974090+299856927+300752488+301592967+302367240+303127192+303895548
2664+304610002+305248274+305892777+306571077+307203406+307774425+308360129
2650+308956044+309503187+310007605+310493908+310992331+311525652+312043631
2637+312503336+312921285+313316825+313714485+314137565+314588892+315074227
2623+315606107+316170790+316729582+317271961+317809731+318331454+318834512
2610+319325553+319781252+320191871+320589008+320994050+321398674+321801937
2596+322202398+322598174+323006698+323410249+323800370+324221905+324661897
2583+325056547+325407032+325772833+326157194+326516031+326860574+327209986
2569+327533769+327810220+328073372+328360740+328626876+328800810+328908249
2556+329021186+329150641+329277924+329412170+329585973+329813365+330105366
2542+330512320+331041242+331627261+332223909+332832441+333466630+334128934
2529+334814800+335503363+336153965+336741345+337284352+337833013+338407932
2515+338965887+339463525+339939487+340469063+341059349+341665186+342279373
2502+342928143+343625449+344384355+345186613+345981933+346757777+347526499
2488+348297709+349075097+349845626+350618511+351423151+352244782+353048925
2475+353833302+354627654+355456301+356293351+357117835+357945487+358778610
2461+359612676+360445144+361280362+362092018+362821943+363484326+364140400
2448+364794930+365396368+365922960+366414316+366890042+367341186+367764816
2434+368152136+368502490+368842792+369180345+369457084+369639448+369788878
2421+369975718+370224524+370530715+370901254+371376482+371952396+372561217
2407+373208207+373944310+374724028+375491677+376225608+376938019+377626896
2394+378303965+378960746+379547262+379994009+380256689+380365830+380408842
2380+380453739+380512747+380591075+380706237+380820692+380893836+380888234
2367+380714457+380544712+380685477+381363803+382636499+384180358+385330510
2353+385608453+385208908+385164508+386266831+387931350+389118885+389759435
2340+390220580+390672483+391237768+391852374+392446613+393032868+393537705
2326+393971964+394551412+395361157+396173363+396785980+397344929+398026319
2313+398765354+399496300+400259997+401052568+401801473+402508204+403222474
2299+403938577+404640202+405328765+405981252+406600911+407209810+407781326
2286+408273231+408710107+409145361+409584201+409995186+410352923+410665842
2272+410953262+411200707+411376814+411490719+411579361+411683475+411851728
2259+412149070+412639823+413343831+414217166+415136313+415978311+416923297
2245+417799695+418628132+419404106+420120628+420778089+421418246+422092855
2232+422752882+423334058+423875703+424438658+425024284+425618392+426205249
2218+426784461+427388072+428019564+428636683+429199246+429743404+430328376
2205+430932563+431530101+432147168+432798922+433459002+434093871+434713477
2191+435346854+435971173+436560752+437147268+437755748+438388759+439055488
2178+439727609+440369311+441013997+441689365+442368189+443031881+443678871
2164+444313399+444925100+445499207+446069126+446664700+447256190+447808935
2151+448336706+448858350+449356172+449813416+450246627+450705337+451228814
2137+451817320+452460226+453173920+453992383+454911164+455897225+456922712
2124+457952074+458956042+459933307+460901305+461862496+462797927+463688121
2110+464527684+465325832+466080732+466788981+467463301+468119978+468773041
2097+469424010+470072414+470702440+471333408+472024483+472776661+473528315
2083+474240752+474937063+475671596+476465346+477294123+478124367+478934348
2070+479713542+480448075+481158837+481912428+482714031+483494378+484240429
2056+485007005+485807090+486601102+487368358+488111740+488834754+489541327
2043+490233554+490907509+491562981+492226777+492911832+493582959+494245028
2029+494945214+495657546+496334223+497018963+497730354+498421115+499107740
2016+499827560+500563193+501295003+502012257+502670871+503261261+503860762
2002+504517072+505174900+505765971+506291961+506809679+507376613+507966742
1989+508496136+508978040+509484501+510019287+510530407+511009694+511500657
1975+512032511+512602273+513163919+513709438+514319725+515030697+515759837
1962+516431435+517065754+517685099+518257164+518755457+519189087+519558160
1948+519818589+519907179+519812202+519595962+519259771+518711214+517894741
1935+516833755+515649099+514553976+513815568+513701585+514423866+516010946
1921+518186899+520716532+523454393+526066280+528365851+530437716+532369261
1908+534176298+535836000+537351350+538770256+540091881+541282035+542385169
1894+543444427+544444835+545453672+546542146+547619991+548611183+549543839
1881+550441311+551329096+552254160+553194984+554042558+554835261+555783938
1867+556878538+557901460+558797255+559652997+560525232+561431185+562342584
1854+563203143+564016056+564811638+565580675+566394740+567361167+568356286
1840+569245590+570101646+570941890+571696580+572426610+573274184+574159613
1827+574958860+575805701+576734640+577595356+578377063+579171337+579972522
1813+580732657+581495359+582303821+583117572+583858335+584514959+585223470
1800+586047326+586818352+587437330+588058717+588819324+589600927+590246555
1786+590803070+591377858+591996889+592645554+593237620+593691094+594134463
1773+594719147+595325402+595841654+596326438+596792112+597301975+597913152
1759+598562341+599273522+600055230+600859032+601793730+602902833+603972563
1746+604848044+605600850+606359153+607066774+607525850+607864241+608424630
1732+609094710+609606250+610009250+610314917+610473406+610491836+610419320
1719+610407382+610520947+610602625+610549377+610346699+609985951+609519544
1705+608998162+608428400+607867644+607310972+606656338+605902328+604971923
1691+603752973+602306526+600774631+599254569+597762151+596229000+594565109
1678+592812367+591095857+589485791+587981436+586645465+585525367+584484539
1664+583443868+582504615+581701964+580928739+580190698+579829165+580009905
1651+580043938+579652561+579507581+579885502+580400340+580905073+581606096
1637+582896516+584996445+587317325+589343063+591459066+594009170+596894891
1624+600018946+603113313+605921177+609025650+612916542+616863092+620326061
1610+623571115+626726847+629687858+632461899+635107819+637591062+639879428
1597+642023128+644074888+646006904+647789019+649433432+650938468+652296063
1583+653492813+654493797+655343989+656323924+657476327+658285732+658678837
1570+659135558+659717362+660089681+660090832+659835115+659843440+660434040
1556+660914165+660866676+660616194+660427391+660277489+659963602+659476619
1543+659175821+659343577+659605525+659304099+658566215+657914408+657335432
1529+656533461+655539285+654517463+653481923+652397166+651228165+649902509
1516+648434281+646793638+644824133+642535139+640179597+637848612+635170910
1502+631775745+627560808+622347819+615908026+608263629+599208651+588335273
1489+576859095+567360015+560889488+556498941+552879631+549414044+545874474
1475+541617546+535516353+527277377+518146531+508914530+498943388+487614389
1462+475406611+463640422+455009074+452892809+456897737+463308838+469806382
1448+476294397+483108603+489664369+494936260+498232783+499648129+499861907
1435+499360054+498300430+496945243+495670688+494727037+494271573+494331523
1421+494938198+496427997+498944069+502035347+505397056+509049614+512929406
1408+516877474+520794389+524447994+527377957+529344687+530224409+529564539
1394+526815578+521616935+513587444+502309390+488787108+476303873+468462662
1381+467699280+474573069+487658266+505396166+526772801+550297169+574077620
1367+595275400+610856039+620201134+624698282+626188552+626313636+626018388
1354+625408782+624192659+622208389+619687605+617161010+614993957+613142363
1340+611471405+610127894+609339275+609168745+609654576+610902795+612979739
1327+615810326+619287065+623356970+627977840+633082971+638580579+644411080
1313+650582851+657107098+663889103+670781323+677653071+684389787+690899373
1300+697052924+702703731+707731320+712032386+715489491+717940010+719190795
1286+718972356+716919079+712792417+706923067+700466205+695323272+693644931
1273+696862131+704915393+716318112+729090049+741647789+753054330+762985051
1259+771465399+778606948+784589392+789585775+793632957+796769682+799138889
1246+800824351+801835178+802273939+802450491+802816684+803879555+806075247
1232+809519786+813974995+818975881+823994673+828611459+832614031+836034276
1219+839042986+841762103+844159321+846204798+848027176+849795992+851533550
1205+853079164+854362253+855558532+856822877+858048582+859099358+860004317
1192+860878174+861729256+862389388+862767205+863026901+863306913+863545509
1178+863583259+863368905+862972187+862290850+861099649+859315964+856990528
1165+854182874+850901273+847252171+843649091+840582211+838200124+836335179
1151+834743543+833172169+831344189+829058964+826298170+823064949+819269243
1138+814932626+810305787+805596379+800755134+795825246+791126152+786729480
1124+782200237+776972326+770642328+762811798+752668136+739002078+720681275
1111+696698616+665847194+626768419+578828862+523194173+462908141+402200809
1097+346011961+299561863+267203651+251131212+251135794+265321192+290782000
1084+323904013+360482973+395939636+425836490+446417098+455738475+455912618
1070+453082450+451486154+447007384+429152726+389641682+328882698+256453760
1057+186634550+131732992+97271095+82584302+85477268+105853980+145574097
1043+205791186+284109528+373490208+464078084+547059078+617902611+676602818
1030+724890976+763392398+790945255+805119344+804145587+791806076+780838715
1016+785571213+808863738+841520313+873743152+901618222+924962634+944429925
1003+960674570+973999723+984337634+992007163+997911908+1002623933+1005987841
989+1007727284+1007918810+1006629962+1003364906+996903699+985150547+964935268
976+932489959+887203809+838588255+806556890+807608032+840356024+888537162
962+935837530+974369791+1003067826+1023584583+1037917318+1047725364+1054457891
949+1059359034+1063153850+1066038471+1068177302+1069897372+1071304864
937+1072294224+1072879589+1073160961+1073204523+1072941685+1072188147
926+1070931341+1069329600+1067323864+1064680090+1061298381+1057170777
914+1052318746+1046730768+1040314798+1033129582+1025471886+1017538786
903+1008869949+998005524+982685839+960243662+927643896+881537189+819639416
889+743462418+659837576+579894298+518663987+495205800+524707847+603920362
876+708714763+810315683+891470580+948759421+986253000+1009268080+1021958967
862+1027800672+1030537015+1033657248+1038479854+1043914003+1048495971
851+1051745529+1053597542+1053877763+1052977411+1051790033+1050604120
839+1048958608+1046606574+1043880075+1041075772+1038127274+1034851223
827+1031288774+1027662656+1023885015+1019411323+1013863766+1007356065+999879528
814+990946177+979992849+967149704+953823818+942714880+937054125+938529054
800+945549133+954326875+961588953+966030810+967894866+968033719+967303323
787+966065576+964191154+961766761+959123930+956388321+953467991+950179898
773+946651167+943295323+940289860+937433721+934423022+931156501+927586197
760+923545927+919220828+915524446+913315350+912277926+911261340+909722847
746+907917223+905861642+903454527+900918507+898433588+895977886+893414535
733+890666150+887951797+885543741+883285428+880803127+877594776+874918959
719+872504829+870263219+868370052+866496206+864361563+862054924+859797292
706+857672755+855530678+853271842+851094056+849199737+847503438+845791326
692+843986382+842227619+840729757+839493895+838345628+837231812+836132553
679+834998213+833780467+832098251+830139480+830374515+833340501+833703657
665+830310848+828733925+829687157+830579550+830888882+831116902+831410579
652+831929186+832770268+833720883+834611077+835560435+836689225+837911945
638+839134508+840452782+842030438+843866587+845798760+847737479+849803165
625+851881261+853856368+855498268+857023200+859412722+862794064+866076660
611+868729177+871126081+873691946+876453001+879204842+882040456+885124666
598+888152539+891009096+894226296+897859848+901197995+904174138+907397830
584+910916928+914285652+917430807+920727382+924305958+927940243+931375253
571+934558316+937828816+941348542+944767425+947955619+951242350+954801135
557+958459819+962067716+965582834+968901713+971996500+975183960+978592896
544+981967903+985181752+988239155+991333628+994501401+997462151+1000292634
530+1003217675+1006142507+1008861676+1011259575+1013538936+1016023959
519+1018642915+1021214643+1023809200+1026285846+1028393157+1030154172
507+1031718739+1033300584+1035021806+1036729834+1038326758+1039761896
496+1040569468+1040557740+1040436164+1040518052+1040255214+1039622414
484+1039358843+1040018870+1041289079+1042095395+1041790775+1040682248
473+1039116215+1037147967+1035058038+1033704265+1033764582+1034556761
461+1034885466+1034583568+1033971397+1032786322+1030646862+1027356256
449+1022649257+1016774671+1010597035+1004480868+997703208+989764767+982102987
436+976817849+974380681+974497231+978005751+985776332+996738038+1008712036
422+1020100776+1030733882+1040778587+1049127830+1055117709+1058834929
411+1061024024+1063726857+1067430884+1070729448+1073045041+1073741823
399+1072520098
##END=
