##TITLE=павел 1-многокр
##JCAMP-DX=4.24
##DATA TYPE=INFRARED SPECTRUM
##DATE=2/2/2015
##SAMPLING PROCEDURE=Instrument type and / or accessory
##ORIGIN=Default
##XUNITS=1/CM
##YUNITS=TRANSMITTANCE
##RESOLUTION=4
##FIRSTX=3996.3347
##LASTX=399.24773
##DELTAX=-1.928733
##MAXY=1.1491145
##MINY=0.19460171
##XFACTOR=1
##YFACTOR=1.0701963e-009
##NPOINTS=1866
##FIRSTY=0.32678092
##XYDATA=(X++(Y..Y))
3996+305346716+305417532+305722240+305970250+306033408+306044157+306238143
3983+306164487+305388404+304939696+305431233+305379576+304114407+302770652
3969+302278809+302943697+303974668+304615412+305905310+307990338+308909306
3956+308499084+308736512+309632507+308884021+306242599+304470577+304973531
3942+306154879+305785287+304373695+304183998+304881774+304641728+304357070
3929+305075732+304984670+303658153+303050242+303182712+303234926+303544925
3915+303753837+303586613+303986838+304643984+304268989+303429581+303268900
3902+303608362+303781880+303510923+303239744+303139799+302750936+302157171
3888+301926817+302364663+303554505+304321147+303444145+302354276+302557647
3875+303160462+303718694+304300651+303860995+303025652+303604435+304849638
3861+305238500+305435745+306203696+306588632+304985394+303228939+303677563
3848+305104888+305499265+304144009+302479367+302063019+302861073+303551692
3834+303272827+302557702+302072348+302053968+302542442+303179398+303423036
3821+303318887+303304462+303255144+303089340+302936958+302603762+301953272
3807+301056108+300644438+301169503+301895516+302325816+302549125+302619385
3794+302620136+302506463+302300085+301539262+300570865+300741069+301391030
3780+301596601+301604871+301183148+300539146+300166129+299918007+299945855
3767+300408820+300721186+301007848+301480476+301081895+300122436+300301189
3753+301302447+301374266+300483897+300342682+301403311+302435702+301904956
3740+300189576+298796615+299412714+300697376+300659977+300356188+299970583
3726+299236968+298758325+298348882+298020003+298018471+298164782+298522066
3713+298320923+296645282+295427565+296219243+297729470+298125434+296850100
3699+295604870+295456944+295110215+293874564+292709312+291867676+290854834
3686+290387079+290596241+290786579+291196133+292218833+293115830+292843036
3672+291895579+291124064+290802898+290651853+290341075+290313004+290682068
3659+290086492+287859219+286123733+286396834+287491019+287616305+286026907
3645+284498830+284435477+284691173+284085600+283051817+281527109+279171570
3632+277084202+276118673+275606445+275296474+275266093+274689148+273643501
3618+273281483+273114843+272177997+270650894+268961273+267838655+267422585
3605+266623835+265411437+264633126+263819310+261877168+259478855+258294026
3591+258192717+257730865+256060153+253889020+252414967+251041861+249073904
3578+247731096+247416447+246659022+244997025+243425728+242978497+243929073
3564+244830302+244299278+243023805+241673701+239934261+238541662+237937565
3551+237143688+235857327+234425797+233167436+232512936+232354303+231756708
3537+230371169+229629408+229795713+229052296+227709181+227420082+227209583
3524+225028119+221587988+219885056+220574213+221040520+219785445+218206337
3510+217510901+216643422+214736716+213160574+212864847+212777935+212358857
3497+211929072+210763138+208547310+207139228+207501761+207239910+204982241
3483+203153132+203196324+203528266+202856500+201567842+200546283+199758658
3470+198849826+198258288+197509997+195765489+194126188+193672580+193953631
3456+194347799+194352171+193387644+191522152+189670570+188704010+188666290
3443+188683180+187975992+187040927+186772408+187000869+187239550+187399868
3429+187247361+186732001+185905486+185042686+184700635+184304782+183562562
3416+183647539+184656510+185145764+184587755+183799280+183083585+182295068
3402+181837408+182337424+183578268+184085316+183321291+182763881+183471139
3389+184448824+184416771+183880943+183727141+183676890+183720179+184385331
3375+185397018+186140074+186370484+186232179+186071945+185774923+185724143
3362+186676167+188189304+189618592+190385736+190027547+189707997+190628817
3348+191884796+192516044+192990928+193399785+193608085+194036408+194574088
3335+195284451+196627857+198018368+198788631+199361928+200131355+201085620
3321+202218917+202861722+202420909+201859879+202237645+203011639+203550781
3308+204355310+205403756+206061514+206647538+207420376+208017970+208703925
3294+209765152+210471059+210614683+211301333+212428392+212847929+213116505
3281+214031505+214860081+215385104+216301747+217317472+217595836+217222554
3267+217004076+217504092+218576125+219830461+220745712+221036050+221323102
3254+222134273+223351001+224650632+225751027+226721235+227574873+228302222
3240+229218476+230160098+230531779+230651510+231403309+232539781+233293572
3227+234065561+235271749+236267577+237135278+238336481+239155533+239317884
3213+239459711+239997837+241047132+242025053+242399491+242796876+243804733
3200+245062495+246154174+247066208+247837251+248415727+248878303+249505345
3186+250207354+250591260+250559347+250519413+251452612+253319956+254453155
3173+254456079+254735947+255728572+256580595+256877171+256918302+257056537
3159+257378260+257719782+258083192+259007591+260918962+262689146+262726267
3146+261910278+262119246+263091041+263675143+263927052+264455180+265075679
3132+265185036+264847719+264603998+264689935+265107704+265904394+266740599
3119+267230716+267460096+267596493+267745366+267969065+268503710+269213432
3105+269404271+269239525+269453060+269981216+270254679+270137163+269955485
3092+270137358+270838920+271566855+271841097+271597348+270914081+270152646
3078+269977624+270684478+271424248+271392891+271049169+271178855+271774375
3065+272084429+272128484+272471175+272501919+272050260+272364241+273280759
3051+273456588+273161042+273192733+273306044+273198804+273119661+273368423
3038+273680343+273725484+273622838+273402508+272819381+271901359+271421184
3024+271898240+272542409+272309771+271366937+270885286+271200855+271360226
3011+270832209+269964953+269326967+269205802+269130112+268341275+266729795
2997+264806756+262607163+259621211+255773797+251228578+246019169+239702681
2984+231612389+221894172+211233678+201041496+192928884+187205242+184395454
2970+185910053+191862825+200709080+210703280+220604149+229494918+236772647
2957+242393727+246518308+249238650+250735789+250956285+250102229+249040904
2943+248216339+247274368+245721813+243874157+242654714+242525446+243486659
2930+244810419+245493129+245508139+245445204+245759240+246357321+246684112
2916+246791882+247437694+248588995+249303507+249046056+248255131+247835635
2903+247895535+247882614+247628422+247254541+246806446+246030197+245030693
2889+244332667+243917404+243873851+244493013+245465532+246587036+247741622
2876+248514976+249265467+250510530+251636433+252306529+253132653+254297488
2862+255333778+256091955+256746650+257206218+257626019+258439084+259557747
2849+260637173+261593513+262431862+262943060+263209533+263722317+264383445
2835+264803470+265134855+265578021+266020908+266302224+266190277+265730486
2822+265616033+266098185+266711109+267300725+267695798+267585326+267252242
2808+267258563+267660849+267959987+267920276+267920722+267980650+267674745
2795+267428962+267808051+268042054+267594015+267468506+268275945+269109450
2781+269244204+269005439+268961468+269382467+269870745+269838247+269322845
2768+268741166+268416714+268404406+268660882+269039497+269226604+269257320
2754+269408226+269472136+269261887+269238634+269471384+269529557+269502852
2741+269537745+269414658+269056595+268740358+268664474+268522284+268225151
2727+268249963+268445509+268434871+268677785+269037519+268768735+268189646
2714+268082015+268554671+269078205+269288704+269168988+268667760+268173438
2700+268204405+268558319+268848769+269293132+269991548+270251644+269821010
2687+269510593+269860442+270168463+269613044+268722842+268508138+268926185
2673+269187423+269052724+268769013+268245591+267706324+267605711+267616961
2660+267451909+267247341+266979865+266855415+267231356+267982432+268586055
2646+268733146+268677117+268856037+269146069+269004269+268729136+268859212
2633+269038717+269177760+269439136+269651223+269792717+269742201+269496252
2619+269324377+269261664+269265062+269352726+269450972+269557015+269795306
2606+270028195+270103411+270097870+269900514+269500429+269104131+268800231
2592+268613513+268405770+268148738+268237738+268678787+268906051+268873692
2579+268865839+268797418+268639522+268582936+268817942+269236295+269404884
2565+269158656+268821645+268927772+269527079+269854371+269419337+268842977
2552+268800704+269021758+269155314+269263892+269179681+268828774+268775725
2538+269286170+269506527+269000399+268586167+268452276+268185134+268044950
2525+268146259+268225318+268205185+268055337+267837012+267578364+267136257
2511+266667333+266600025+266883875+267064355+267207296+267642191+268024371
2498+267980845+267873465+268013287+268255700+268466756+268541917+268368037
2484+268049767+267676026+267232164+266970481+267044667+267242440+267520943
2471+267830830+267843835+267581873+267354108+267169284+267235032+267836428
2457+268329022+268050185+267582514+267783824+268350966+268342863+267753693
2444+267303816+267255862+267367976+267432443+267397857+267250209+267149345
2430+267068950+266909662+267048983+267314871+267076134+266531409+266229653
2417+266310188+266388634+266246222+266336420+266684988+266751321+266593007
2403+266661930+266903786+267027206+266972903+266773599+266571732+266421884
2390+266188828+265905034+265812553+265938646+265674596+264687345+263772972
2376+263450330+263311761+263470158+264549054+265806398+265630597+263938832
2363+261963940+261333807+261806073+261952523+262103735+262150825+262045784
2349+262396691+263101345+263851502+264973451+265742098+264978018+264340059
2336+264654151+264599765+264354902+264453705+263870772+262955452+263440389
2322+264579269+264537331+263790265+263612319+264169465+264771640+265103694
2309+265429872+266015450+266830408+267243414+266906654+266436282+266466468
2295+266679947+266395931+265931963+265992698+266541267+267218686+267475189
2282+267068866+266750541+266905874+266873655+266412305+265909518+265578633
2268+265597291+266155384+266956724+267351463+267274631+267225843+267248928
2255+267214091+267391424+267685048+267575747+267115984+266850207+266865858
2241+266752045+266360731+266045692+266203337+266676327+266898606+266802755
2228+266840377+266987802+266864994+266701139+266787634+266859564+266870954
2214+266969840+266994012+266740683+266233022+265842043+265858807+265910910
2201+265732714+265766437+266036781+266053935+265953935+266013027+265999911
2187+265748197+265448947+265356772+265364625+265210712+265092861+265283227
2174+265527645+265556105+265505004+265567689+265671031+265520432+265126696
2160+264919427+265084228+265314862+265251592+265007536+264989602+265174148
2147+265172227+264927920+264705947+264692024+264875372+264894308+264575955
2133+264347995+264323211+264331398+264491856+264608119+264456796+264357909
2120+264334601+264159356+264016777+264009871+264060581+264148607+264109231
2106+263873251+263647992+263648660+263965342+264431566+264630341+264502020
2093+264368686+264240392+264052672+263889096+263799260+263933875+264174561
2079+264154065+263855428+263644065+263810092+264010038+263895668+263849942
2066+264088679+264338416+264471221+264566710+264703998+264725441+264555821
2052+264446214+264357826+264218922+264285227+264468046+264560695+264655989
2039+264710487+264745129+265035495+265537892+265900969+266000078+265964210
2025+265913277+265850592+265704059+265580137+265683368+265885430+266097349
2012+266492951+266871204+266856863+266526257+266206623+266138619+266387465
1998+266655247+266516065+266234916+266437228+267012224+267447843+267581985
1985+267528963+267457256+267487303+267802203+268384662+268741611+268607386
1971+268393545+268466784+268632310+268651246+268653446+268820531+269120449
1958+269370994+269498117+269607976+269767069+269891547+269887593+269818698
1944+269818253+269934516+270051866+270143178+270398540+270662200+270513466
1931+270051030+269814633+270035742+270474062+270870889+271034466+270945493
1917+270939144+271122018+271141512+270956103+270985008+271254879+271342515
1904+271215224+271164542+271308708+271623413+272043215+272295123+272167554
1890+272059756+272373319+272743608+272756195+272484375+272221606+272268028
1877+272564186+272680004+272538539+272460454+272539068+272627372+272690308
1863+272715955+272694763+272828376+273146729+273320999+273249375+273103593
1850+273014314+272971484+272979281+273269870+273687834+273795158+273610529
1836+273248678+272815844+272654217+273001699+273511587+273718355+273678951
1823+273620081+273590423+273482459+273350907+273453358+273680343+273737236
1809+273732696+273785467+273775247+273795520+273917632+273949016+273902566
1796+273769455+273449626+273326735+273687305+274082851+274181320+274177728
1782+274279817+274300090+274100451+273802482+273572573+273552384+273697247
1769+273895354+274119220+274352471+274756037+275251445+275431897+275386868
1755+275382774+275402936+275459466+275549525+275520981+275434654+275556292
1742+275921651+276226860+276212324+276089294+276353650+276820208+276947722
1728+276943433+277074511+277313499+277500217+277521186+277602222+277971787
1715+278367611+278618657+278649790+278380950+278062208+278005566+278167666
1701+278542689+278902841+278813562+278640824+278614062+278583513+278605513
1688+278655193+278894598+279488029+279687389+279307855+278935562+278996799
1674+279246981+279124619+278875383+278955306+279067643+278973824+278697660
1661+278278332+277851207+277288408+276679216+276688628+276835468+276474759
1647+276037581+275679573+275241141+274808976+274437517+274271295+274494354
1634+274476225+274115906+274143280+274657513+275225491+275850585+276538530
1620+276848000+277052651+277970450+279273742+280290734+281014937+281588234
1607+282243793+283023718+283813474+284466081+284886607+285291760+285874052
1593+286453170+287070521+287926861+288829622+289614644+290183708+290446032
1580+290682040+291239213+292046959+292649997+293106585+293717950+294213914
1566+294381807+294503556+294577937+294649338+295223749+295986075+296384434
1553+296380758+296319104+296577362+296822169+296794628+296776694+297169317
1539+297809754+297963389+297896388+298059017+298308949+298476006+298583024
1526+298598396+298681688+299035380+299375593+299484282+299472196+299287678
1512+298996783+298738497+298711875+299245350+299780134+299858915+299733183
1499+299653985+299794615+299826946+299502327+299181161+299119786+299041144
1485+298751613+298383163+297912372+297192904+296224032+294979860+293502243
1472+292150551+291231416+290888585+291374886+292501263+293559135+294421517
1458+295593286+297151606+298364282+299265734+300157858+301131268+302139572
1445+302891789+303194492+303087195+302886832+303041080+303355088+303339466
1431+303208443+303242111+303337823+303383437+303244227+302883045+302642303
1418+302759987+302969456+303044839+303049545+303079342+303150715+303496164
1404+304197727+304805109+305240171+305824747+306563542+307238705+307470591
1391+307052461+305986179+304089428+301394233+298398897+296293094+296415401
1377+298632844+301647729+304088787+305250893+305717589+306564461+308405544
1364+311253233+314478255+317201994+319237816+320720195+321598869+321946350
1350+321888399+321435543+320778146+320317270+320335955+320902151+321991352
1337+323391832+324739541+325671876+326078534+326270709+326445230+326458374
1323+326255950+325913426+325489670+325153996+325134642+325436509+325932195
1310+326515155+327068652+327619504+328290546+329162313+330322052+331681401
1296+333019308+334290213+335549395+336788109+337953416+338991879+339969327
1283+341114974+342383624+343426626+344272717+345117528+345972809+346910296
1269+347865856+348744947+349701927+350796502+351759303+352366657+352886097
1256+353647978+354498247+355172964+355779289+356521453+357318533+358077434
1242+358840178+359567611+360149931+360561461+360960516+361475250+362043228
1229+362609257+363136690+363576931+364020709+364601553+365253770+365849846
1215+366434143+367027379+367543422+368000678+368494833+369105780+369781890
1202+370329512+370731324+371144748+371596686+372006935+372396940+372812425
1188+373190455+373543144+373910398+374161276+374150582+373872943+373373720
1175+372470597+370658586+367521506+363333794+359077717+355760826+354167446
1161+354767031+357099818+360085380+363006642+365587328+367854256+369920348
1148+371531188+372383183+372525206+372118604+371150011+369383976+366800143
1134+363990495+361825739+361196775+362736019+366001866+369869749+373540694
1121+376351234+377975636+378844618+379527049+380251948+380988098+381691944
1107+382654243+384395410+386769579+389024839+391133426+393596791+396321198
1094+398935886+401464693+404001324+406269701+408069848+409641897+411201665
1080+412790729+414419503+415927697+417152599+418166778+419113872+420078761
1067+421246603+422705146+424084489+425142751+426176034+427445798+428833830
1053+430070455+431175389+432375061+433579662+434557444+435440239+436524594
1040+437874391+439303109+440609436+441842664+443056065+444184224+445300130
1026+446434416+447652829+449138522+450695700+451974431+453047313+454203598
1013+455510761+456675512+457673456+458984740+460545706+461886063+463117342
999+464564968+466086195+467330673+468358191+469454994+470721666+472038520
986+473202714+474306535+475620827+477092346+478364644+479404081+480431710
972+481291196+481824811+481992453+481475937+479795283+476153884+469531185
959+459917688+449404382+441737512+440479667+446405259+456774816+468061113
945+478273749+486711551+493201474+497867828+501212929+503976407+506613735
932+509038419+511081648+512974389+514932293+516680951+518073383+519453006
918+520957218+522539459+524264168+525930063+527405592+528901617+530483802
905+532000044+533337506+534669341+536192601+537797677+539329904+540633113
891+541796137+543178488+544771980+546355279+547959018+549611825+551049370
878+552287081+553738940+555401438+557083707+558635148+559816106+560842232
864+562163876+563776916+565235013+566326469+567427672+568859982+570419945
851+571813324+573189604+574684348+576194353+577826218+579514447+580962462
837+582125041+583161582+584246856+585411996+586534642+587347790+587432168
824+586160482+583054202+579125138+577302072+579999885+586326119+593206464
810+598653887+602395035+604893571+606924380+608804088+610361434+611774417
797+613277404+614825337+616387973+618037939+619694478+621085239+622265473
783+623427049+624671165+626140178+627805795+629525213+631102719+632574907
770+634080344+635493217+636869330+638508492+640621228+642891247+644763047
756+646366062+648072670+649865438+651573049+653154343+654835721+656750740
743+658681799+660478577+662233919+664119029+666231988+668376582+670156095
729+671537834+673151877+675309169+677429926+679290308+681278956+683373702
716+685419326+687515911+689528341+691387442+693308866+695298906+697175328
702+698872858+700660001+702672876+704598811+706309485+708035531+710061828
689+712314081+714535033+716832175+719349314+722011426+724692252+727219193
675+729467157+731196600+732137623+733425571+737320995+741095450+743513172
662+745511734+747516700+749797803+752280076+754740238+757228526+759677661
648+761871043+763988347+766260872+768644621+771221130+774114488+777150203
635+779971882+782629260+785229217+787594976+789839097+792130114+794545386
621+796987335+799448556+802457259+805824248+808768122+811369081+813985802
608+816548721+819072487+821686758+824142631+826552055+829327730+832040246
594+834448111+837009471+839850365+842869817+845938559+848989478+851823911
581+854145560+856200262+858399994+861027576+864203921+867629334+870814646
567+873820397+877044194+880380272+883640215+886628422+889430831+892256520
554+894823393+897303327+899947952+902798369+905870731+908731007+911284681
540+914008504+917216539+920467515+923433611+926385505+929168086+931696809
527+934271703+936915325+939502917+942156341+945147166+948579207+952140572
513+955352729+958327402+961227666+963764019+965926324+968212606+970913928
500+973100739+974392196+976058704+978501378+981069365+983260855+985048555
486+987344862+990568603+993894044+996695283+999093512+1001398062+1003843187
473+1006423205+1008504529+1009870729+1010859093+1011782295+1013655876
461+1016727236+1019804277+1022301866+1024577232+1026716368+1028542275
449+1030362946+1032107984+1033362905+1034689895+1036725104+1039058059
438+1040863136+1042489209+1044891337+1046952165+1047313515+1047168151
426+1048006473+1049893644+1052098055+1054042592+1056028678+1057728825
415+1059089901+1061230039+1063936374+1065299454+1063762048+1061186040
403+1061744105+1066679689+1073741823
##END=
