##TITLE=павел 1-многокр
##JCAMP-DX=4.24
##DATA TYPE=INFRARED SPECTRUM
##DATE=2/2/2015
##SAMPLING PROCEDURE=Instrument type and / or accessory
##ORIGIN=Default
##XUNITS=1/CM
##YUNITS=TRANSMITTANCE
##RESOLUTION=4
##FIRSTX=3996.3347
##LASTX=399.24773
##DELTAX=-1.928733
##MAXY=1.1504697
##MINY=0.19395021
##XFACTOR=1
##YFACTOR=1.0714584e-009
##NPOINTS=1866
##FIRSTY=0.32862449
##XYDATA=(X++(Y..Y))
3996+306707658+306803258+307192302+306865312+306200874+306343035+307066107
3983+307612110+307846783+307769875+307187657+306556569+306756445+307659729
3969+308023239+307041908+306041329+306355190+307031839+306685379+305560829
3956+305114904+305366071+305344403+305327742+305372496+304876587+304104422
3942+304144086+305193731+306240733+307094978+307454122+306116401+304584783
3929+305453659+306943917+306748852+306092007+306008201+306300562+307182929
3915+308130437+308202950+307744397+307519376+307019350+305555545+303931081
3902+303128125+302788647+302613692+303046712+304380567+305990650+306405785
3888+305396834+304002787+303035252+302342026+301826118+302379548+303674935
3875+304746664+305464841+305236843+304487987+304716847+304966456+304836868
3861+305106476+304810138+304354783+304814866+304465513+302983545+302484854
3848+302923798+303661668+304519140+305877778+306892877+306081604+304638298
3834+303860904+303370670+303351005+303467048+303181780+302700085+302027775
3821+302038706+303034195+303276628+303004600+303743109+304491909+303698939
3807+302174943+301858300+302070915+301593031+301367203+302018902+302719527
3794+302891672+302432312+301582350+301655363+303268645+304776565+304961533
3780+303983067+302614721+302219363+302479903+302043935+300835302+299739763
3767+299262796+299185610+299450879+299734339+299355391+299346908+301004276
3753+303030996+303590017+303724223+304417894+304258961+302661255+301070781
3740+300212113+299433746+298376981+298050992+298539085+299061640+299590398
3726+300086335+300420251+300301927+299665470+299311528+299463452+299316506
3713+298262551+296449086+295122129+295432625+296684760+297343358+297298965
3699+297098977+296457848+295443111+294554570+293975634+293772058+293500336
3686+292398400+291332873+291408140+291466968+290739446+290279446+290178451
3672+290676418+291563735+291106461+290382027+290765703+290866003+290161984
3659+289795998+290204485+291233046+292148039+291810702+289605773+287210063
3645+286611573+286602367+285495841+284109305+283771161+283909790+283320424
3632+281942093+280419960+279111722+277645023+275950133+274641005+273669297
3618+272756390+272042609+271785656+272115483+271359896+268455705+266049564
3605+265811804+266023724+265081667+262904108+260584721+259270086+258675379
3591+258170236+257928860+257498260+256173361+254387961+252556250+250790043
3578+249404146+248307662+247012636+245833514+245104129+244180374+243292973
3564+243209807+243244492+242999666+242614989+241498200+239530641+237911268
3551+237363958+237228528+236767499+235657552+234305283+233387954+232433269
3537+230957642+229549521+228414750+227404422+226977674+227081020+226705688
3524+225395211+223811093+222766455+221980188+220339884+218077420+216959616
3510+217147769+216731591+215280649+213871653+212502946+211363960+211230964
3497+211204151+210338445+209371800+208848981+208632206+208242161+207401780
3483+206206832+204589809+203566088+203316144+201982387+199809333+198362940
3470+197574503+196979505+196309281+195617515+195279705+195143121+194840385
3456+194412094+193604438+191978194+190425381+189818686+189382635+188632235
3443+188039462+187762733+187526030+187173534+187000637+187313191+187731358
3429+187577515+186789955+185562449+184314931+183949056+184490706+185122337
3416+185003776+183809843+182890093+182982897+182695084+181776920+181204646
3402+181015158+181260150+182114076+182650372+182280603+181999911+182208466
3389+182130779+181831687+181856846+182501424+183822262+184849099+184833606
3375+184323762+183640604+183072989+183389716+184461417+185892137+187410557
3362+188100960+188468073+189702755+190476574+189534392+188436322+188730421
3348+189611717+190064541+190845036+192242128+193331534+194145420+194887211
3335+194976260+194735802+195175080+196042899+196352338+196327444+196878315
3321+198001334+199095232+200113348+201391171+202229868+201760522+201023641
3308+201746893+203933159+205889452+206701252+206986826+207338112+208094812
3294+208825268+208921480+209216483+210133423+211000283+211715872+212244936
3281+212552331+213135606+213766040+214232618+215456689+217160007+217991987
3267+217780554+217124043+216874002+217574294+218654339+219454611+220225023
3254+221425896+222695555+223290749+223605570+224461971+225526997+226603357
3240+227923458+229002517+229703907+230384380+230996290+231824794+233163447
3227+234077036+234077175+234395180+235711012+236921620+237054296+237255425
3213+238720287+240359214+241345024+242090459+242584643+242872470+243194870
3200+243532430+244053400+244819361+245604126+246591632+247850861+248934133
3186+249891321+250723705+250962216+251200366+252092023+253103589+254075797
3173+254875971+255207133+255553148+256024942+256585742+257434620+257962655
3159+257856291+257913895+258704918+259888185+260675397+260763542+260738175
3146+261055124+261868454+263072832+263939511+264315622+264509407+264655101
3132+264994774+265159409+264999252+265118216+265473354+265794086+266243822
3119+266818029+267446837+267955429+268007387+267969782+268450754+269105596
3105+269339156+269606539+270270727+270315064+269668761+269645591+270171734
3092+270469352+270861289+271574487+271793111+271153316+270516025+270441037
3078+270658131+270983925+271557186+272383812+273008058+272988782+272617483
3065+272634562+273120596+273352349+273175892+273027306+272837860+272758671
3051+273104909+273414348+273531364+273806368+273913455+273537706+273286873
3038+273364059+273328678+273531781+273967082+273628382+272654755+272241679
3024+272616983+272951149+272948367+272960133+272797945+272434073+272289659
3011+271721821+270058556+268116115+266749967+266130004+265915108+265161023
2997+263592328+261652890+259302351+256282617+252247841+246636303+239040518
2984+229660836+219377467+208911188+198958216+190545833+184598613+182232734
2970+184276797+190592937+199995163+210243597+219673582+227995248+235022319
2957+240635832+244921970+247588457+248986647+249951846+250047557+248800789
2943+246974613+245436125+244484277+243908429+243465647+243078326+242900340
2930+243249192+243778006+243963029+244114620+244704097+245579566+246419126
2916+246990885+246947411+246680222+247102506+247915919+248050265+247334786
2903+246645649+246696327+247163948+247324189+246797378+245816047+245139648
2889+244923472+244504193+244010454+244207855+244999962+246002044+246980955
2876+247747056+248782849+250211858+251266648+251771096+252377708+253420677
2862+254541972+255752413+257238888+258579168+259675374+260533431+260993041
2849+261662681+262806784+263495894+263460291+263649960+264503761+265370078
2835+265537217+265292002+265493047+266109894+266572898+266923308+267367843
2822+267813713+268203064+268363221+268094475+267743119+267681065+267747904
2808+267902303+268294658+268579842+268570218+268722782+268900156+268596503
2795+268178865+268165625+268356907+268529664+268898432+269386274+269612325
2781+269588293+269527073+269432669+269139419+268775964+268973504+269902905
2768+270796119+271164359+271137295+270849162+270707808+270872332+270897504
2754+270625448+270229478+269967908+270034191+270289224+270291338+269894978
2741+269621559+269464990+269129823+269097669+269444685+269820963+269995306
2727+269499619+268652800+268387197+268767619+269367778+270001759+270486152
2714+270465041+269863186+269347668+269668010+270521115+270888520+270615324
2700+270307387+270016779+269911277+270325466+270584116+270424765+270568929
2687+271076381+271532737+271577046+270980003+270260936+270152292+270511714
2673+270578441+270237266+269983568+269612241+268850785+268273212+268092973
2660+267912483+267548611+267244513+267565912+268447527+269002125+268996813
2646+269213183+269994082+270699630+270904208+270769167+270470798+270073827
2633+269674463+269715768+270265387+270478614+270178410+270179856+270522534
2619+270563561+270223998+269752567+269483542+269707674+270135047+270445348
2606+270679325+270852750+271017358+271047259+270647088+270121724+270041589
2592+270172513+270000980+269737380+269731956+269808168+269752483+269592799
2579+269465519+269590713+269843298+270007071+270199410+270252036+270144865
2565+270182276+270208951+270146006+270187394+270423041+270693038+270697377
2552+270668700+270756706+270629481+270405434+270321433+270293535+270210592
2538+269865828+269268423+268835098+268827226+269117417+269366888+269192767
2525+268757522+268821163+269254711+268979317+268052697+267590111+267895655
2511+268314211+268353541+268324698+268810037+269628263+269874173+269323886
2498+268887862+268970528+269079673+269106569+269130796+269041984+269148486
2484+269642671+269917563+269553719+268940265+268451199+268125099+268074226
2471+268372567+268811149+269149154+269359767+269366359+269134913+268966495
2457+268853483+268650630+268699278+269035392+269182726+268758329+268034089
2444+268022324+268886666+269415786+268928555+268039708+267597760+267794354
2430+268166070+268406528+268563570+268497260+268170465+267700368+267130472
2417+266842061+266977074+267066888+267082464+267366480+267692274+267699256
2403+267624907+267724511+267869231+267916767+267783173+267672581+267838524
2390+267958795+267751575+267505276+267529141+267606215+267300837+266647553
2376+265863790+265134209+264721578+264287585+263368169+262176085+260838809
2363+259457251+259095799+260064057+261036961+261910427+263530523+265151788
2349+265593291+265135433+264830834+265038109+264484235+262040822+259708196
2336+260961944+264461816+266217899+266174563+265887404+265591650+265938917
2322+266390823+265896583+265468431+265824126+266096905+265662411+265280515
2309+265588396+266344456+267288015+267770322+267449924+267101211+267220787
2295+267381917+267295580+267175337+267145242+267178647+267290796+267553367
2282+268012199+268556478+268957872+268868642+268317493+267821891+267569722
2268+267483079+267633807+268079205+268550831+268526883+268079427+267797386
2255+267694555+267542826+267543104+267730380+267935319+268260724+268622649
2241+268610494+268221171+267934540+267966166+267997318+267775524+267490617
2228+267402445+267426504+267298946+267118734+267058599+267019603+267087749
2214+267140319+266869208+266609280+266641378+266685631+266610059+266510287
2201+266423394+266447259+266591784+266594121+266422893+266400642+266556960
2187+266573844+266406260+266155705+265818757+265704355+266042193+266657427
2174+267193250+267142238+266685297+266544638+266676119+266697119+266656871
2160+266569004+266378139+266238092+266199374+266243739+266340756+266216619
2147+265795560+265450657+265473271+265890603+266492458+266686605+266237286
2133+265660519+265233953+265045675+265376976+265919975+266013099+265673787
2120+265399979+265513602+265890464+265897112+265254508+264693707+264796983
2106+265191758+265435137+265642607+265864318+265784907+265519388+265597714
2093+265871188+265757760+265403150+265250586+265190061+265054937+264972049
2079+264984955+264978947+264880984+264683360+264558583+264805689+265299123
2066+265727748+266086224+266185189+265955133+265847935+265947679+266007480
2052+266008064+265927875+265805712+265844848+266013182+265916304+265658906
2039+265875500+266379920+266577794+266545668+266515238+266519132+266598905
2025+266761120+266919442+267031869+267100905+267202874+267485833+267752076
2012+267752688+267644683+267602015+267645378+267724511+267765510+267664348
1998+267416491+267356912+267663486+268068440+268307119+268415735+268627878
1985+268864414+268867641+268802582+268948220+269321716+269626343+269486074
1971+269174326+269227341+269484766+269585261+269635967+269915338+270450716
1958+270856728+270855782+270641525+270398703+270248253+270304689+270418256
1944+270455973+270397228+270236598+270306107+270796537+271218542+271248943
1931+271203132+271325517+271499693+271531736+271418669+271367517+271454605
1917+271542138+271578882+271646026+271789578+272010093+272206271+272229746
1904+272191946+272283568+272442112+272643935+272927395+273156116+273272020
1890+273286400+273147410+273017932+273121347+273367257+273464219+273243843
1877+272909761+272815886+272893656+272911235+273008559+273281087+273474706
1863+273499461+273579011+273879716+274172633+274139422+273898407+273797579
1850+273876684+273852263+273686932+273729405+273916876+273964634+274021654
1836+274166569+274202450+274106350+274113832+274212742+274228234+274287062
1823+274388781+274472726+274677470+274939151+275007742+274872396+274788367
1809+274829839+274840576+274807643+274840742+274884801+274745644+274566295
1796+274499372+274342664+274246564+274551859+274929054+275021510+274907442
1782+274801941+274864913+275016253+274952307+274742139+274805585+275123952
1769+275314427+275209065+274843162+274658918+274975978+275366024+275642669
1755+275899232+275997752+276030656+276275482+276654513+276796452+276690839
1742+276759402+276971851+276766606+276220214+276202941+276911438+277517409
1728+277768799+277807489+277885593+277998827+278010342+278226935+278815689
1715+279256497+279396962+279440603+279457820+279483410+279466026+279278360
1701+279166711+279415903+279726650+279910755+279926276+279872566+279830816
1688+279707791+279648407+279806951+279996925+280120006+280112162+280054112
1674+279984909+279642955+279241672+279136115+278994844+278719451+278550448
1661+278404783+278182988+277918219+277726659+277822620+277691446+277081552
1647+276458169+276124921+275924961+275666478+275311729+275095609+275161863
1634+274978898+274558451+274620644+275284248+275959701+276561195+277213422
1620+277692336+278186632+279027666+279952450+280756518+281538334+282313920
1607+283054404+283719231+284346787+285090275+285876152+286464740+286929607
1593+287531796+288339675+289172030+289836302+290341918+290884750+291595834
1580+292201054+292578278+293012187+293317871+293440395+293832193+294351967
1566+294643187+294855775+294986699+295327290+296295493+296860244+296834126
1553+296779692+296852149+297129351+297494086+297616609+297504294+297768812
1539+298531019+298869552+298774342+298822100+299100609+299200130+299018499
1526+298694152+298482871+298800571+299496273+299978080+300177094+300114316
1512+299765575+299214399+298842321+299396835+300392352+300819447+300795916
1499+300688023+300563107+300214032+299734256+299384319+299251309+299139660
1485+298830277+298313758+297666287+296877155+295772215+294375471+292932776
1472+291514503+290378021+289906478+290379440+291586655+292605174+293186335
1458+294118379+295892514+297609294+298939589+300101021+301204375+302222422
1445+302878683+303131658+303124899+302982376+303045349+303382157+303530438
1431+303399848+303161364+302890421+302626376+302353903+302182564+302404915
1418+302707205+302530860+302179421+302075366+302179532+302379492+302893008
1404+303739493+304434722+304967541+305711585+306569224+307189243+307218837
1391+306493485+305064865+302842969+299860535+296844945+295046111+295322784
1377+297437816+300386984+302893675+304236681+304924456+305931516+307895486
1364+310916194+314251124+316934327+318931341+320505738+321620469+322153761
1350+322113123+321684331+321067707+320499758+320342577+320874339+322118130
1337+323675671+324921382+325653771+326209259+326698465+326784245+326434948
1323+325972973+325526324+325133719+325001293+325125291+325244867+325470389
1310+325963460+326484681+327015691+327757622+328724044+329825647+330873817
1296+331857874+333032573+334415160+335829455+337190764+338412526+339616347
1283+341042714+342453505+343506404+344292754+345007314+345845567+346912651
1269+348023933+349038975+349983146+350877362+351715281+352517847+353397488
1256+354289701+355015109+355705887+356485145+357174505+357666242+358129857
1242+358808426+359679360+360460175+360976556+361309136+361687166+362297394
1229+363046639+363694138+364244897+364855041+365466353+365942625+366401846
1215+366998027+367600800+368049507+368393019+368741927+369160789+369707932
1202+370440405+371184728+371599362+371744193+371962705+372324158+372741407
1188+373187138+373633731+374040048+374408649+374644963+374454766+373719984
1175+372428630+370279330+367021113+362845761+358407949+354687396+352671718
1161+352920771+355098914+358173332+361333892+364365641+367105503+369156978
1148+370425970+371195547+371508519+371210317+370187375+368220540+365348836
1134+362300704+360074107+359422519+360824993+364211019+368649443+372773644
1121+375616476+377183752+378092738+378814391+379449012+379894464+380341642
1107+381305366+383000146+385216006+387647792+390157376+392791514+395553600
1094+398365363+401160270+403830984+406273841+408465474+410350673+411852585
1080+413088588+414331461+415676192+417082894+418546505+419879164+420977540
1067+422094357+423222049+424193089+425334300+426852149+428256292+429223911
1053+430161768+431340612+432491502+433533831+434597828+435707858+436944529
1040+438310009+439661555+440960196+442295721+443591831+444668817+445711675
1026+446847128+447906646+449114612+450652405+452139853+453361921+454558288
1013+455993361+457481783+458647832+459655365+460842803+462172097+463491739
999+464797446+466135250+467409860+468574074+469729442+470841141+471907001
986+473181472+474727971+476212109+477316131+478049606+478782579+479750476
972+480691003+481307990+481376080+480557771+478576639+474738930+467661806
959+457142638+445821015+437896488+436738644+442953038+453955404+466132107
945+477079817+485822431+492242404+496871053+500591050+503856054+506594859
932+508871049+511002492+513140999+515067948+516611999+517988550+519489433
918+521234473+523146124+524915697+526332356+527568610+528816657+530170010
905+531661324+533095174+534521123+536170592+537851937+539341972+540666287
891+541939311+543356471+544971673+546532691+547896669+549267101+550628298
878+551933254+553373556+554814637+556179228+557528131+558740797+560026561
864+561694999+563599196+565200879+566331603+567476124+568784417+570150454
851+571727327+573459516+574995946+576213119+577457772+578905529+580291314
837+581471437+582561942+583771604+585171130+586452221+587157992+586966404
824+585300413+581603057+577107974+575148983+578104353+584832180+592232955
810+598036665+601827646+604520278+606881804+608854313+610365766+611775416
797+613248818+614708590+616162744+617550087+618901215+620428188+622085612
783+623427395+624487525+625849446+627440559+628836135+630178029+631803744
770+633561357+635201369+636856067+638532739+640227490+642017201+643761796
756+645474460+647257162+648993246+650588587+652203677+654016752+655960390
743+657908088+659715211+661260653+662869457+664924910+667132008+669059180
729+670804832+672704188+674762033+676657829+678342957+680017904+681823469
716+683950684+686259696+688258128+690056740+692079816+694257876+696312939
702+698063265+699687422+701496937+703492366+705551712+707639263+709851090
689+712109702+714280530+716417369+718529063+720726983+723115489+725593280
675+728039141+729956187+730816942+731793350+735382173+739167591+741898830
662+744310311+746625442+749079591+751492129+753623238+755593300+757600633
648+759911425+762572849+765282560+767826884+770272633+772802105+775571617
635+778414894+781106525+783625204+785984505+788385918+791108924+794087325
621+796731727+799015816+801724192+804807955+807730059+810386533+812744665
608+815022969+817519174+820130643+822529775+824820818+827455819+830265551
594+832783062+835141695+837856357+841045761+844162957+846873502+849324425
581+851827639+854698008+857544344+859982083+862575862+865696952+868958285
567+872203095+875610288+879113219+882427622+885197580+887819340+890789341
554+893584276+896047882+898649505+901510973+904304851+907036313+910096878
540+913260692+916142354+918773794+921655233+924957453+928026919+930687732
527+933268104+935925523+938545670+941156361+944109061+947348698+950668219
513+953937450+956708910+958869002+961268745+964192740+966826128+969156779
500+971278375+972867709+974459601+976681219+979324063+981585289+983448431
486+985625434+988216432+991474983+995164439+998126485+1000435219+1003064935
473+1005824489+1007427508+1007897243+1008895569+1011346603+1014564544
461+1017410881+1019593447+1021298601+1022909074+1025031226+1027158163
449+1028698987+1030287653+1031979345+1033310447+1035018827+1037376848
438+1038811421+1039573211+1042190354+1045193454+1045309052+1044712037
426+1046016882+1047508752+1048555365+1050828273+1054289427+1056278068
415+1056664470+1058227881+1061178467+1062880728+1062947039+1063647413
403+1066332313+1070418297+1073741823
##END=
