##TITLE=павел 1-многокр
##JCAMP-DX=4.24
##DATA TYPE=INFRARED SPECTRUM
##DATE=2/2/2015
##SAMPLING PROCEDURE=Instrument type and / or accessory
##ORIGIN=Default
##XUNITS=1/CM
##YUNITS=TRANSMITTANCE
##RESOLUTION=4
##FIRSTX=3996.3347
##LASTX=399.24773
##DELTAX=-1.928733
##MAXY=1.1493239
##MINY=0.18972503
##XFACTOR=1
##YFACTOR=1.0703913e-009
##NPOINTS=1866
##FIRSTY=0.33007985
##XYDATA=(X++(Y..Y))
3996+308373063+308098620+309249237+309751626+309393294+309633101+310189449
3983+310213366+309499040+308876232+309251938+310190479+311002198+311379241
3969+311149011+310359316+309294954+308411931+308406084+309073106+308807349
3956+307412832+306284461+305835223+305513058+304766518+304031672+304373550
3942+305496074+306345687+307089303+308299420+309566697+309993076+309671969
3929+309025161+307939584+306832428+305711686+304673023+305440250+307989561
3915+309314110+308504284+307442484+306824271+306154353+305966862+306962174
3902+308212468+308009719+306578756+305797385+305875511+305235692+304005640
3888+304267192+306002863+307479153+308101404+307929115+307029776+306474235
3875+306889004+307426893+306780112+305147793+304424335+305023838+305580576
3861+305411572+305258829+305589597+304999866+302797305+302628496+304310013
3848+305082335+304908626+304978232+305829432+307024514+307694654+307860233
3834+308311921+308317016+307029163+305939131+306129824+306034185+304862268
3821+304181465+304328111+304230161+303710482+303159619+303242172+303969222
3807+304326775+304099023+304282644+304872515+305228814+305237362+304749646
3794+304141734+303777415+303614119+303826362+304135191+304315832+304597041
3780+304551742+304107125+304434163+305197436+304985054+304178346+303804812
3767+303797879+303913927+304023988+303626760+302605276+302153476+302731959
3753+303604625+304346960+304897740+305315349+305073036+303820543+302826902
3740+302244521+301664841+301889892+302856331+303201522+303066068+303296882
3726+303558434+302821834+301593007+300918162+300491922+299931258+299284033
3713+298942239+299445714+299923379+299865996+300217702+300890403+300889039
3699+300421480+300015510+299304385+297902824+296127756+294463724+293521006
3686+293811097+294674686+295282877+295504169+295503139+294869667+293634966
3672+293541944+294641331+295114068+294660654+293881371+293276912+293477711
3659+293894095+293580868+293121857+293096882+292820880+291660796+290103902
3645+288794304+287551139+286579381+286443956+286779652+286469933+285046598
3632+283459746+282213629+281005684+279971002+278587399+276800666+275626633
3618+274801522+273274920+271916626+271413123+270533775+269158664+268607188
3605+268402769+267254769+265374261+263542089+261923635+260715690+259924546
3591+259299567+259034423+258816110+257269601+254708235+253120129+252964350
3578+252958698+251974105+249941690+247889896+246405809+245347796+244783095
3564+244350619+243600070+242710392+242012521+241618967+241231150+240475450
3551+239518672+238566543+237096211+235006802+233441402+232631298+231756878
3537+231005410+230376685+228823981+226978834+226424644+226521911+225860973
3524+224317708+222447795+220916905+219993942+219341579+218258549+216846811
3510+215877657+215332864+214598143+213206313+211929305+211736120+212078596
3497+212320951+211760552+209800972+207484939+206231611+205677546+204754792
3483+203615172+202574310+201573123+200237673+198211174+196874750+197235686
3470+197723778+197281125+196337572+194902989+193771945+194358892+195347578
3456+194001117+190700268+188292509+187572865+187151553+186405667+185554871
3443+185019879+185369079+186312854+186829861+186851912+187114077+187559180
3429+187680434+187146109+185567512+183471782+182341504+182001896+181151573
3416+180712484+181600797+182286153+181798465+181006514+180754930+180636780
3402+180054135+179571402+179480678+179093890+178117052+177248284+177392897
3389+178427788+179718063+180768280+181218632+181503557+181819903+181668092
3375+181290410+181439798+182211633+182816051+182974252+183261795+183985726
3362+185117244+185693429+185050310+184456723+185065443+186594495+187968033
3348+188535378+188787241+189069048+189003716+188927873+190054490+191921257
3335+192665472+192645147+193350271+194248344+194582119+194953913+195638295
3321+196447647+197317139+198032676+198490518+198802729+199386683+200573593
3308+201952337+202786177+202806613+202678858+203118658+203877323+204513815
3294+205201774+206134538+206779342+207017033+207868204+209551852+211091456
3281+211728505+211643112+211989626+213097296+214121829+214797412+215284669
3267+215681563+215979923+216413666+217493466+218886856+219885704+220330863
3254+220341067+220212254+220467570+221361702+222288842+222806670+223666403
3240+225533978+227465506+228140393+228335833+229655914+231663508+232850696
3227+233109297+233568934+234650140+235439028+235102831+234406491+235120121
3213+237428316+239586468+240736389+241167084+240968874+240771610+241170648
3200+241869800+242907934+244324085+245384492+246021583+246876876+247868624
3186+248731796+249614346+250523207+251214118+251706512+252511047+253403454
3173+253743828+254026930+254674657+255549968+256657318+257426577+257433593
3159+257422512+258064977+259253460+260708061+262070531+263078178+263740800
3146+263965851+263840782+263722007+263776661+264185472+264938610+265525975
3132+265684593+265713327+266117878+267178954+268263222+268459150+267949577
3119+267577073+267869391+268709537+269357876+269388698+269153457+269021177
3105+269185699+269750009+270382952+270840014+271341930+271839391+272070177
3092+271977684+271801274+272103755+272670961+272513540+271849358+271896022
3078+272811538+273753253+274302724+274535654+274564499+274563162+274547599
3065+274303810+273909199+273949181+274652871+275390612+275680313+275658874
3051+275377861+274828418+274437175+274463264+274460006+274047771+273466921
3038+273185657+273416833+274122973+274893764+275022563+274675479+274563469
3024+274615256+274533065+274292116+274002917+273813950+273525084+272912272
3011+272055225+271100953+270335703+269948999+269589136+268913817+267881948
2997+266200681+263740772+260592348+256384963+250902394+244279592+236441440
2984+227376967+217292694+206490156+195895670+187001746+180648335+177547785
2970+179071074+185398814+194936790+205797116+216651009+226597754+234639783
2957+240445742+244643382+247634720+249413658+249889290+249196375+247864392
2943+246538729+245612494+244687735+243198637+241633557+240948994+241426047
2930+242624637+243776062+244559604+245309429+245892116+245879865+245621153
2916+245545672+245635353+245927198+246542711+247353093+247744864+247374615
2903+246937322+247088506+247300499+246827344+246094252+245694017+245177178
2889+244369718+243860035+243679810+243402416+243247222+243895896+245391147
2876+247049388+248421158+249481677+250310129+251268327+252635280+254114633
2862+255356769+256407460+257426493+258300050+259029634+259975164+260954606
2849+261540745+262251925+263601365+264967065+265580128+265380609+265000393
2835+265115271+265550810+265955751+266300162+266646801+267222109+267682874
2822+267825984+268374564+269286906+269924053+270224445+270173243+270016684
2808+270097957+270080639+269797453+269660162+270005575+270673042+270916831
2795+270497468+270271805+270698964+271201158+271535685+271978575+272226317
2781+271916403+271423814+271049417+270754955+270936516+271732559+272327385
2768+272198865+271705552+271691185+272574654+273441195+273420425+272954509
2754+272692010+272575128+272515099+272698136+272934184+272837515+272453428
2741+272315998+272723806+273210966+273331440+273093833+272637857+272056980
2727+271479555+271148842+271016396+270903216+270880135+270808997+270552123
2714+270484633+270870807+271575444+272372629+272938416+272988894+272361687
2700+271431025+271139682+271688624+272330782+272598404+272843195+273233435
2687+273081888+272408574+272167264+272503322+272921209+273053851+272809645
2673+272556167+272383098+271880598+270978335+270110625+269801629+270047952
2660+270434266+270892135+271452965+271804198+271648642+271163125+270745349
2646+270626490+270954669+271515527+271908886+272188118+272480992+272617058
2633+272574404+272617643+272773032+272886824+273001034+273058027+272911437
2619+272728512+272762368+272922323+273083252+273201388+272985498+272338133
2606+271640262+271349698+271538664+271847743+272049239+272201788+272426031
2592+272651945+272635407+272491795+272670961+273138074+273129248+272496222
2579+272107541+272262707+272417177+272279107+272280360+272726563+273159095
2565+273218316+272820002+272195468+272058121+272358820+272454514+272374857
2552+272310429+272174475+272102029+272296675+272638525+272883037+272824318
2538+272588631+272562042+272517828+272019671+271148842+270455955+270780431
2525+271817562+272223784+271753525+271255757+271339006+271690461+271724541
2511+271652262+271805423+271878760+271774379+271837136+271834296+271444195
2498+271218448+271628596+272261093+272284759+271605124+271150541+271386672
2484+271835354+272054836+271818063+271050419+270295332+270210301+270608281
2471+270958790+271166522+271326895+271413262+271397420+271383554+271483648
2457+271580539+271556929+271605626+271807623+271995838+272049768+271935503
2444+271891317+272054000+272005026+271558739+271171896+271106132+271064480
2430+270752978+270343165+270234858+270421096+270476057+270213920+269884767
2417+269648607+269427705+269414814+269791077+270166282+270287536+270363685
2403+270338515+270092193+269898493+269978735+270327573+270748328+270878715
2390+270679641+270340158+269774177+268997010+268520849+268779588+269334349
2376+269277467+268562835+267448580+265581632+264091309+264540965+265609057
2363+266303949+266575858+264895232+262922845+264158493+267006553+268336225
2349+268242953+267632062+266833484+266332682+266577390+267551346+268499020
2336+268265867+267158684+266496145+267307892+269256168+270084620+268769899
2322+267028242+266431606+266866311+267590994+267982821+268006598+268150433
2309+268594770+269205244+269887913+270374376+270411101+270162495+270132537
2295+270495742+270831076+270872756+270852097+271042902+271362895+271501411
2282+271419777+271418413+271512465+271197734+270437857+270047395+270358562
2268+270820078+271185706+271461151+271420028+271245428+271166077+271015031
2255+270931504+271140824+271266922+270848394+270420010+270797860+271535741
2241+271711455+271223321+270627910+270457542+270678221+270941416+270916831
2228+270551287+270353550+270508243+270595418+270507798+270409681+270488892
2214+270690082+270562926+270176723+270016406+270106337+270303295+270529292
2201+270636263+270547751+270294441+269916591+269452652+269149559+269311741
2187+269666510+269635354+269282368+269220056+269538769+269689703+269635716
2174+269745972+269813212+269680320+269742492+269986559+270034921+269991933
2160+269964703+269779912+269564996+269498258+269516133+269575214+269564300
2147+269325885+269019256+268866540+268815060+268797018+268781287+268800248
2133+268857158+268757008+268566761+268540617+268572691+268439549+268307464
2120+268546130+269000491+269092705+268712043+268267204+268059694+268020325
2106+267978422+268108028+268505674+268758038+268749658+268671977+268474658
2093+268360727+268538445+268683699+268651430+268576728+268401516+268261942
2079+268330156+268389905+268345191+268350648+268482426+268712906+268917464
2066+268823802+268463075+268382666+268702688+269065029+269306702+269287936
2052+269027888+268827338+268848025+268999767+269110802+269109549+269113197
2039+269332595+269766715+270133066+270296974+270304770+270025511+269606955
2025+269637470+270184574+270780319+271139097+271192443+271012024+270757155
2012+270626573+270764310+270980340+271055069+271125399+271258987+271282486
1998+271111867+270863680+270848840+271242226+271727882+271983782+272148553
1985+272272452+272102836+271752244+271606015+271687900+271848690+272033870
1971+272098381+272099801+272442152+273045609+273432731+273644779+273918749
1958+274165238+274258538+274244450+274179800+274020290+273790339+273653494
1944+273532184+273319329+273338401+273667331+274001886+274279865+274589529
1931+274911026+275131900+275201729+275215121+275184272+275010925+274855898
1917+274952678+275120819+275189228+275186527+275080726+275043751+275315326
1904+275662828+275676777+275481323+275504377+275800565+276059722+276125236
1890+276274360+276644052+276879070+276812220+276600896+276315205+276083388
1877+276110674+276256680+276236048+276110897+276163964+276416969+276605796
1863+276639708+276695672+276875840+277031368+277220892+277441794+277316057
1850+277056928+277088334+277167963+277201124+277340503+277477627+277541776
1836+277420940+277118654+277026886+277263407+277402063+277408856+277711699
1823+278255991+278505905+278201726+277662696+277497869+277812043+278059089
1809+278092834+278333643+278682871+278757099+278631196+278505153+278489283
1796+278629302+278625098+278345838+278217234+278356307+278562648+278619418
1782+278529014+278524058+278363129+277871848+277653229+277992768+278198969
1769+278100268+278179257+278351880+278424243+278578963+278796691+278978837
1755+279064313+278875513+278644922+278854659+279378710+279762490+279813776
1742+279755892+279855122+279882992+279757590+279977183+280465317+280727760
1728+280928588+281151996+281359895+281510635+281510774+281523414+281679248
1715+281877877+282082379+282250464+282463097+282679294+282498513+282012634
1701+281957840+282408136+282673447+282888641+283077858+282949978+282602532
1688+282302530+282262882+282468248+282706524+282842116+282726570+282495728
1674+282384721+282260126+282196004+282326251+282292673+281995260+281785885
1661+281801505+281755370+281360536+280676140+280416343+280489290+280089862
1647+279548939+279220899+278887485+278453282+277959135+277614417+277812739
1634+278192482+278273170+278384762+278635121+278819216+279185511+279866259
1620+280435721+281135847+282559098+283960214+284693807+285143462+285660831
1607+286240845+286779541+287471175+288357707+289138298+289731815+290249908
1593+290882293+291674829+292349424+292885280+293517999+294181179+294730399
1580+295146393+295486545+295944609+296425030+296779158+297249974+297779705
1566+298091095+298331375+298487544+298457000+298575971+298909106+299273118
1553+299673326+300044299+300370752+300506483+300397536+300262695+300619580
1539+301587133+301923804+301576385+301466436+301687755+301816499+301832063
1526+301634743+301386027+301563661+302029716+302484968+302941473+303034885
1512+302537173+301813297+301544227+302088631+302508718+302454481+302378749
1499+302333478+302259890+302123267+301815329+301442268+301218805+301057708
1485+300697789+300157896+299491849+298479776+296992821+295267786+293551383
1472+291868668+290531423+289991725+290423923+291684100+293227018+294632282
1458+296091979+297719844+299037850+300132114+301265190+302512003+303674092
1445+304382376+304696550+304772003+304636578+304522702+304432214+304094791
1431+303746176+303672700+303731113+303738129+303605933+303432308+303389347
1418+303328094+303180556+303100287+303028230+302937770+303080073+303589033
1404+304290579+304972831+305612372+306256591+306945051+307649939+307909514
1391+307208190+305462691+302604162+298789244+294981789+292701297+293097022
1377+295844877+299356729+301980435+303192918+303909611+305342189+307939751
1364+311491641+315243300+318252596+320390423+321913517+322858128+323223449
1350+323069396+322539610+321872672+321302932+321061176+321425522+322575694
1337+324184737+325705242+326769575+327149513+327113040+327109253+327014115
1323+326596534+326047871+325542447+325082072+324847945+324961681+325270760
1310+325690067+326257970+327016176+327959255+329009863+330127821+331335487
1296+332638486+334011175+335462825+336951422+338330264+339570172+340787499
1283+342074740+343421980+344761481+346067543+347297567+348418699+349487849
1269+350569668+351619913+352459363+353125911+353898762+354825415+355754016
1256+356555823+357256924+357971779+358717010+359517509+360305812+361013790
1242+361733852+362364956+362751911+363044786+363451341+363993740+364642525
1229+365316786+365843008+366353332+367131529+367984427+368585601+368997419
1215+369444625+369989641+370604068+371314385+371940951+372224777+372393809
1202+372804290+373337529+373700594+373916540+374257889+374757438+375114908
1188+375300032+375605603+375956808+376131714+376138229+375715302+374574764
1175+372753533+370029845+365938786+360637805+355253186+351069941+348916800
1161+349246650+351751051+355325409+358955481+362307267+365329955+367715163
1148+369366694+370456002+370827838+370211406+368386918+365408610+361829602
1134+358297981+355652168+354959058+356705504+360439762+365217026+369759049
1121+372989498+374947936+376074303+376550994+376783784+377218906+378036054
1107+379269336+381087142+383624620+386525859+389428018+392417935+395560652
1094+398655675+401647180+404547027+407091466+409254407+411294786+413144026
1080+414711834+416222204+417831108+419433247+420863402+422157714+423444370
1067+424744752+425987360+427100279+428230181+429419973+430450395+431443507
1053+432671053+434048002+435375196+436542769+437529088+438505607+439617829
1040+440799351+442004791+443233088+444546222+445913593+447097983+448217305
1026+449538486+450928604+452328021+453810409+455118837+456058910+456999790
1013+458315708+459765743+461046997+462247118+463475082+464815557+466217452
999+467472479+468606892+469751161+471016322+472431276+473766656+474793987
986+475629761+476685046+478078784+479361708+480228444+480975346+481781607
972+482406504+482707480+482474383+481251209+478441571+473091866+464132192
959+451666067+438364946+428868219+427136307+433942507+446568809+460861928
945+473726563+484127557+492039158+497565272+501398288+504526387+507414652
932+510075389+512566286+514931168+516949078+518585324+520096612+521662249
918+523369604+525205090+527000538+528497906+529784561+531261436+532922684
905+534481138+535862569+537219165+538675659+540160330+541532407+542718273
891+543980816+545590110+547331656+548944012+550401454+551767794+553049382
878+554359982+555814194+557251867+558709475+560178109+561549517+563084416
864+564783028+566322103+567491709+568447875+569688033+571234459+572608317
851+573783547+575251067+576936427+578374434+579654240+580973638+582426513
837+583946377+585135529+585887442+586532774+587236910+587654157+587230673
824+585120104+580516131+574839055+572129705+575293277+583036486+591663304
810+598472955+602944732+605945815+608226669+609919044+611310388+612890614
797+614615176+616246298+617857596+619472236+620820201+621795578+622888116
783+624289092+625673308+627039426+628459725+629957036+631570841+633156747
770+634647154+636172753+637655587+638979774+640555601+642568833+644579782
756+646344214+647971996+649568538+651137015+652772536+654531233+656223831
743+657732725+659256153+661044808+663054699+665064646+666890387+668600972
729+670470203+672534832+674601633+676505166+678149653+679659828+681471314
716+683735462+686018989+687978541+689862306+691900874+693868890+695620682
702+697255090+698936496+700918155+703198786+705284408+706963475+708784149
689+710948232+713161986+715572140+718186268+720598482+722758500+724879316
675+727020567+728695347+729396197+730499259+734561752+738504689+740923809
662+742751554+744676526+747190533+749935019+752509388+754973668+757290049
648+759483923+761740331+764082940+766660539+769578150+772411676+774947010
635+777447207+780132278+782825478+785251002+787728033+790541736+793332497
621+795677834+797783058+800285036+803275149+806356362+809247857+811956872
608+814635037+817208738+819677417+821973251+824013434+826367402+829383965
594+832618869+835405732+837613917+839952683+842729968+845768582+848865610
581+851501343+853650892+856013714+859083512+862614102+866119634+869275187
567+872071126+874903539+877865197+880808367+883723862+886885261+890306709
554+893280450+895772406+898506201+901512963+904295371+907151060+910349212
540+913496077+916646117+919445564+921907394+924800337+927545603+929718372
527+932309670+935660064+938749128+941414876+944504052+947820200+950868837
513+953833836+956676885+959102297+961457769+964097456+966614525+969140950
500+971574492+973229447+974617561+976357046+978269822+980180483+982249400
486+984851890+987883488+991225585+994759461+997616097+999778230+1002448322
473+1005429580+1007164054+1007846862+1008764661+1010405138+1013081689
461+1016393939+1019257814+1021025253+1021932917+1023265791+1025740874
449+1029043435+1032396446+1034310336+1034738108+1035641317+1037324226
438+1038587494+1039776924+1041897516+1044224700+1045510910+1046323910
426+1047548644+1048431027+1048553088+1049210838+1051773458+1054979238
415+1057205855+1059498069+1062845623+1065931569+1066598117+1065411138
403+1065198199+1067921302+1073741823
##END=
