##TITLE=павел 1-многокр
##JCAMP-DX=4.24
##DATA TYPE=INFRARED SPECTRUM
##DATE=2/2/2015
##SAMPLING PROCEDURE=Instrument type and / or accessory
##ORIGIN=Default
##XUNITS=1/CM
##YUNITS=TRANSMITTANCE
##RESOLUTION=4
##FIRSTX=3996.3347
##LASTX=399.24773
##DELTAX=-1.928733
##MAXY=1.1495334
##MINY=0.19304034
##XFACTOR=1
##YFACTOR=1.0705864e-009
##NPOINTS=1866
##FIRSTY=0.32788056
##XYDATA=(X++(Y..Y))
3996+306262588+307581997+308229160+308085241+307038360+305238618+303966060
3983+304568934+305938060+306079947+305731423+305708736+305583495+306154329
3969+307524318+307780756+305955403+304023015+304032591+304824676+305117665
3956+305496671+305927120+305710907+304676693+303932210+304806053+305957685
3942+305197836+303855768+303891261+304170637+304019369+304157358+304438265
3929+304876287+305423709+305484366+305322269+305194913+304586110+303761121
3915+303341055+302953781+303143159+304796393+306394816+306615288+305896972
3902+304155354+302453599+302682590+303816907+304146947+303473672+302623101
3888+303002692+304538619+305280179+304888173+304473285+304407839+304974052
3875+305687746+305764021+305472090+305146281+304999829+304732228+303611801
3861+302481353+302718194+304065105+304698294+302759282+300652660+300619255
3848+301524749+303004947+304704224+305625168+305328588+304338051+303876869
3834+303619735+303038212+303170579+303894601+304082281+303730723+303130604
3821+302513478+302794134+303603756+303297100+302199221+301615388+301151033
3807+299979803+299387980+301148332+303827430+304243098+302811393+301625075
3794+301327466+301598129+302145356+302430077+302142517+301781299+301515313
3780+301505458+302087538+302022705+300484160+299104595+299361033+300519764
3767+301511165+302248744+302394250+301538056+300343053+299724116+299631585
3753+300299821+301358449+301379466+301117294+301041242+300524107+300157182
3740+300013625+299923265+300088535+300287016+300689322+301010259+299892254
3726+297975567+297726589+298306859+297813943+297496012+298031436+298326151
3713+297798437+296735662+296290013+297097659+297875825+296953601+295129751
3699+294624892+295173484+295261756+294939705+294905772+294313448+292642119
3686+291753244+292134727+292066860+290723762+289687042+290041523+290194295
3672+289773839+290240616+290716942+289977107+289157770+289110140+289586493
3659+289988604+289592005+288822803+289213138+290617033+290777015+289003579
3645+287036199+285417845+284225877+283604964+283086019+282216240+281129079
3632+280114434+279148505+277969007+276488727+274909958+273568279+272838188
3618+272854807+272563238+270951510+269059542+267920603+266853819+265568929
3605+264183129+262698394+261529725+260592051+259395906+258281520+258200541
3591+258821760+258600731+257181944+255299357+253220823+251288046+249902607
3578+249011533+248409104+247794538+246678732+245126715+244013748+243790270
3564+244024883+244130944+243142411+241121305+239996035+240125145+239592114
3551+237732856+235552660+233692900+232440566+232387619+233054992+232702808
3537+231055753+229370464+228168641+227038666+225962849+225520749+225356397
3524+224269974+222347260+221191452+220940818+219837971+217813316+216131743
3510+215078377+214754002+214970549+214931938+214516716+214080880+213160785
3497+211393320+209524415+207838820+206266593+205602240+205539299+204676368
3483+203464593+203070040+202964495+202246958+201119516+200066233+199262067
3470+198996025+199148797+198615071+197082484+195908748+195309075+194301905
3456+193394295+192977723+192403549+191683632+191064571+190621455+190564904
3443+190671479+190039125+188921719+188748250+188953940+188040248+186501063
3429+185548969+185146190+184781896+185021632+185992530+186013895+184365059
3416+182568170+181652752+181457487+182160422+183185715+183176013+182164640
3402+180971919+180312716+180637982+181470848+182171460+182607546+182747763
3389+182555462+182179004+182258744+183376248+184718552+184975811+184731984
3375+185271458+185968938+185959167+185714170+185610671+185911997+186559675
3362+186768010+186870424+187804507+189084136+189647662+189546556+190021337
3348+191573577+192958139+193268414+193219240+193711001+194647242+195500012
3335+196072432+196355302+196756731+197854985+198934950+198977973+198567872
3321+198873527+200115617+201412964+202081688+202691647+203766921+204717220
3308+205006701+205067150+205540649+206578872+207529700+207864375+208366464
3294+209349151+210023902+210333356+210721492+211159653+211489414+211906446
3281+212593181+213535017+214562759+215264678+215725944+216418886+217439919
3267+218535125+219259162+219546764+219967275+220797066+221522759+222042747
3254+222801496+223514941+224054944+224952087+225919367+226281183+226509352
3240+227477648+228835263+229893445+230904889+231978256+232870417+233606437
3227+234086688+234584977+235497625+236273759+236426113+236371636+236615936
3213+237348199+238729963+240409002+241471416+241963748+242700965+243777687
3200+244627229+244989727+245589010+246791836+247680544+248011475+248309474
3186+248405764+248509987+249305217+250564831+252005666+253454435+254211806
3173+254393250+254804464+255682734+256700413+257390863+257766083+257929043
3159+258177687+258997748+259857756+260571590+261704906+262725368+262992412
3146+262913605+262853086+262832515+263216615+264104043+264981171+265546464
3132+265676688+265443744+265303221+265617450+266123283+266332202+266386597
3119+266593623+266976916+267219241+266847834+266366943+266585495+267232185
3105+267973912+268993456+270022799+270615874+270776078+270645605+270424325
3092+270257691+270019264+269768783+270030371+270890212+271515857+271391647
3078+271132731+271463634+272258503+272671693+272122517+271541579+271785128
3065+272075249+271982244+271772740+271774745+272315179+272804254+272805368
3051+272689564+272482371+272032435+271916854+272613819+273170928+273009026
3038+272784184+272608474+272484125+272614459+272669438+272583838+272751002
3024+272967855+272652262+272061859+271771348+271544863+271044876+270440471
3011+269958578+269724215+269574589+269185144+268645906+267940785+266500479
2997+264172049+261452003+258575455+255145472+250664684+245203379+238803342
2984+230730488+220763522+210287201+200698045+192301914+185986684+183611237
2970+186034217+192290919+200653004+210042942+219725981+228527075+235525156
2957+240707447+244725244+247818896+249750420+250732969+251077317+250847297
2943+249837078+247878663+245682739+244181079+243600558+243574113+243559415
2930+243440382+243406198+243617288+244177460+244948611+245813741+246769983
2916+247593079+248007912+248142422+248380348+248572287+248480563+248547205
2903+248749889+248680101+248527162+248087053+247229272+246569638+246001059
2889+245193413+244622329+244683405+244997911+245094785+245508839+246813103
2876+248615463+250278384+251160384+251350597+251881734+253191399+254756027
2862+255868771+256259079+256322492+256633798+257525290+258911230+260278630
2849+261286426+262046999+262618751+263033445+263452537+263805765+264178396
2835+264743551+265002633+264697229+264470689+264931704+265879149+266534385
2822+266756583+267008512+267352331+267554430+267422036+267233243+267383648
2808+267542794+267518993+267601893+267670735+267605178+267677416+267879599
2795+267963974+267995096+268205770+268580433+268941957+269143611+268969572
2781+268550647+268532441+268976754+269289312+269308575+269094422+268801406
2768+268918212+269432758+269804665+269701611+269304650+269192800+269536647
2754+269936865+269987835+269605183+269118947+268925505+269101187+269358905
2741+269367925+269041865+268637611+268515934+268508418+268355117+268346989
2727+268503407+268289588+267610077+267062460+267149174+267697041+268234108
2714+268554266+268537535+268349828+268449681+268755781+269077414+269416696
2700+269500625+269398741+269429891+269589315+269793781+269798123+269506583
2687+269342008+269609414+269989450+269997884+269791526+269689335+269686245
2673+269800434+269568465+268789519+268217517+267934633+267607544+267659934
2660+268178962+268320961+267843382+267697487+268226982+268684183+268574559
2646+268194523+268210223+268901092+269957520+270720209+270763468+270297749
2633+269751162+269507223+269467749+269294601+269291038+269757731+270228517
2619+270232359+270045319+269850486+269515602+269410210+269655318+269908220
2606+270082538+270128804+269995240+269704868+269438214+269508086+269827269
2592+269915180+269567268+269068450+268733121+268656373+268712466+268752718
2579+268910361+269225202+269256130+268685575+268030728+267997295+268354700
2565+268457002+268434843+268591039+268670014+268731451+268996964+269216907
2552+269235641+268999914+268525593+268178322+268369147+269018148+269412464
2538+269220860+269024717+269205521+269283661+268808170+268312860+268329535
2525+268337273+268060820+268004032+268110928+267984963+267890929+267978895
2511+267962387+267953591+267938865+267716695+267707564+267991366+268014582
2498+267760566+267643454+267771813+267981372+268145474+268199979+268241763
2484+268367282+268401940+268172476+267674521+267292481+267400935+267643594
2471+267663525+267614754+267622799+267650163+267675746+267742973+267891541
2457+268064356+268060681+267711600+267240369+267124287+267505715+267976946
2444+267970822+267564090+267388046+267467355+267343507+267060484+266978948
2430+267122422+267283406+267337967+267328419+267450374+267412209+266849727
2417+266371704+266373624+266423732+266387905+266413682+266414462+266365357
2403+266467687+266714994+266917316+267076129+267155604+266953310+266618788
2390+266641921+267013828+267012826+266097144+264775425+264008282+264050873
2376+264564696+264858575+264402654+263870515+263987905+263935571+262897598
2363+262100447+262518453+263095828+262490616+260819009+260445932+261793763
2349+262813474+262852168+262387701+261594029+260992408+261483153+261901465
2336+261089477+260529611+262136719+265221463+266857911+266353359+265621792
2322+265405357+265299797+265241228+264971455+264568454+264672454+265329973
2309+265802735+265703217+265473530+265561246+265992586+266487953+266551561
2295+266207964+266111869+266471306+266768080+266620848+266379192+266549278
2282+266977445+267232742+267291395+267382368+267487621+267330701+267023043
2268+266854849+266710958+266586385+266672821+266909522+266905207+266511252
2255+266404997+266936635+267437319+267481357+267337995+267247328+267206575
2241+267310993+267561028+267583465+267295320+267056754+266924582+266813399
2228+266867654+266938389+266674268+266300774+266289834+266605844+266934603
2214+266956094+266639638+266453601+266514370+266541011+266587471+266647433
2201+266506743+266266172+266118105+265973406+265856963+265872078+265778990
2187+265587358+265641334+265729384+265490205+265286881+265585103+266166375
2174+266468995+266248996+265795024+265514173+265469856+265422560+265209966
2160+265037820+265210412+265660542+265843378+265494770+265285211+265515259
2147+265425511+264829735+264430909+264475727+264561494+264512862+264683756
2133+265163700+265409254+265136114+264704913+264485721+264568593+264786253
2120+264808106+264637518+264607259+264706889+264716604+264746669+264827898
2106+264757386+264584070+264460361+264445357+264502869+264502563+264387399
2093+264212163+264155458+264283121+264517873+264795774+264899134+264660039
2079+264265945+264167234+264361455+264404185+264433470+264590612+264603417
2066+264601469+264667666+264613856+264568120+264608372+264536357+264368025
2052+264318558+264421834+264501115+264530344+264643336+264788091+265106745
2039+265733281+266057670+265784168+265497415+265448477+265470274+265559799
2025+265716300+265875140+265974408+266008481+266007396+265968006+265977081
2012+266109893+266331089+266545604+266584910+266499338+266684317+267148589
1998+267306344+267143439+267213033+267479520+267586332+267525786+267567959
1985+267839958+268047709+268106585+268330509+268556381+268378723+268031368
1971+267801710+267728303+268059985+268516546+268600504+268718256+269080420
1958+269268100+269332738+269516103+269706733+269765331+269736491+269745288
1944+269825905+269997300+270205524+270250676+270206665+270344070+270540546
1931+270611671+270800297+271097238+271110545+270945079+270943353+270947195
1917+270850349+270907861+271069874+271157506+271364282+271761438+271942966
1904+271724136+271491722+271472486+271464497+271525322+271839132+272117562
1890+272175826+272288372+272470262+272434880+272260173+272324839+272621279
1877+272775331+272642965+272340901+272105898+272163911+272403480+272678262
1863+273041624+273198460+272862462+272508956+272561067+272760689+272883034
1850+272949371+272911428+272832259+272964820+273214884+273340876+273393071
1836+273404373+273359666+273310032+273377454+273568920+273697194+273703513
1823+273658946+273635451+273602241+273451724+273270948+273349561+273710361
1809+274016044+274069102+273875910+273693965+273821293+274107768+274292803
1796+274180702+273853974+273862743+274187912+274368270+274492564+274691991
1782+274784968+274651905+274334420+273966632+273793734+274019579+274365765
1769+274413673+274272593+274233147+274429651+274744269+275020500+275309062
1755+275477395+275453872+275519179+275792041+276011622+276093436+276147942
1742+276163976+276048256+275654886+275269839+275672284+276591113+277157047
1728+277350656+277308677+277345116+277640916+277907849+277917731+277848527
1715+277905176+278058449+278197190+278118411+278048929+278367500+278691248
1701+278772868+278785144+278752630+278878900+279067610+279117466+279129047
1688+279103381+279192572+279475734+279558299+279370286+279128991+279095725
1674+279215621+279260718+279337354+279382144+279178430+278840874+278562027
1661+278274328+277768022+277136670+276922795+277338045+277095276+276354356
1647+276161053+276244760+275808465+275121605+274555671+274244867+274313792
1634+274432936+274356578+274374032+274600796+274947928+275613018+276558877
1620+277217064+277746197+278681784+279653030+280403971+281156555+281839294
1607+282411798+283158369+284089613+284825661+285346777+285883036+286427201
1593+286936625+287516283+288270871+289095164+289728492+290115097+290486448
1580+291015442+291746925+292421035+292659017+292803576+293184447+293631571
1566+294002699+294242908+294173899+294096010+294719595+295574175+296079674
1553+296215493+296157619+296265182+296517918+296782234+297027565+297450554
1539+298046914+298117871+297892222+298017685+298399140+298605248+298638792
1526+298627073+298815003+299277966+299466927+299296924+299268335+299355605
1512+299224547+298812887+298524631+298974344+299579724+299708583+299659951
1499+299644028+299759804+299877222+299734750+299436918+299227386+299065066
1485+298739675+298238797+297652458+296917162+295918885+294788548+293693871
1472+292453410+291212531+290606622+290961437+291914422+292935553+294071764
1458+295514408+296818367+297581779+298455762+299798665+301276356+302352633
1445+302845355+303021315+303014077+302878899+302909965+303105467+303164705
1431+303158080+303219795+303201590+303003415+302757250+302631842+302684789
1418+302671427+302479544+302400708+302501702+302640333+302872663+303349044
1404+304032257+304643817+305127909+305846058+306867105+307716256+307929519
1391+307352672+305930572+303537893+300447526+297461911+295697328+296110768
1377+298386419+301345198+303878678+305188455+305654926+306488600+308389698
1364+311340878+314621709+317219020+318994989+320254659+321103504+321553356
1350+321568527+321290849+320969188+320661140+320519698+320848152+321785130
1337+323113808+324386199+325345420+326043219+326557320+326797084+326645815
1323+326203925+325726235+325373897+325225274+325349651+325696393+326084669
1310+326398146+326747422+327325298+328126987+329039440+330062659+331170169
1296+332339813+333759547+335408633+336829342+337766432+338570069+339680892
1283+340973298+342090496+343124543+344241184+345217998+346034440+346982554
1269+347981136+348842007+349699315+350576777+351306840+351911079+352599748
1256+353504045+354538259+355413161+355981210+356456283+356982576+357531613
1242+358178665+358950429+359665515+360181092+360633171+361198659+361856902
1229+362542648+363163171+363601165+363934434+364356253+364911414+365580430
1215+366316284+366938115+367515768+368293601+368982771+369285892+369538154
1202+369992794+370483289+370875518+371316935+371924458+372400867+372556617
1188+372705352+373078930+373555033+373922709+374073532+374063900+373747194
1175+372601408+370387306+367279429+363430466+359300762+355903850+354202290
1161+354547474+356596611+359510907+362506404+365309767+367852406+369921559
1148+371344494+372056407+372111553+371666406+370605161+368702921+366123899
1134+363383699+361273514+360640408+361971063+365116492+369277652+373374647
1121+376481020+378307598+379207886+379646631+380044177+380691452+381654124
1107+382899457+384403734+386218146+388405051+390941315+393772655+396738951
1094+399484246+401847584+403971938+405855888+407523988+409262655+411046085
1080+412524389+413787761+415220439+416859783+418443173+419798742+421019133
1067+422124945+423007975+423891032+425113511+426583881+427944517+429082982
1053+430152439+431199069+432188047+433174131+434141396+435194568+436556401
1040+438035039+439287832+440339389+441433510+442714837+444113359+445480564
1026+446651933+447663794+448836583+450287301+451840793+453293599+454518137
1013+455590572+456642213+457686699+458794822+460148832+461769441+463331285
999+464626141+465896138+467248784+468471513+469569587+470776449+472106853
986+473367274+474572800+475921465+477338722+478463296+479231608+479998973
972+480950789+481797157+482028263+481349253+479550123+475909996+469315209
959+459589078+448913915+441283244+440168969+446172184+456672138+468251320
945+478654650+486902421+493063446+497601496+500964809+503668542+506143731
932+508466705+510528286+512445558+514276199+515938258+517539798+519269502
918+521221069+523163005+524738824+526009043+527351752+528879523+530328737
905+531635201+532988933+534536023+536259213+537877734+539238091+540484705
891+541786548+543285145+544977881+546631644+548074790+549365275+550629370
878+552088662+553779282+555319134+556639907+557987904+559286239+560502232
864+561801681+563142107+564430421+565742118+567127418+568578246+570043940
851+571476507+573061401+574823451+576423099+577662308+578663507+579907727
837+581550076+583037483+584199026+585390689+586667534+587651251+587784703
824+586309489+582695306+578220837+576227179+579179000+585864314+592994525
810+598546802+602182476+604452614+606299903+608153594+609946823+611633044
797+613099573+614440723+615970498+617632501+619211215+620836083+622525144
783+623843745+624799068+625872811+627162183+628678151+630457962+632303970
770+633999434+635510169+636999302+638616152+640473296+642470850+644315467
756+646055025+647883551+649701054+651346299+652922340+654644138+656467096
743+658253811+660072093+661939759+663745514+665490417+667320891+669328523
729+671410481+673515934+675574285+677398859+679091427+680923127+682871688
716+684734566+686587143+688706348+691067069+693244453+695054384+696798508
702+698594742+700490078+702584452+704638906+706449728+708204708+710287055
689+712619828+714806900+716974263+719325575+721682622+723967681+726241939
675+728516977+730529676+731822444+733330617+737097683+740624679+742895375
662+744801456+746885418+749466778+752121462+754392213+756503679+758814905
648+761325280+763834653+766259456+768708255+771366725+774126356+776881756
635+779733195+782611246+785262200+787593469+789775753+792002075+794533495
621+797196642+799653736+802435582+805736705+808873756+811616016+814241694
608+816857183+819189788+821314003+823578964+825957223+828615693+831589282
594+834387161+836997751+839799639+842582208+845092917+847870643+850883093
581+853500698+856041026+858772764+861508900+864444073+867612135+870615621
567+873544559+876735836+879803627+882520166+885097072+887861881+891167793
554+894583774+897308942+899569282+902508687+905995319+908939122+911466255
540+914232233+917278589+920184255+923287900+926856152+929783865+931825570
527+933902071+936381825+939211328+942316978+945295912+947877439+950624989
513+953946991+957348607+960215301+962965634+965980089+968559500+970729369
500+972667073+974125641+975875276+978247355+980518774+982322079+984214687
486+987147188+990665611+993843526+996903411+999744606+1002320343+1005111764
473+1007546088+1008645998+1008898316+1009755931+1012020891+1015160391
461+1018160593+1020831645+1023361952+1025246877+1026549221+1028364441
449+1031072907+1033749081+1035308309+1035449055+1035390262+1036432716
438+1037909545+1039353748+1041645433+1044412803+1045999645+1046098189
426+1046062446+1047051341+1049089928+1051592509+1054470115+1057578882
415+1060510938+1063235772+1065002667+1064902341+1063747089+1063618592
403+1065700383+1069502412+1073741823
##END=
