##TITLE=павел 1-многокр
##JCAMP-DX=4.24
##DATA TYPE=INFRARED SPECTRUM
##DATE=2/2/2015
##SAMPLING PROCEDURE=Instrument type and / or accessory
##ORIGIN=Default
##XUNITS=1/CM
##YUNITS=TRANSMITTANCE
##RESOLUTION=4
##FIRSTX=3996.3347
##LASTX=399.24773
##DELTAX=-1.928733
##MAXY=1.1449072
##MINY=0.19124328
##XFACTOR=1
##YFACTOR=1.066278e-009
##NPOINTS=1866
##FIRSTY=0.32888785
##XYDATA=(X++(Y..Y))
3996+308444762+308548316+309445758+309832780+309935468+310064149+309745884
3983+309090040+308584260+308530288+308869628+309365877+309923142+310365560
3969+310055960+309234932+309087050+309107705+308527465+308890283+310466264
3956+310560902+308824628+307612247+307141823+306922752+307659175+308719872
3942+308890562+308563912+308316640+308001840+307987418+308754530+310004951
3929+310733157+310103251+308751847+307791378+307410812+307370397+307345298
3915+307636088+308660032+309780178+310029994+309631513+309959449+310640279
3902+309472059+307154065+305885085+305854983+306578633+307451507+307978390
3888+308524363+308698267+307886827+307396223+307731537+307326376+306158016
3875+305571656+305674791+305700616+305764957+306811344+307739838+306632996
3861+305158473+305234189+305947665+306175037+305690610+305606118+306197174
3848+306495231+306487768+306950814+307625020+307601654+307065716+306417418
3834+305546305+305002345+305532498+306533997+306815788+305973435+304093052
3821+302411504+302506338+303647922+305123284+306563652+307065911+306171040
3807+304531669+303700273+303977060+304557607+304981019+304758846+304220755
3794+304582342+305837347+306627657+305732172+304307567+304396811+305525902
3780+306501492+306588555+305646869+304654621+304087210+303832811+303789125
3767+303854248+304127067+304619432+304634245+303435783+302465867+303285664
3753+304573650+304272518+303703403+305071633+306621005+306168022+304701017
3740+303210759+302448398+303537213+304755352+304170781+303127105+302870944
3726+302586163+301583406+301093920+301387980+301681398+302374611+302881202
3713+301928894+300635598+300355485+300031657+299387972+299326315+299441720
3699+299079881+299310607+300334215+300452247+298565883+295503444+293127231
3686+292598950+293810857+295303966+295316013+294117243+292864530+291874881
3672+291458400+291649913+291760902+291908812+292705244+293647881+293828493
3659+293402425+292920262+292006693+290408184+289204635+289133391+288925891
3645+288507342+288631216+288693013+288093433+286931193+285573697+284405141
3632+283428293+282480597+281444021+280273341+279205656+278288425+277094491
3618+275656023+274523355+273518054+272323421+271195169+270159906+269065613
3605+268185612+267131790+265352642+263727553+263037666+262777789+262532137
3591+262114035+260816938+258335773+256106156+255058260+253695928+251289529
3578+249995841+250452067+250422608+249342150+248249143+247290574+246605495
3564+246543642+246268196+244729109+242540439+241387423+241119776+239920754
3551+238113069+237309566+237116433+236500055+235290217+234036009+233507211
3537+233486416+233032105+232069093+231204813+230451075+229694305+228970222
3524+227545366+225135179+222895054+221521164+220329536+219002211+218010046
3510+217083704+216077062+215572301+215325322+214621168+213553203+212763214
3497+212492953+212328650+211283688+209469756+208573223+208041085+206315628
3483+204624047+203828328+203143403+202099280+200881001+200387337+200616987
3470+200446283+199480489+197906619+196262859+195293796+195030159+195035553
3456+194978298+194404207+192838470+191013093+190279353+190236995+190146186
3443+190350485+190322507+189544998+188533213+187505636+186576569+185731686
3429+184897006+184641558+185131449+185659604+185290414+184134729+183849585
3416+184444525+183920465+182173459+180975864+181231968+182396443+183384764
3402+183895632+184337226+184268651+183074563+181612464+180958046+180961637
3389+181225414+181815911+182327840+182301009+182231148+182528478+182868209
3375+182968759+183233332+184090373+185281959+186445344+187070513+186679983
3362+185894271+185805041+186616887+188097209+189682721+190380601+190400921
3348+190423197+190334372+190735145+192039859+192865456+192664384+192937748
3335+193798744+194334039+195235576+196659915+197700950+198224590+198468788
3321+198503516+198643671+199523337+200735690+201299704+201664492+202312356
3308+202906094+203639135+204457731+204744734+204730075+205282951+206567345
3294+207844793+208738937+209520947+210104134+210371978+210940031+212166750
3281+213191057+213669950+214279075+214823315+215223361+215947165+216543727
3267+216936101+217778133+218814136+219528185+220100556+220596415+221037897
3254+221839401+222885131+223524443+223800573+224451372+225733348+227205649
3240+228582948+229715966+230236574+230281601+230763499+232060512+233413062
3227+234227619+235004933+236253732+237395093+237759028+237825493+238391478
3213+239343618+240246203+241012644+241553893+241910729+242567355+243833288
3200+245024763+245524227+245929779+246583471+247308322+248486493+249925715
3186+250940742+251827536+252749685+253271202+253657245+254412702+255171373
3173+255429127+255912911+257152571+258222380+258711419+258970514+259001595
3159+258845662+258875233+259330732+260045159+260905930+261782270+262592174
3146+263523379+264417551+264900720+265120909+265632532+266425749+267002243
3132+267285039+267575970+267723349+267065242+266333319+266949893+268070095
3119+268287629+268236453+268631692+268824182+268821248+269386618+270324755
3105+270968664+271163278+271246262+271393474+271618218+271941123+272007197
3092+271993585+272433712+272844910+272772240+272803097+273324613+273834279
3078+273953429+274117299+274667353+274986736+274652595+274254561+274307386
3065+274769202+275367050+275726932+275604484+275314196+275466859+276004195
3051+276266281+276182235+276441554+276843138+276477162+275540870+274839216
3038+274980084+275754463+276012552+275389885+274268285+273119350+272782526
3024+273468388+274417956+274771103+274268201+273468220+272883816+272391060
3011+271767331+271025597+270369894+269855644+269095604+268050726+267046739
2997+265808029+263840722+260844860+256749730+251667662+245406278+237784127
2984+228651160+218052880+207208501+197378227+188754394+182126573+179355931
2970+181467390+187666600+196330288+206451814+217097078+226822974+234873652
2957+241035199+245599440+249289325+251591974+251985173+251373127+250398208
2943+249163774+248032755+247017588+245500805+243670536+242999096+243885219
2930+244839623+245091954+245514752+246419908+247005737+247077261+247140986
2916+247406091+247941303+248761995+249519268+249970491+250226344+250107473
2903+249217885+247939738+247366011+247490807+246930300+245623337+244942227
2889+244841887+244444607+244044253+244091237+244509339+245467181+246957244
2876+248529647+249827415+250809322+252016533+253689136+255037549+255689368
2862+256081924+256467380+256981183+257732866+258776850+260223535+261885294
2849+263433492+264491199+264751412+264738248+265016349+265334474+265571657
2835+266025060+266798628+267768628+268723870+269274986+269255309+268982966
2822+268829661+268939196+269225850+269604403+269923618+270050511+270227042
2808+270598999+271021098+271406666+271708496+271776275+271495379+271159533
2795+271037392+270975763+271027582+271203135+271338384+271639404+271732701
2781+271276811+271194191+271683230+271980812+272088447+272232277+272202650
2768+271798383+271217361+271042088+271674901+272790380+273572109+273529458
2754+273007159+272500735+272138086+272099375+272210169+272122294+271995933
2741+272013010+272155694+272241025+272223277+272317021+272488214+272472115
2727+272244854+272258550+272730148+273082707+272745800+272123971+271821134
2714+271634038+271596278+271916639+272158098+272107621+271972064+271973517
2700+272227665+272585507+272739399+272494279+272153179+272143089+272235854
2687+272247761+272636656+273303763+273559029+273380709+273156467+273012861
2673+272939380+272910117+272711226+272122378+271356747+270605092+269895109
2660+269696861+270214856+270781232+271090693+271590352+272215479+272478347
2646+272577737+272793873+272871854+272820454+272898238+273035416+273046261
2633+273022979+273305049+273829723+273939762+273526803+273177318+272978426
2619+272870009+273042823+273301750+273358181+273093776+272676260+272604988
2606+273007606+273602435+273939035+273486779+272612451+272508170+273214631
2592+273536222+273046037+272483434+272537406+272868304+272721148+272243485
2579+272025699+272072208+272088838+271974859+271778762+271689938+271753104
2565+271741924+271859230+272328089+272569771+272421973+272591740+273048413
2552+273229109+273335710+273574625+273576945+273170330+272518567+271955433
2538+271857469+272098649+272122769+271791591+271478357+271373685+271408846
2525+271579340+271812638+271837066+271603824+271522658+271692900+271600526
2511+271185890+271151344+271670457+271924046+271696226+271785778+272248152
2498+272372222+272111645+271845758+271626715+271518186+271537192+271421144
2484+271233964+271096115+270934677+270964555+271181697+271364965+271510611
2471+271476289+271369632+271662407+272104127+272063935+271792961+271763222
2457+271806712+271774877+271760791+271714813+271636554+271654050+271644855
2444+271386626+271022467+270829976+270912289+271150533+271180272+270938841
2430+270770471+270806247+270891270+270789561+270517972+270284144+270121615
2417+269996064+269796977+269743817+270175027+270452905+269997853+269589981
2403+269838595+270088439+270049504+270194173+270398542+270413747+270382611
2390+270331127+270383421+270595840+270546509+269893181+269050968+268649132
2376+268625766+268829158+268930783+267817261+266263081+266474969+266718496
2363+264571946+263157963+264662783+266669248+268041251+268512430+267825702
2349+267066583+266928287+266885384+266278034+266195274+266839630+267017699
2336+266954169+267191072+267259493+266743371+266290611+266531539+266784485
2322+266433379+266268810+266862717+267571414+267771702+267652832+267689278
2309+267972354+268619869+269330019+269474324+269582937+270111106+270389123
2295+270239983+270215722+270629017+271136223+271258336+271097512+270978698
2282+271015647+271127978+271056286+270735142+270586841+270740649+270741012
2268+270519230+270482252+270705711+270868016+270935208+270972046+270837998
2255+270751298+270824163+270820641+270836014+270929701+270877379+270746322
2241+270799679+270961005+271084404+271149863+271093432+271104360+271272814
2228+271186114+270776061+270530661+270537733+270511348+270397452+270164127
2214+269940584+270110938+270591145+270769716+270408576+270051852+269930047
2201+269709969+269554624+269644874+269797788+269894914+269782863+269514740
2187+269276579+269132497+269036042+268882150+268864877+269128864+269485616
2174+269756758+269706196+269315876+269019133+268983972+268994174+269084480
2160+269292762+269381894+269284656+269138143+269001217+268871585+268805624
2147+268784605+268796372+268949845+269182388+269346202+269399195+269347432
2133+269136550+268757606+268475620+268386599+268265437+268066294+268043375
2120+268333606+268625850+268628925+268425785+268298082+268329330+268202102
2106+267986805+268135610+268552314+268821695+268793102+268590997+268310520
2093+268005950+267883809+267924169+267912933+267956619+268163084+268300318
2079+268312365+268412621+268512038+268337827+267894989+267542933+267646683
2066+268038232+268319715+268449822+268520703+268546277+268649356+268833043
2052+268824825+268654778+268546752+268460806+268513548+268886622+269356376
2039+269658542+269740770+269602223+269419934+269359702+269370714+269571757
2025+270010934+270318857+270286939+270188303+270308963+270536531+270672116
2012+270741180+270791154+270808707+270795626+270767453+270660684+270500615
1998+270605511+271078031+271533474+271718978+271796818+271928713+272038193
1985+271992104+271872087+271942940+272143285+272183784+272118968+272034615
1971+271982796+272141803+272373396+272503391+272663823+273018870+273533678
1958+273838220+273738830+273566492+273610121+273666859+273470931+273155545
1944+272957492+272990501+273182572+273487869+273973078+274356634+274367115
1931+274185106+274129094+274280415+274401717+274467036+274641918+274784854
1917+274779627+274756261+274834549+275083638+275399751+275536342+275518314
1904+275543944+275691659+275855306+275711001+275312575+275252930+275676175
1890+276096653+276190956+276180530+276330342+276527863+276550754+276411927
1877+276400328+276594636+276653666+276562130+276659423+276807809+276774633
1863+276726727+276674377+276656153+276905522+277222194+277277171+277229601
1850+277272308+277299587+277347214+277492469+277422594+277134431+277040436
1836+277207604+277340394+277279072+277140049+277125431+277218560+277298050
1823+277348723+277415998+277664472+278162427+278561803+278552943+278268553
1809+278011945+277904059+277950903+278123856+278229954+278146496+277962893
1796+277830551+277897742+278066727+278106024+278041125+277900621+277647703
1782+277545602+277862609+278250944+278322943+278292953+278439354+278529716
1769+278417078+278390386+278540225+278736853+278815280+278828333+279002516
1755+279094387+278887838+278689059+278808460+279234863+279700871+279870331
1742+279746262+279745731+279931430+280087278+280344641+280554712+280614944
1728+280847459+281250887+281653868+281856197+281647272+281233949+281186910
1715+281481949+281598947+281546177+281657054+282034741+282313792+282174770
1701+282132398+282568639+282826644+282915776+283079451+283133226+282939674
1688+282499994+282305128+282691591+282982185+282956667+282870945+282850961
1674+282832318+282674681+282585493+282631219+282415614+282005058+281875371
1661+281946978+281680840+280936200+280101141+279904933+279915023+279549411
1647+279400215+279479369+279033345+278185430+277571008+277449734+277732558
1634+278080227+278225035+278405311+278812960+279225724+279655146+280288937
1620+280890697+281537401+282531550+283462839+284120024+284789982+285584457
1607+286325352+286857574+287391723+288192906+289104100+289766148+290239926
1593+290797330+291345511+291809143+292376637+293118091+293949404+294725823
1580+295268554+295687913+296186902+296557601+296810687+297254363+297801622
1566+298105241+298130089+298065720+298337700+299194000+299813928+300004183
1553+299946578+299740699+299720603+299956892+300212130+300336339+300612456
1539+301157310+301261927+301143112+301427977+301842026+301919419+301803399
1526+301667255+301621110+301886466+302367148+302611933+302659699+302733822
1512+302703972+302486857+302516009+303230491+303727104+303519549+303107875
1499+302804591+302730552+302759312+302592508+302211495+301887305+301614933
1485+301051073+300250589+299490185+298777938+297824401+296334254+294457644
1472+292850024+291931284+291650723+292131461+293345100+294631800+295692274
1458+297030932+298740905+299998006+300931895+301939962+303093369+304266677
1445+305150256+305641614+305736588+305524812+305252748+305012519+304835093
1431+304830565+304917210+304841465+304582929+304339290+304270673+304347899
1418+304362796+304286968+304242472+304243422+304288869+304458720+304831292
1404+305300766+305785081+306467672+307398039+308327288+308997554+309030228
1391+308153999+306445648+303946064+300692197+297271748+295001884+295150997
1377+297635711+301080029+303833538+305145895+305764314+306885076+309088643
1364+312403329+316253506+319431853+321484295+322880083+323866769+324356227
1350+324354578+323902461+323078583+322159200+321694198+322179743+323593699
1337+325357280+326810924+327644724+327968747+328086276+328155648+328158331
1323+328010644+327675553+327267569+326863945+326552080+326565971+326927056
1310+327358434+327767704+328445656+329470214+330480769+331404316+332523317
1296+333852780+335146803+336412149+337840387+339337214+340724673+341987560
1283+343249412+344617837+345788797+346622933+347620491+348925330+350085389
1269+351029899+352055743+353069708+353874189+354655080+355551404+356447896
1256+357287845+358042045+358588828+358993150+359536859+360374768+361413944
1242+362343500+362956161+363413757+363876858+364314469+364776201+365317953
1229+365839889+366352098+366987398+367717896+368432462+369039030+369452995
1215+369832862+370454802+371172331+371697174+372181628+372796358+373283356
1202+373483365+373682872+374058406+374494508+374963842+375456514+375818101
1188+376024008+376356332+376918096+377328260+377178253+376455526+375399776
1175+373885788+371405042+367673958+362909485+357968173+353988364+351761934
1161+351786837+354093875+357647979+361152669+364352872+367331125+369694762
1148+371293214+372283673+372546821+371874264+370209850+367569035+364256864
1134+361036928+358818883+358400222+360246003+363987344+368520252+372763824
1121+375981412+377818585+378414252+378457658+378806529+379612267+380521309
1107+381700318+383575586+385961526+388388999+390939871+393949568+397265037
1094+400412946+403202902+405798745+408257271+410447422+412320538+413922345
1080+415405420+416951774+418582341+420148121+421497233+422662630+423824310
1067+425196928+426762707+428200252+429410677+430542255+431606726+432562192
1053+433432662+434371778+435620661+437169196+438703615+440023464+441160660
1040+442204615+443271461+444396024+445575229+446845131+448145722+449408552
1026+450532249+451477485+452553303+453963905+455519874+457047110+458502208
1013+459822671+460907042+461869020+462978770+464252976+465571790+466895160
999+468248912+469567530+470734884+471927952+473292409+474701473+476057433
986+477237476+478253789+479337461+480437064+481391943+482326531+483140487
972+483590759+483829507+483827327+483085761+480953913+476270019+467736982
959+455798981+443396733+434558371+432757869+439168254+451370465+465111456
945+477401989+487118759+494182583+499286284+503278978+506561857+509333980
932+511747618+513970136+516070624+517892228+519554127+521270584+522943104
918+524548935+526232802+528010134+529666331+531156674+532574067+533889611
905+535328750+537004624+538712807+540355421+541831062+543128942+544318152
891+545526704+546955781+548556525+550171636+551689202+553071546+554441090
878+555958488+557527146+558785057+559840612+561119094+562577854+563996365
864+565368200+566793252+568274036+569805241+571306260+572580383+573828065
851+575355525+577050460+578586249+579874011+581214263+582728363+584211606
837+585404562+586301809+587208223+588218666+589224917+589950160+589765412
824+587723395+583241746+577826796+575239589+578354489+586014931+594422865
810+600937307+605219114+608127689+610369883+612028260+613321220+614714298
797+616225826+617767205+619417980+621061320+622615444+624055309+625335916
783+626526636+627776442+629231456+630817220+632372853+633855314+635328271
770+636844999+638349204+639869342+641530681+643368832+645216206+646925843
756+648640400+650516339+652306360+653734709+655190618+657034973+658927067
743+660598748+662183729+663792020+665542688+667557482+669609616+671454587
729+673238068+675135752+677076199+678944088+680814549+682756393+684684487
716+686612021+688574101+690503704+692482610+694579856+696672909+698626773
702+700392589+702252149+704351463+706371903+708210445+710096334+712260268
689+714578709+716738172+718670234+720528788+722718157+725338624+727944893
675+730333879+732325028+733606920+735222310+738858587+742126765+744526708
662+746812671+748936134+751087267+753361156+755599940+757921624+760484738
648+763064734+765461043+767920184+770546017+773204553+775918484+778682837
635+781296429+783727396+786027558+788335993+790955287+793733838+796417752
621+798858893+801034287+803640947+806966533+810318169+813247035+815848888
608+818453088+821246286+824037303+826424221+828579659+831034719+833526226
594+835896598+838593200+841560749+844462224+847192758+849909317+852660143
581+855294082+857991523+860688182+863063640+865519315+868578204+871878915
567+875035070+878177696+881315571+884544284+887755891+890743340+893744931
554+896780678+899634191+902341359+905130084+907865314+910527985+913576421
540+916968808+920227370+922936774+925454442+928373805+931297416+934133154
527+937413797+940776389+943453874+945638547+947840325+950402321+953657251
513+957300795+960588593+963066740+965233972+967787248+970563228+973405282
500+975738201+977161073+978720340+980849560+982856472+984613959+986889190
486+990158094+993597157+996630947+999496926+1002163119+1004838368+1007609318
473+1009927032+1011381990+1012259728+1013445584+1015589674+1018227023
461+1020263227+1021742222+1023996546+1027325710+1030399747+1032509291
449+1034482328+1036524010+1037863367+1038852121+1040434978+1042271731
438+1042957844+1042972490+1044464230+1046784628+1047994857+1048393086
426+1048678399+1049228452+1050525996+1052368451+1055244716+1058642860
415+1060783484+1062910245+1066491629+1069485842+1070608643+1072008820
403+1073736680+1073741823+1073334426
##END=
