##TITLE=павел 1-многокр
##JCAMP-DX=4.24
##DATA TYPE=INFRARED SPECTRUM
##DATE=2/2/2015
##SAMPLING PROCEDURE=Instrument type and / or accessory
##ORIGIN=Default
##XUNITS=1/CM
##YUNITS=TRANSMITTANCE
##RESOLUTION=4
##FIRSTX=3996.3347
##LASTX=399.24773
##DELTAX=-1.928733
##MAXY=1.1485078
##MINY=0.19364831
##XFACTOR=1
##YFACTOR=1.0696313e-009
##NPOINTS=1866
##FIRSTY=0.32687852
##XYDATA=(X++(Y..Y))
3996+305599253+306838704+308332511+308457110+307288401+305875841+305370002
3983+305411489+305242783+305144067+305093135+305612571+306932517+307040288
3969+305985173+306182577+307056977+306982975+306215565+305248105+304521597
3956+304590556+305833881+307226268+306956395+305930173+305873891+306373851
3942+306875204+307161823+307026635+306629626+306043739+305455734+305755894
3929+307081830+307743447+306928755+305948060+305763027+306193248+306601318
3915+306748988+306787187+306183803+305075666+304600559+304636501+304422770
3902+304554307+305589975+306349137+305806576+304903616+304694900+304876423
3888+305211160+305153039+304421265+304691334+305699724+305802842+305843382
3875+306424365+306573344+305626920+304433051+304203828+303697042+302213851
3861+301620609+302425549+303824149+304736303+303832898+303278774+304229907
3848+304888181+304918745+304083798+302607684+302425772+303561464+303748308
3834+302890792+302749531+303330681+303341854+303284876+303807711+304027237
3821+303436614+302296546+300729212+300004766+301283726+303083042+304070257
3807+304073934+303566201+303878899+304946524+305371061+305237879+304387245
3794+302515599+300702910+299560085+299107936+299857876+301043554+301197548
3780+300885408+301044947+301627073+302407215+303122495+303333078+302594032
3767+301540616+300827844+300530108+300821742+301015469+301173197+302360769
3753+303697934+304062093+304062734+303805760+302584503+300966765+300771340
3740+301439002+301100058+299948038+299899363+300196040+299711822+299050011
3726+298594017+298566043+298697804+298153292+297269808+297216369+297927775
3713+297964024+296816183+296067218+296656951+297609895+297097341+295139099
3699+294028789+294130821+294004744+293413173+292707172+291698670+291344346
3686+292225740+293215685+293485671+292553121+291130058+291179067+292607425
3672+293272329+292490013+291270650+291169901+291709676+291385387+289976533
3659+288750232+289097897+290441219+290599003+289341163+287907985+287014861
3645+287120681+287731115+287261581+285370933+283349444+282274881+282313358
3632+282683258+281929946+279720248+277845704+276541222+274810670+272628667
3618+271067685+270963508+271613172+271261355+269489178+267712904+266322161
3605+264800687+263621056+262917005+261941632+260702626+259655897+258977229
3591+258532882+257585705+255989951+254556634+253500543+252702374+251899858
3578+250984667+250328288+249443105+247514090+245365243+244379561+244246602
3564+244089403+243588273+242418672+241627384+241807124+241641845+240639640
3551+239005464+237308124+236296419+235101825+233437279+232440521+231954103
3537+231150165+229997741+228921911+228014716+226856246+225606917+224898255
3524+224038998+222077914+220158791+220153204+221563103+221511280+219246971
3510+217382945+216755251+215804536+214217196+212752255+212435796+213078870
3497+212758859+211315915+210107627+209065301+208044247+207364966+206575879
3483+205465249+204583729+203951284+202895877+201469330+200563515+200221227
3470+199676618+198810478+197755851+196469953+195108952+194113323+194095742
3456+194559676+194180234+193012736+191832659+190856143+190602360+191298902
3443+191545706+189971754+187739682+187107363+187766834+187721056+186932485
3429+186619007+186548906+185748076+184675003+184401438+184365760+183509595
3416+182601676+182793940+183229413+182857689+182544810+182904400+183342129
3402+183420046+182950261+182575765+183293970+184212838+183656917+182158723
3389+181454811+181470637+181189214+181042115+181808466+183175318+184486209
3375+185380475+185786651+185916823+186041716+186338811+186973290+187564624
3362+187825359+188241119+188535818+188466566+189030470+190454008+191746412
3348+192181648+192040400+192299045+193297335+194322457+194846866+195063523
3335+195302567+195672327+195996768+196391938+197242099+198298552+198902089
3321+199007102+199508400+200581082+201164308+201534806+202859990+204600238
3308+205639861+205846683+205757217+206441305+208144106+209632033+210175193
3294+209975463+209576712+209712206+210284121+210777881+211271865+212067917
3281+213274756+214548102+215604471+216712970+217591689+217768406+217812386
3267+218127829+218898373+220244815+221040700+221046760+221532887+222423503
3254+222966998+223414062+224402140+226262906+228202856+228530990+227309955
3240+227048189+228962840+231181942+232128228+232471421+233123063+234009068
3227+234671632+234882410+234960842+235539847+236682060+237826167+238865456
3213+239769029+240171833+240490605+241191424+241942311+242622011+243186472
3200+243654474+244625724+246088380+247469650+248639948+249185351+249024725
3186+248869365+248977499+249294265+249908794+251081014+252792313+254604947
3173+256234080+257070114+256856801+256505904+256797677+257779570+258803814
3159+259120440+259015121+259167444+259610091+260073468+260593573+261518989
3146+262810014+263853148+264201649+264146538+264292341+264582192+264994692
3132+265737499+265996758+265456843+265225893+265988455+267197425+267679219
3119+267605161+268458163+269894768+270163137+269267394+268546988+268443759
3105+268592655+269005044+269776995+270426714+270586170+270421894+270412114
3092+270988584+271637691+271761037+271756523+271847075+271857663+271740753
3078+271603643+271858973+272496711+272870344+272862710+272982044+273228374
3065+273317784+273339182+273197976+273044511+273330517+273505547+273137794
3051+273059501+273641097+274268750+274556595+274484376+274130219+273774167
3038+273551659+273246763+272817768+272485009+272439566+272700970+272988452
3024+273218455+273316446+272703756+271584613+270966322+270911657+270836651
3011+270706368+270800793+270835788+269971139+268216347+266761047+265844212
2997+264457731+262332985+259598863+255992235+251299008+245406033+238572680
2984+230752279+221277167+210558327+200326379+191776294+185396663+182809738
2970+185305554+191365423+199226671+208613292+218902705+228603947+236247325
2957+241383200+244750992+247416935+249777201+251252256+251315726+250099985
2943+248230679+246681817+245764676+244950764+244112083+243385408+242944070
2930+243355261+244461281+245379286+245784040+245869410+246072944+246640832
2916+247246752+247684942+248211622+248793775+249057798+248976551+248830804
2903+248852704+248968388+248931665+248530449+247732809+246875376+246210249
2889+245877323+245637095+245000638+244431524+244535199+245472736+247342738
2876+249339151+250387913+250662802+250960009+251517560+252373098+253499039
2862+254552148+255727266+257162004+258044735+258440992+259444339+260870914
2849+261751918+262150375+262753983+263688817+264335137+264395292+264364309
2835+264575143+264933423+265358322+265779460+266125035+266439767+266735107
2822+266857116+266761297+266813846+267306896+267686686+267343145+266746503
2808+266686905+267243899+267947978+268430357+268758713+268938286+268823716
2795+268896158+269547103+269995797+269539441+268643949+268126491+268238860
2781+268608090+268961160+269429413+269947902+270261965+270295037+270079913
2768+269831967+269763175+269798699+269864566+269885574+269747294+269603441
2754+269536376+269402582+269314064+269486113+269909452+270333459+270579288
2741+270791765+270803941+270373832+269996521+270052190+270165339+270042745
2727+269832329+269479147+268773871+268030562+267986484+268873199+269716144
2714+269557412+268851857+268462844+268532138+268904461+269491574+269915331
2700+269868327+269795217+270102899+270321228+270076709+269941466+270188269
2687+270295288+270274754+270424959+270481352+270303090+270187155+270189941
2673+269907780+269310107+269021566+269128780+269072749+268676603+268214007
2660+268042933+268107935+268121811+268194308+268376388+268543728+268919757
2646+269860024+270972898+271420532+271242381+270850666+270378791+270029789
2633+269844338+269682486+269425206+269336326+269909675+270862145+271332488
2619+271065512+270601856+270350511+270204847+270042884+269994181+270147367
2606+270310752+270372801+270336246+270044305+269591850+269429023+269483020
2592+269388929+269526290+269952917+269944363+269536571+269346412+269381072
2579+269298516+269314426+269651447+269865931+269776354+269721103+269934221
2565+270167373+270166230+270289353+270552874+270657999+270902323+271109144
2552+270640000+269930906+269700179+269790313+269851303+269817005+269701906
2538+269494193+269374441+269425513+269261710+268829456+268535537+268551781
2525+268685854+268658772+268613941+268783734+268866429+268621715+268382517
2511+268509012+268982754+269350870+269103843+268630380+268608034+268816973
2498+268906244+268919813+268860383+268786018+268749686+268855368+269317964
2484+269616954+269213704+268699841+268341783+267899637+267721681+267868598
2471+267928865+267888659+267903259+267927416+268076841+268493827+268805271
2457+268738485+268562675+268477778+268490456+268553480+268528098+268358890
2444+268275499+268508065+268763199+268756540+268705357+268564737+268090716
2430+267567909+267431635+267663310+267924908+267899748+267547013+267276052
2417+267255434+267072045+266763526+266870740+267433056+267850098+267634500
2403+267075583+266807214+266854302+266827414+266809973+267125875+267614969
2390+267782198+267486524+267120971+266887959+266324808+265071369+263971479
2376+263902548+263727155+262341956+260825944+260187759+260397116+261494665
2363+262652815+263746129+265754384+265899908+263934227+263627186+264585507
2349+265436810+266090960+266117847+265483312+265185047+265395825+265708746
2336+265806709+265440098+264979702+265274540+266054850+266098093+265599108
2322+265566676+265552299+265190006+265083991+265411233+265930223+266318817
2309+266545142+266703790+266709223+266709697+266854413+267102638+267487359
2295+267781055+267643444+267376551+267353286+267486468+267825914+268196899
2282+268090131+267613659+267280733+267304918+267501876+267517646+267460890
2268+267667238+267885929+267838591+267793398+267858707+267712486+267280204
2255+266934879+266932678+267168643+267445176+267829229+268465742+268879998
2241+268579058+268047307+267900278+268000080+268093781+268308265+268535788
2228+268436013+268195311+268127829+268093753+267802649+267315394+267148610
2214+267377109+267450609+267185862+266773529+266451804+266457014+266604795
2201+266520679+266362310+266423189+266560996+266615188+266505327+266347042
2187+266503850+266694484+266486213+266255821+266254957+266370056+266644192
2174+266763331+266429347+266099513+266094108+266106228+266000463+266014757
2160+266154987+266269557+266407335+266378247+265996117+265622874+265598188
2147+265817743+265930167+265769095+265491727+265355731+265545668+265817882
2133+265831089+265646251+265439903+265438120+265582084+265462165+265171868
2120+265039885+265096417+265345478+265560351+265455534+265268884+265289530
2106+265261139+265012914+264961369+265233667+265419953+265349128+265070450
2093+264708491+264572468+264741424+264987615+265166992+265235896+265244366
2079+265215528+265065824+264892326+264732091+264511031+264479603+264859337
2066+265450546+265889404+265957332+265734964+265505853+265481501+265601727
2052+265636889+265608219+265736134+265919551+265954546+265928467+265989402
2039+266121441+266224977+266376241+266652272+266831455+266797518+266738840
2025+266783448+266842516+266721900+266488693+266543387+266868651+267027744
2012+266928805+266774811+266887876+267367830+267812679+267955166+267945220
1998+267965726+267942545+267779133+267774341+268092611+268288984+268173857
1985+268135184+268234067+268333146+268636175+269001811+269068486+268977961
1971+268974200+269140398+269514727+269928788+270124632+270130929+270141349
1958+270133576+270138340+270382190+270685554+270633926+270347251+270197324
1944+270274921+270551844+270865935+271026282+271119091+271229007+271303762
1931+271236335+270973121+270872984+271170998+271394342+271319894+271340094
1917+271479043+271490411+271441401+271372888+271338339+271580935+272025700
1904+272280556+272344277+272462580+272522066+272557646+272762824+272873715
1890+272773634+272686119+272710025+272826350+272947244+272997702+272959698
1877+272940752+272970007+272839779+272686258+272905868+273323468+273540793
1863+273633742+273743268+273828276+273850259+273834294+273867144+274028020
1850+274217929+274126123+273799438+273807156+274157552+274327762+274220297
1836+273987202+273710028+273485459+273485375+273575900+273651880+274036462
1823+274585237+274817942+274768236+274718502+274776678+274743745+274539014
1809+274569356+274819531+274705128+274282486+274059532+274042007+274118935
1796+274414163+274842517+275154156+275253206+275212973+275060678+274896820
1782+275000830+275253346+275221889+274981689+274872357+274904761+274809054
1769+274660716+274850848+275330190+275691396+275768546+275832908+276108076
1755+276395196+276480232+276402189+276245409+276111893+276114233+276214565
1742+276296480+276395893+276520437+276699981+277143910+277583883+277658665
1728+277558556+277596727+277864455+278006135+277921294+277970527+278047817
1715+278006664+278094207+278211145+278315684+278590657+278816954+278747048
1701+278890733+279411506+279663576+279821053+280035091+280049078+279810131
1688+279385706+279085490+279285123+279666697+279807568+279736185+279560569
1674+279391613+279361689+279609858+279860144+279670068+279263892+278917732
1661+278647412+278326021+277663346+276808059+276605389+276829373+276751164
1647+276681620+276639910+276365996+276089296+275912733+275610902+275302495
1634+275113254+274896319+275058143+275865730+276749102+277237666+277430027
1620+277672958+278422118+279661040+280553719+281132891+281795594+282363009
1607+282817554+283321832+283962664+284838959+285770031+286532844+287183232
1593+287740003+288167967+288704956+289482786+290195642+290832600+291555235
1580+292015380+292219527+292728180+293457140+294103544+294652792+294904667
1566+295009568+295156430+295046207+294851728+295367793+296144480+296628197
1553+296841092+296870069+297030639+297246042+297331997+297353897+297546313
1539+297973302+298109242+298153041+298562951+299004818+299154745+299111057
1526+298864504+298690420+298977067+299427377+299638767+299772339+299940906
1512+299983256+299695328+299354433+299661085+300178487+300303226+300273469
1499+300183279+300076344+300067400+300010060+299710373+299381738+299275110
1485+299016325+298453480+297900610+297312020+296380000+295168801+293768974
1472+292208549+290952213+290359890+290676683+291841687+293160295+294385621
1458+295818492+297214725+298136853+299080603+300259650+301388488+302308862
1445+302984577+303321292+303250382+303029379+303081398+303300367+303335529
1431+303322016+303373450+303312404+303164650+303033865+302862038+302735544
1418+302770121+302830972+302745491+302622646+302768282+303116393+303510588
1404+304171480+305096841+305956976+306628484+307167507+307571342+307734169
1391+307412917+306143653+303586150+300303644+297271313+295429452+295741147
1377+298141116+301322093+303858643+305207315+305882082+306772727+308538217
1364+311322742+314613690+317539337+319691945+321101608+321926804+322326710
1350+322299684+321896796+321355460+320920419+320804540+321204865+322257110
1337+323743700+325160606+326100511+326497660+326665140+326790269+326748085
1323+326452161+326041499+325745045+325620696+325664634+325909655+326266626
1310+326595567+326960646+327533717+328286192+329203752+330319885+331529329
1296+332861869+334287412+335595823+336802732+337953749+338989109+340035058
1283+341275763+342626664+343801838+344684068+345449332+346352876+347387903
1269+348401615+349502312+350648008+351509759+352108100+352736143+353497423
1256+354264610+354970249+355650060+356196996+356592444+357103131+357935934
1242+358957948+359769325+360139725+360432557+361059904+361772508+362319500
1229+362842279+363306993+363735682+364367541+365188252+365992412+366622488
1215+367017463+367224926+367517981+368208212+368999834+369484497+369894825
1202+370409607+370786361+370938321+371208306+371900070+372736912+373231467
1188+373373759+373552719+373893335+374243619+374482509+374322692+373637476
1175+372547143+370718126+367652304+363533012+359194443+355672935+353895825
1161+354180076+356091091+359034681+362393502+365421319+367786879+369644427
1148+371077967+372029072+372401479+372105777+371042247+369074310+366372425
1134+363491385+361199744+360424394+361743392+364939665+369206794+373442663
1121+376622190+378383111+379099282+379398969+379695785+380117285+380872185
1107+382172265+383868406+385751866+387942228+390585992+393448586+396161811
1094+398693096+401249735+403798489+406141034+408253020+410105608+411712340
1080+413218851+414672647+416155280+417711916+419071649+420033035+420877456
1067+421986596+423302418+424616847+426016451+427409870+428407366+429212501
1053+430411608+431837152+432954595+433856830+434903837+436172516+437605248
1040+439021374+440229175+441281643+442268468+443225062+444222614+445322838
1026+446591573+448003436+449515269+451062682+452427904+453623946+454844173
1013+456048351+457221992+458484737+459776987+461046419+462443181+463941918
999+465397692+466825075+468179514+469281466+470217414+471444523+472959003
986+474285858+475398788+476495947+477606814+478656552+479541512+480391868
972+481328206+482081991+482269894+481636920+479744182+475762000+468883927
959+459130555+448362803+440423820+439009700+444955307+455875410+467988881
945+478556136+486936987+493331816+497909304+501269880+504100795+506583209
932+508779700+511013472+513387836+515411861+516868944+518251134+519920250
918+521826640+523710573+525283396+526595262+527945689+529443674+531008028
905+532596008+534075382+535377217+536743024+538332174+539990925+541433910
891+542685371+544114704+545739016+547211201+548481107+549748894+551009995
878+552331947+553835727+555314822+556779707+558376548+559942294+561351344
864+562651061+564021939+565467599+566799136+568042460+569356221+570893548
851+572623402+574343171+575910144+577286204+578544964+579752681+580991882
837+582326650+583614833+584694439+585715256+586802998+587591220+587514153
824+585927677+582457213+578277320+576449891+579405907+586049993+593216272
810+598941293+602906369+605528651+607529940+609376872+611065714+612621319
797+614046751+615341899+616693663+618167353+619645668+621041733+622553928
783+624216691+625700244+626920833+628151006+629677021+631323457+632834704
770+634255790+635679439+637208574+638814665+640600635+642613124+644492377
756+646207075+648109063+650135093+651915212+653452093+655025696+656750090
743+658531825+660452982+662622224+664664415+666409483+668165361+669996133
729+671781100+673621345+675621463+677600574+679445612+681263511+683104091
716+685013991+687087499+689263875+691416288+693514705+695533101+697424167
702+699237052+701235777+703440238+705455792+707143296+708776804+710749450
689+713122700+715577921+717870649+719947054+722021899+724321035+726714848
675+729144881+731306600+732468511+733524713+737072078+740775415+743318179
662+745568500+747806897+750120967+752385777+754512558+756686537+759117183
648+761727986+764285071+766631127+768936059+771641148+774485771+777072334
635+779798041+782900167+785796782+788176885+790530576+792992595+795413211
621+797705994+799866488+802486597+805617923+808563965+811253952+813968069
608+816698624+819326200+821966203+824586368+826929638+829137776+831526127
594+834230269+837100804+839889313+842614853+845323898+848122214+850794872
581+852978157+855130292+857820893+861005937+864257070+867499789+870894580
567+874065414+876917783+879883718+883055221+886172894+889416672+892788895
554+895556005+897698333+899789338+902431681+905847647+909461993+912886373
540+915902517+918404211+920653196+923189662+926324889+929364102+931920908
527+934841094+938372911+941417696+943761357+946350650+949333136+952259785
513+955199029+958252061+961002733+963443242+965825575+968020897+970313179
500+972395045+973913760+976064057+979211598+982081966+984095180+986031160
486+988416056+990831043+993386234+996446733+999360121+1001891126+1004836834
473+1007815976+1009444802+1010178694+1011401512+1013745060+1017034699
461+1019760741+1021030813+1021966427+1023384503+1025291507+1027787183
449+1030587450+1033239600+1035135236+1035919056+1036953637+1039120093
438+1040693195+1041446479+1043430604+1045999503+1046975016+1047077103
426+1048355980+1050911170+1053285813+1054813109+1056350659+1058286527
415+1060634646+1063732369+1066109018+1066222139+1065155907+1065025734
403+1066476688+1069240623+1073741823
##END=
