##TITLE=павел 1-многокр
##JCAMP-DX=4.24
##DATA TYPE=INFRARED SPECTRUM
##DATE=2/2/2015
##SAMPLING PROCEDURE=Instrument type and / or accessory
##ORIGIN=Default
##XUNITS=1/CM
##YUNITS=TRANSMITTANCE
##RESOLUTION=4
##FIRSTX=3996.3347
##LASTX=399.24773
##DELTAX=-1.928733
##MAXY=1.155467
##MINY=0.19333087
##XFACTOR=1
##YFACTOR=1.0761125e-009
##NPOINTS=1866
##FIRSTY=0.32870129
##XYDATA=(X++(Y..Y))
3996+305452522+306124168+306031640+305230330+304815329+305237253+305595204
3983+304503850+302408267+301154347+301486265+302696123+303563291+303957466
3969+304365654+304498560+304086771+303605636+303842867+304590339+304514069
3956+302929117+301205526+301128979+302022069+302637217+303301801+303893630
3942+303950404+304006928+304083919+303481620+302539982+302087760+302532892
3929+303727824+304624293+304283651+302699142+300420278+298274652+297855802
3915+299845591+302264118+303849375+304646171+304195223+302944709+302106620
3902+302355510+303046541+302754171+301773899+300908282+300413133+300914652
3888+302235870+303649089+304251443+303044104+300745826+299751707+300361843
3875+300889505+301065254+300844945+300047456+300292330+301653317+302407298
3861+302141764+301183481+299979715+299377749+299854204+300280504+299832132
3848+299766884+300663602+301180740+301165895+301447022+301108817+300287373
3834+300092127+300621617+301798741+302191752+300901774+299335681+298347156
3821+298012275+298436166+298567659+298171075+298563450+299709251+300666565
3807+300912934+300674541+300708716+300830045+300719877+300649200+300414435
3794+300058727+299638021+298866981+298199573+298471421+299106261+298782291
3780+297887844+297604059+298116849+298909492+299259134+299030101+299261183
3767+300375164+301051074+300424848+298593775+296372350+296128722+298332838
3753+300645102+300695284+299083800+298443422+298539217+298057943+297348301
3740+297066095+297240542+297127826+296341747+296054612+296152982+295609451
3726+295173347+295687328+295910877+295047171+294255748+294393223+294854612
3713+295350896+295952724+295430351+293905441+293052092+292952780+293048270
3699+293632484+294163304+294098609+294157322+294237691+293014816+290718338
3686+289428055+289944002+290937484+290304445+288124450+286662267+287269828
3672+288925013+289952836+289266762+288041505+287463440+287530931+287446075
3659+286665397+286250811+286560601+286374051+285446399+284048301+282988241
3645+283181992+283738622+283462979+282546294+281789876+281387863+280907836
3632+280053186+278847287+277912046+277400807+275879137+273237365+270788042
3618+269145015+268635576+268759259+268702569+268943205+268880754+267129497
3605+264808206+263415370+262670666+261498694+259627686+257778833+256759457
3591+256868185+257175759+256080805+254072294+252484212+250568339+248051165
3578+246348650+245935394+245906758+245314817+244069398+243193479+243187275
3564+242904848+241683883+240359120+239532829+238600219+237088048+235483073
3551+234800073+235165446+235192641+233891862+231925225+230134739+228904275
3537+228435976+228221123+227815732+227371001+226331532+224791832+224152617
3524+223927406+222701083+221051381+219993440+219530763+219038924+218002723
3510+216895306+215962862+214238510+212140408+211328241+211271689+210416804
3497+208768556+207367910+206970883+207202533+207232000+206617889+205245284
3483+203618334+202617014+202194854+201683559+200887164+199975699+199197306
3470+198133078+196635959+195829303+196011449+196235830+196017487+195541239
3456+194677741+193287841+191983281+190961564+190086974+190001689+190481232
3443+189648779+187471554+186470926+187301994+188141551+187810229+186504561
3429+184898686+183791656+183626847+183967931+184188587+184039051+183442014
3416+182510803+181899213+181994703+182199808+182508712+183228421+183581663
3402+183161013+182812326+182940426+182735418+181845652+180683870+179664175
3389+179656739+180960122+182193743+182536032+182935068+183778363+184738736
3375+185457975+185023975+183867027+183644917+184572127+185496678+185744487
3362+185948360+186657268+187519493+188157046+188532029+188812919+189017747
3348+189350081+190123558+190966078+191748847+192646299+193313098+193956315
3335+194994538+196160611+197054795+197218497+197310997+198356627+199248097
3321+199114818+199065757+200040989+201866786+203418061+204031534+204385843
3308+204855388+205135462+205228709+205409734+205903706+206858263+208389613
3294+210129959+210962024+210676951+210638165+211371070+212100417+212443842
3281+212619632+213176387+214077398+214518432+214799793+215785646+217090773
3267+217983711+218464791+219164338+220301693+220988293+220884619+220612425
3254+220657608+221511164+222817926+223671662+224430448+225620436+226847756
3240+227788522+228488665+229281058+230442590+231574143+232239211+232781204
3227+233627269+234502607+235174031+235898323+236513749+236813486+237185339
3213+237880026+239070526+240582282+241322028+240983436+240922287+241853263
3200+242985023+243618201+243804252+244296936+245460739+246569347+247398767
3186+248381615+249363105+249870606+250138993+250861762+251771302+252155092
3173+252425888+253258909+254288754+255126012+255928430+256471241+256598414
3159+256689057+257055566+257765291+258559013+258985840+258870935+258801505
3146+259352458+260052518+260697688+261612878+262557590+263392577+264080451
3132+264401651+264339865+263858536+263265377+263153851+263566249+264162981
3119+264836038+265731039+266534455+266500446+265816117+265470352+265568861
3105+265780834+266442703+267631486+268774242+269286422+269077080+268810023
3092+269037560+269348929+269254602+269219956+269623491+269898968+269526229
3078+268786870+268662605+269537999+270391652+270536521+270550036+270758658
3065+270742845+270515861+270603126+271054490+271384940+271362342+271243505
3051+271136133+270818811+270718834+271591624+272498589+272049634+271089191
3038+270813549+270802720+270607751+270400902+270037495+269338682+268835114
3024+269141193+269852109+270088149+270018829+270115511+270005536+269746316
3011+269776226+269623131+268735331+267614925+267005426+266452175+265231183
2997+263594663+261538629+258729112+255176000+250632895+244925156+237981166
2984+229684123+220423438+210694246+201158888+192918217+186998560+184310013
2970+185715021+191366567+199982000+209681516+219096362+227517892+234826632
2957+240815054+245219659+248238712+250159708+251029839+250489521+248473644
2943+246157088+244705346+243831559+242829547+241805130+241237366+241403173
2930+242274716+243450483+244263149+244361104+244381238+245066066+245988401
2916+246495320+246673727+246657969+246482913+246552398+247233875+248054128
2903+248365635+248466138+248558084+248178532+247366254+246375181+245184625
2889+244171425+243655339+243284981+242868817+242749703+243337462+244726227
2876+246399303+247813713+248937165+249882930+250763945+251638397+252603908
2862+253764747+254814588+255344354+255534920+256079005+257154656+258196687
2849+259109744+260258011+261253847+261523896+261755892+262667399+263399113
2835+263379838+263392549+263798051+264352328+264957063+265227693+264892618
2822+264527495+264620631+264801891+264676519+264469503+264466069+264533754
2808+264653532+265080497+265685399+266072013+266115466+265951847+265738628
2795+265486774+265408704+265900142+266631358+266876149+266652239+266545172
2781+267008140+267784304+268165435+268135608+268083764+267977362+267801503
2768+267639989+267417769+267223437+267194551+267327125+267713102+268214066
2754+268344230+267973402+267547988+267558235+267883893+267847697+267185357
2741+266561263+266713416+267389936+267852793+267887245+267484097+266703003
2727+266189050+266430933+266958512+267169543+267028773+266749253+266581286
2714+266715327+267099061+267540732+267902144+268114643+268072160+267718890
2700+267276084+266920460+266632853+266685029+267245648+267765251+267721853
2687+267329036+267191920+267522177+267779679+267617002+267518382+267659098
2673+267560810+267271819+267175968+267028136+266634432+266322066+266108542
2660+265811741+265558143+265494806+265631201+265840183+265998208+266220455
2646+266678798+267233684+267523700+267370383+266910961+266744323+267336984
2633+268137658+268466224+268333651+267962629+267631182+267538932+267546021
2619+267552197+267798345+268194874+268202102+267975091+268057731+268170697
2606+267922001+267589142+267466151+267486368+267466289+267328703+267121050
2592+267043118+267319453+267626335+267366811+266746816+266498784+266679878
2579+266873767+267087291+267325712+267292701+267142984+267236675+267342135
2565+267232299+267242324+267525749+267752816+267632234+267293116+267032761
2552+266777086+266528445+266547222+266711394+266811787+266838650+266704859
2538+266579652+266913785+267464766+267528768+267229862+267062117+267041540
2525+266915890+266502966+266095443+265917866+265726165+265698886+265981757
2511+266174261+266302569+266481254+266523820+266557552+266544923+266148727
2498+265553213+265363340+265751146+266200238+266207439+265895904+265741120
2484+265831819+265887014+265837109+265661443+265314626+265067315+265184545
2471+265487384+265657095+265570467+265230767+264909124+264960165+265225394
2457+265274718+265100520+265053440+265209775+265274967+265168704+265196675
2444+265476971+265726802+265787591+265801134+265667148+265156851+264850273
2430+265272613+265719075+265747407+265652083+265440525+265171944+264923802
2417+264669900+264702801+265114229+265473675+265357718+264795965+264278134
2403+264230860+264551201+264837229+264925519+264875198+264690532+264546549
2390+264729055+265096394+265112318+264504785+263581647+262588054+261710501
2376+261555855+261678015+261066494+260919271+262428506+263880304+262761864
2363+259180504+256113706+255550844+257369288+259254420+259257356+259126361
2349+259851097+260152634+259286795+258827234+259907482+260848982+260997009
2336+261167773+261079400+260422073+260221897+260349486+259789338+259141593
2322+259281478+259711489+260123111+260945968+262211437+263352309+263538333
2309+263012028+262922187+263367375+263870251+264334714+264541702+264433029
2295+264414834+264656883+265042500+265472595+265641863+265447448+265230546
2282+265089443+264920894+264900594+265121762+265180197+264872761+264519768
2268+264212388+264009637+264143705+264496560+264797903+264931972+264997968
2255+265148487+265256108+265170006+265087088+265178009+265170476+264939034
2241+264771815+264810975+265060945+265296292+265147268+264829696+264724735
2228+264712964+264704407+264830112+264962214+264867804+264664776+264575351
2214+264656745+264841577+264871986+264647910+264377419+264277691+264490384
2201+264717229+264612018+264439316+264255397+263759251+263147565+262955753
2187+263312485+263739284+263892489+264049821+264319122+264338342+264134234
2174+264073029+264196713+264349087+264223078+263618674+263000396+262895767
2160+263170911+263376819+263176201+262682492+262487662+262713510+262893524
2147+262982395+263111313+263169748+263258342+263437636+263533320+263518421
2133+263326581+262841043+262375527+262309863+262487080+262638541+262756215
2120+262769259+262660032+262673685+262713565+262455619+262296625+262650754
2106+262876353+262393057+261850634+261997249+262380263+262377105+262273528
2093+262466503+262813625+262915264+262744611+262588414+262439889+262334678
2079+262497742+262832900+262985331+262724809+262235421+262038846+262351931
2066+262756879+262916510+262954230+262911996+262688889+262346282+262206702
2052+262514664+262971428+263148811+263047200+262915596+262917064+263070823
2039+263302266+263468931+263463586+263305894+263134354+263094585+263264380
2025+263632937+263915614+263866373+263825386+264147001+264578563+264802445
2012+264887467+265011566+265227915+265412221+265336865+265076980+264988247
1998+265111072+265136108+264969221+264972627+265365639+265781637+265874524
1985+265835143+266015572+266301323+266451399+266594829+266750139+266801014
1971+266846654+266829179+266679297+266681512+266871136+267157995+267584267
1958+267752040+267560007+267595622+267931473+268122786+268106889+268095424
1944+268060058+267999268+268075234+268122869+267967835+267912170+268209940
1931+268619679+268759674+268518484+268237828+268323515+268641752+268921881
1917+269181571+269368149+269303759+269048278+268881308+268923542+269124189
1904+269388089+269614546+269718705+269685804+269715465+269859559+269924945
1890+269936715+269954689+269997948+270219005+270474347+270454435+270311892
1877+270329533+270381460+270330059+270491102+270973041+271180666+270946814
1863+270829030+271125942+271476913+271453816+271164354+270883616+270829030
1850+271069611+271279424+271247493+271123560+271040671+271096226+271345531
1836+271640754+271757763+271701931+271772413+272044151+272106989+271881197
1823+271732671+271723726+271658506+271606994+271714172+271825309+271897813
1809+272111670+272321483+272336022+272277199+272203061+272126015+272071485
1796+271905402+271719544+271785374+272028725+272207409+272304672+272553894
1782+272907995+272992546+272804944+272600892+272480532+272366181+272286726
1769+272301598+272241280+272305974+272774480+273219918+273345484+273407714
1755+273373012+273349860+273674189+274152721+274411664+274444815+274488018
1742+274685091+274755712+274631170+274708438+275068244+275173898+275006679
1728+275038500+275285036+275456492+275436912+275394013+275640522+276115426
1715+276329199+276303720+276258689+276173030+276054470+275891239+275809098
1701+276345954+277279478+277740950+277857516+277678970+277294821+276977027
1688+276820941+276975171+277382861+277455116+277196422+277029065+277122063
1674+277108991+276849466+276889291+277139815+276920087+276534276+276482238
1661+276353792+275721749+274878869+274456363+274918002+275161491+274728350
1647+274337748+274122064+273678039+273153396+272980333+273215403+273414886
1634+273121270+272744238+272790072+273245397+273837836+274490649+275188465
1620+275716349+276210418+276955702+277616214+278220590+279041813+279900174
1607+280672765+281402708+282176435+282944595+283518950+284030743+284662674
1593+285295658+285866939+286423237+286983163+287551563+288101685+288713954
1580+289388341+290099201+290818010+291189780+291345008+291680027+292121670
1566+292431183+292498924+292362612+292550269+293510795+294164744+294184102
1553+294114977+294218499+294457391+294600155+294582431+294539283+294872502
1539+295703058+296189206+296372987+296571777+296528159+296388717+296465209
1526+296516582+296520099+296878133+297406986+297711292+297693402+297423713
1512+297332349+297517542+297833840+298349012+298501580+298114551+297725610
1499+297721705+298069077+298261636+297988901+297516490+297209248+297008325
1485+296825818+296713877+296407217+295640857+294509705+293307435+292196417
1472+290945405+289680683+289007072+289343781+290499940+291716251+292848289
1458+294334538+295765011+296430508+297027711+298030914+299238446+300318307
1445+301011028+301287529+301237375+300964335+300763689+300918473+301173345
1431+301234965+301174813+301262383+301498644+301513931+301250225+301131305
1418+301225245+301208074+301111365+301092921+301164843+301401076+302000135
1404+302903748+303727436+304406753+305068400+305594096+305990819+306129734
1391+305670284+304583000+302675048+299862928+296958807+295080349+295052461
1377+296965592+299908568+302403587+303681491+304365737+305400484+307198905
1364+309875461+313055058+315714970+317433742+318620891+319625922+320319390
1350+320441440+320089388+319493902+318846434+318638948+319296912+320555430
1337+321815886+322857086+323642611+324108930+324396509+324587490+324565279
1323+324329904+323972535+323654714+323523220+323514912+323690772+324193979
1310+324783151+325291593+325946649+326779642+327705855+328860075+330140915
1296+331291674+332405848+333581283+334682303+335717133+336818014+338010924
1283+339229590+340336259+341373942+342578594+343767793+344559300+345147086
1269+345911397+346784464+347584999+348425553+349409397+350355937+351127227
1256+351770680+352360986+352945754+353516204+354110360+354821415+355598077
1242+356307996+356982771+357665328+358261672+358772247+359230534+359663758
1229+360253566+361050778+361836303+362423397+362845626+363293667+363876164
1215+364508372+365026840+365431123+365992212+366734534+367263359+367590818
1202+368043871+368471362+368711224+368981577+369392036+369909340+370509284
1188+371120777+371689012+372117306+372246279+372086759+371804691+371329621
1175+370293572+368439597+365644952+361909638+357812330+354384840+352617326
1161+353041688+355197256+358103066+361146019+363993311+366405330+368297358
1148+369678895+370537228+370839457+370533489+369399458+367336140+364624135
1134+361859926+359895616+359410049+360778431+363951022+368036864+371845457
1121+374736340+376647921+377723655+378260900+378610874+378987851+379674562
1107+380805159+382312318+384271311+386667931+389314383+391941172+394418605
1094+396922514+399402384+401649648+403751212+405755181+407596002+409228810
1080+410521669+411671874+413137519+414770078+416123837+417173290+418033285
1067+418956645+420203254+421516358+422718462+423952554+425070079+426074390
1053+427278489+428601728+429797601+430862314+431936387+433192108+434532629
1040+435839335+437193897+438419043+439443488+440531048+441662421+442687198
1026+443679656+444814933+446246237+447900481+449406337+450523005+451577553
1013+452954271+454423488+455693942+456825730+457946496+459228665+460594194
999+461909708+463367265+464831110+466008677+467104933+468320220+469497344
986+470554607+471680496+473052367+474573068+475814554+476560476+477147099
972+477870644+478663536+479108474+478725959+477263748+473940971+467480027
959+457927886+447598861+440190213+439046710+444929782+455316412+466666420
945+476773612+484893841+490979248+495376791+498723442+501514375+503960680
932+506204648+508339390+510341642+512069498+513569927+515029146+516440122
918+517921552+519712717+521633713+523246692+524555642+525875226+527246876
905+528635308+530135571+531766164+533326745+534723098+536167971+537597004
891+538830846+540120908+541608210+543016915+544339324+545854707+547460597
878+549066818+550688161+552066346+553357682+554870296+556377649+557762481
864+559172903+560535414+561742946+562982604+564337360+565651073+567059778
851+568721444+570437778+572052807+573489483+574630216+575659563+577061233
837+578817448+580314664+581398956+582456828+583520737+584243285+584303880
824+583125649+580053063+575984917+574103191+576998312+583405695+590048979
810+595230828+598907098+601582324+603701280+605292436+606595403+608117379
797+609872208+611607874+613205565+614678687+616082961+617416836+618853346
783+620386565+621819031+623274817+624743009+626134876+627627827+629285394
770+630946783+632458954+633869376+635365595+637079603+638987694+640926027
756+642698415+644404060+646195169+647774527+649229648+651071715+653092356
743+654853279+656481656+658216878+660052077+661929039+663858898+665775242
729+667660512+669747287+671958743+673904775+675633683+677419752+679420121
716+681662483+683900525+685917511+687831473+689777948+691754499+693680259
702+695408669+697123120+699121107+701228099+703119850+704679766+706213262
689+708306020+710976206+713587790+715750670+717799892+720198506+722696599
675+724929712+726801246+728021351+729529756+733171408+736489311+738819963
662+741010482+743178845+745400880+747665453+749963094+752264058+754743374
648+757498914+759972581+762059190+764436203+767391752+770508760+773393024
635+776006437+778592044+781108747+783344463+785712005+788493245+791349760
621+793774075+795784192+798300729+801579528+804808311+807583403+810113788
608+812609222+814978259+817311016+819766072+822278787+824954235+827865142
594+830876578+833695705+836148213+838468895+841014180+844010994+846956795
581+849433674+852001058+854764962+857368460+859964868+862866746+865939886
567+868962899+872159501+875624794+879238363+882691692+885780286+888650426
554+891219970+893486039+895751333+898511360+901749171+904804309+907546667
540+910172985+912691627+915110625+917918397+921367073+924703311+927661020
527+930740862+934005592+936931897+939443117+941962867+944446946+947012004
513+950067254+953399890+956476520+959166535+961504277+963552336+965954107
500+968542540+970392195+971996146+974239505+976994658+979551297+981648984
486+983811919+986516335+990016911+993621950+995920366+997136041+999110543
473+1002255190+1004719994+1005995710+1007413665+1009325245+1011430243
461+1014008927+1017047671+1019395826+1020733245+1022064461+1023616125
449+1025366302+1027645775+1029907967+1030969439+1031528866+1032979390
438+1034746516+1036760898+1039640675+1042069809+1043049638+1043980503
426+1045574151+1046759251+1047386475+1047969830+1049023991+1051001595
415+1052979974+1054444123+1056016945+1057858957+1059096566+1059960521
403+1062318646+1067468481+1073741823
##END=
