##TITLE=павел 1-многокр
##JCAMP-DX=4.24
##DATA TYPE=INFRARED SPECTRUM
##DATE=2/2/2015
##SAMPLING PROCEDURE=Instrument type and / or accessory
##ORIGIN=Default
##XUNITS=1/CM
##YUNITS=TRANSMITTANCE
##RESOLUTION=4
##FIRSTX=3996.3347
##LASTX=399.24773
##DELTAX=-1.928733
##MAXY=1.1484582
##MINY=0.19376409
##XFACTOR=1
##YFACTOR=1.0695851e-009
##NPOINTS=1866
##FIRSTY=0.3300111
##XYDATA=(X++(Y..Y))
3996+308541231+308024197+307810373+308104416+308363295+308364075+308610332
3983+309047092+309457604+309620883+308730869+307370186+307041704+307534720
3969+308128852+308607964+308518383+308241810+308472603+308887434+308779881
3956+307667238+306766190+307308998+307712572+306752844+305736330+305957370
3942+307018410+307710817+307659158+307277735+306807345+305619860+304216156
3929+304490193+305773667+306015438+305301521+304648987+304135826+303652562
3915+303410401+303572650+304168621+304848517+305408655+305906352+305885455
3902+305779713+306169773+306046199+305530363+305435516+305332644+304954788
3888+304661692+304330062+304003586+303937577+304122117+304691450+305060864
3875+304966463+305403668+305459060+303769672+302323392+302368420+303521687
3861+305266580+306836518+308125787+308815546+307631071+306227256+306251720
3848+306207417+305670516+305292994+305397259+305890470+306088969+306050685
3834+306146619+305905015+305946866+306777280+307001971+305662993+303568414
3821+302074042+301970892+302928196+303954769+304133011+303847383+303820161
3807+304007654+304410503+304928429+303834845+301909620+301959468+302942657
3794+303566074+304019245+303997706+303462896+302574693+301817894+301742662
3780+301872673+301534717+300981572+301321897+302872107+304285006+304807279
3767+305361065+305565582+304438673+302456524+300341159+299150777+299368474
3753+300171276+300965300+301879890+302784644+303047062+302412054+301569324
3740+301190381+301816445+302971914+302760263+301034931+300037810+300866942
3726+302338048+302618605+301084416+299171396+298681947+299303329+299676672
3713+299260921+298612037+298917114+299968123+300260076+299472600+298501029
3699+297659721+296852266+296169779+296147990+296963776+296808158+294825479
3686+293283238+293054925+293313052+293148323+292405623+291865351+292129775
3672+292671524+292450204+291638292+291454616+291434888+291100555+291044243
3659+291150040+290784333+290232999+290268915+290485358+289884984+288947491
3645+288076647+287095910+286488013+285916868+284414638+282461160+281324053
3632+281084455+280926219+280453014+279685655+278622692+276925642+274297255
3618+272218197+271940760+271898575+270573446+268145620+265865945+265270698
3605+265976479+266183588+265579174+264628000+263058898+261318325+260291724
3591+259757080+258812147+256791630+254631879+253528570+252824489+251629843
3578+250394100+249721086+249076521+248214371+247817539+247617842+246648139
3564+245163045+243728328+242585064+241628874+240210569+238854511+238633136
3551+238648321+237727769+235923862+233997272+233117122+233024838+232425035
3537+231194252+230223545+229351154+227572143+225355690+223714241+222752673
3524+222382508+222408407+222467505+222151074+221418948+220389422+219018930
3510+217912696+217130778+215386917+213014790+211914393+212270558+212925711
3497+212672474+211160046+209351765+207731910+206697242+206336606+205684169
3483+204884475+204578269+204041912+202450742+200578960+199754759+199481029
3470+198358759+196554727+195370683+195476634+196184728+196322554+195838511
3456+194924464+193335705+191964475+191401578+190772561+189534686+187738566
3443+186140821+185705218+185802085+185703337+185892112+186203904+186364676
3429+186712788+186617425+185340220+183581995+182809621+183602322+184449036
3416+184106260+183995893+184703736+184546865+183872137+183957957+183950559
3402+183475223+183505064+184178580+184571761+183824575+182268123+181394715
3389+181734928+182267036+182389301+182194076+182134448+182817910+183925524
3375+184757652+184954019+184733090+185114847+186092088+186624906+186829340
3362+186959170+186941226+187532614+188279451+187708864+186841656+187631111
3348+189381242+190261852+190392852+190987081+191922889+192381786+192739539
3335+193725528+195024633+196215559+197330278+198337067+199177289+199661626
3321+199834435+200319217+201272300+202042362+202293662+202283938+202277083
3308+202443177+202992129+204166838+205724906+206916528+207417875+207878527
3294+209371896+211133075+211319509+210789727+210980104+211227796+211401748
3281+212296345+213756334+214795529+215177997+215705800+216151406+215878999
3267+215800299+216498696+217462325+218844505+220674924+221775614+221543414
3254+221105470+221806292+223394146+224517196+224970213+225600902+226500724
3240+227416206+228295980+228994112+229547564+230204222+231459665+233254084
3227+234337317+234492879+234973746+235686270+235733610+235947992+237411352
3213+239289849+240379226+240634372+240676278+241181888+242206232+243372429
3200+244535783+245437890+245861414+246471874+247663650+248360096+248372523
3186+248966126+250260411+251412564+251979864+252330832+253019477+253699317
3173+254099548+254505964+254906835+255500521+256563261+257698529+258730953
3159+259535148+259820525+260290219+261180150+261651766+261883200+262614755
3146+263693404+264698272+265389090+265293936+264666396+264408882+264506683
3132+264735051+265162699+265673715+266289274+266868360+267128632+267111998
3119+266804358+266403041+266567881+267358812+268455462+269612742+270078619
3105+269659497+269369522+269697307+269755570+269398556+269820297+270940546
3092+271776366+272220788+272355257+272111535+271484747+270739790+270424181
3078+270927869+272130928+273205315+273545973+273508135+273364666+272970705
3065+272848719+273594400+274435792+274454544+273924108+273575815+273818227
3051+274162870+274060026+274004466+274098004+273583477+272697253+272696083
3038+273656535+274444569+274736105+274682244+274072620+273214036+272776859
3024+272666102+272226890+271506119+271181231+271296195+271371845+271254484
3011+270839319+270159785+269726620+269667661+269395769+268384967+266945040
2997+265475773+263405993+260347869+256517621+251938208+246286248+238896501
2984+229734959+219555566+208843104+198430758+189849988+183930344+181158182
2970+182759063+189173951+198810955+209212503+218915069+227817091+235663394
2957+241649966+245737422+248705269+250696028+251290244+250886614+250165341
2943+249006695+247202120+245224958+243701691+242947873+242879469+242966013
2930+243149828+243966338+245063545+245540706+245646922+245940351+246166157
2916+246583941+247549772+248389576+248839236+249139994+249172371+248987386
2903+248623016+248006036+247507614+247286824+247091836+246929643+246520496
2889+245609250+244892742+244801990+244901379+245033647+245497936+246511496
2876+248038023+249642818+250950393+252278449+253783743+255064709+255979438
2862+256604805+257241819+258085942+258674363+258923907+259528349+260930187
2849+262716401+263978782+264411139+264544688+264643325+264574976+264787574
2835+265634065+266554478+267020829+266971678+266733222+266668663+266682985
2822+266729739+266968585+267494145+268098308+268173818+267835054+267995743
2808+268694446+269210617+269347426+269462948+269843368+270091687+269719125
2795+269062495+268729917+269088881+269828154+269969115+269193118+268307618
2781+268348884+269371249+270303337+270331507+269797616+269496969+269499393
2768+269392871+269378633+269891265+270607801+271006583+271054564+270747954
2754+270297876+270125095+270124565+270145407+270283777+270471020+270588603
2741+270675314+270901956+270954534+270423289+269973406+270123702+270317631
2727+270290102+270212614+269935763+269207385+268272176+268083095+269116076
2714+270324179+270588715+270290548+270383918+270854727+271000509+270693983
2700+270326408+270089597+270144460+270413454+270362129+270211444+270836365
2687+271925993+272551834+272737098+272823753+272739717+272246255+271432420
2673+270793511+270466840+270205230+270070845+270178481+270124231+269549882
2660+268928193+268887707+269244304+269444057+269438010+269582036+270162460
2646+271153033+271885563+271738890+271232750+271131411+271404166+271745661
2633+271967398+271878681+271413305+271022298+271116225+271351644+271398900
2619+271264459+271156182+271275158+271304861+271118900+270997806+271179113
2606+271559728+271542090+271166937+270929039+271020849+271500267+271680599
2592+271109761+270459010+270141924+270061678+270141256+270382386+270819062
2579+271058715+270767096+270484951+270566480+270605906+270618501+270929373
2565+271185327+271040911+271040994+271459475+271601579+271269976+271053978
2552+271176271+271394748+271404027+271182763+271090898+271196751+271203020
2538+271074514+270841743+270480019+270182521+269994415+269796195+269734004
2525+269891934+269934007+269611962+269130286+268747220+268654546+269008690
2511+269549380+269836848+269843981+269722440+269518341+269442580+269634670
2498+269872067+270079873+270228050+270143011+270059672+270211444+270228301
2484+269808343+269345197+269251214+269325191+269304851+269102033+268771043
2471+268682242+269053662+269535059+269753536+269846795+269840331+269697558
2457+269770449+269890931+269719598+269485796+269304739+269286322+269597389
2444+269931054+269853705+269469440+269384763+269806449+270073687+269649577
2430+268892806+268382877+268335119+268747276+269370163+269659218+269260437
2417+268519185+268000814+267880527+268140493+268488814+268525455+268511300
2403+268757028+268757251+268295860+268054340+268310823+268670540+268853491
2390+268761096+268580736+268568950+268502022+268170976+267855645+267758904
2376+267524349+266756739+266076815+266461359+266940526+265767754+263504602
2363+260919933+258420499+258427186+260294009+260931469+262009979+264386758
2349+265741479+265490234+264612926+264247692+264864477+265720247+265629133
2336+264639730+263307719+262165540+262500013+264425433+266400505+267825971
2322+268419351+267522009+266003339+265203074+265256683+265876338+266686830
2309+267368397+267931072+268290817+268428490+268449805+268371119+268356964
2295+268372763+268260613+268249579+268478588+268679679+268578925+268448802
2282+268599655+268696063+268731254+268995622+269072832+268725709+268454124
2268+268596952+268959818+269109472+268933793+268776616+268688734+268525873
2255+268590042+268899939+268947614+268765833+268769176+268849367+268737941
2241+268492576+268299705+268306587+268450251+268614228+268745827+268662877
2228+268384020+268234142+268275102+268241470+268090116+268047402+268153868
2214+268113131+267756452+267518721+267679688+267854726+267875623+267885738
2201+267811315+267628140+267582974+267720090+267654555+267263714+267014002
2187+267060701+266959808+266765823+266994275+267449201+267577624+267573026
2174+267775036+267745919+267449369+267519779+267775399+267844305+267847927
2160+267608692+267111274+266803828+266887335+267197734+267244544+266705693
2147+266174198+266238786+266538958+266614218+266509953+266471334+266642081
2133+266781510+266605998+266458433+266629236+266686523+266417223+266260185
2120+266426864+266498334+266257398+265987262+265744014+265533813+265499680
2106+265605115+265819747+266094425+266269380+266154304+265853378+265844685
2093+266138812+266314073+266242185+265911474+265497897+265424058+265626068
2079+265816654+266063942+266242241+266194622+266140873+266101029+266041234
2066+266221064+266597862+266747739+266561110+266446006+266653171+266852311
2052+266780674+266592317+266508727+266652502+266898843+266964684+266861199
2039+266861171+266991266+267099181+267258978+267511420+267624490+267604011
2025+267776848+268050634+268088612+267987607+267969607+268046176+268119066
2012+268175573+268252142+268376803+268646605+268915710+269079129+269276207
1998+269307526+269059680+268982415+269377658+269887810+270133064+270275056
1985+270439562+270480019+270508886+270694874+270743134+270439562+270143234
1971+270189125+270384782+270392556+270234598+270197874+270456391+270754056
1958+270884095+271189506+271655912+271749729+271351755+271019511+271271035
1944+271678370+271718382+271704144+271839700+271991639+272182810+272428371
1931+272636901+272754206+272841836+272904167+272855740+272796976+272728432
1917+272512685+272399114+272520877+272679587+272833421+272901520+272847325
1904+272914838+273127046+273202138+273121641+273162461+273336189+273421674
1890+273471912+273638675+273806496+273906861+274049354+274139325+274144034
1877+274345208+274638192+274596007+274344261+274310184+274405616+274436015
1863+274553488+274723399+274768816+274691467+274677758+274854775+274988603
1850+274942656+274860320+274899412+275177852+275366766+275227950+275050376
1836+274987628+275005795+275172418+275461585+275637570+275629880+275618484
1823+275659025+275651224+275572760+275588057+275858778+276140645+276091800
1809+275927629+275983077+276103447+276008823+275709960+275491705+275473733
1796+275449353+275369942+275429068+275557379+275603772+275719795+275918518
1782+275925790+275713443+275518789+275368242+275247176+275409759+275835401
1769+276173384+276287708+276217799+276173858+276232511+276358788+276696771
1755+277035396+276995384+276758238+276799002+277164571+277465691+277546216
1742+277719192+278055894+278082058+277867621+278043384+278546737+278928271
1728+279125795+279156277+279274084+279403175+279205512+279066362+279503344
1715+279989896+280106421+279954147+279721014+279743081+279913857+279783929
1701+279728230+280119405+280378312+280573440+280947005+281242051+281287886
1688+281069437+280873696+280968766+281079189+281029620+280892978+280724989
1674+280544629+280271679+280029490+280024586+280039270+279922494+279699336
1661+279327693+278957639+278670478+278531468+278877309+279001301+278353142
1647+277563185+277224282+277038099+276528114+275830330+275498699+275711241
1634+275855574+275831333+276047692+276417217+276687103+277231443+278183175
1620+278859894+279367928+280230887+280925662+281456014+282345081+283310661
1607+284058655+284750560+285462750+286128742+286649203+287072449+287654627
1593+288437088+289170343+289883145+290656635+291317778+291910044+292397013
1580+292599413+292901787+293639695+294263474+294607559+295106203+295746645
1566+296079585+296042499+295879135+295996608+296692246+297298332+297599536
1553+297685355+297633139+297803747+297982129+297769419+297553227+297943092
1539+298817586+299394471+299606734+299777621+299874224+299767590+299672854
1526+299779739+299981024+300156954+300213182+300196464+300250157+300342274
1512+300459551+300543420+300629629+301136187+301649961+301601562+301229864
1499+300866747+300733253+300706282+300637097+300566045+300467353+300230876
1485+299803088+299228460+298457451+297456513+296262536+294805027+293211461
1472+291868834+290928025+290473126+290885338+292182325+293590098+294705499
1458+295931769+297483066+298711872+299656359+300613023+301585819+302568256
1445+303411794+303964242+304108798+303919967+303816789+303902469+303906036
1431+303927045+303991103+303775858+303347262+303037365+302894008+302925605
1418+303080721+303158794+303129287+303101256+303215998+303496304+303928717
1404+304447617+304918147+305424203+306100226+306913198+307649517+307824193
1391+307196262+305816521+303498728+300300506+297011143+294852061+294887225
1377+297080691+300319008+303112569+304572696+305277001+306435758+308614261
1364+311629698+314897439+317740430+319959474+321589486+322530323+322760447
1350+322483958+321955695+321325898+320790641+320623822+321049214+322225775
1337+323871864+325396997+326448480+327026814+327281207+327153147+326713016
1323+326310194+326060955+325905449+325808429+325786668+325931920+326279015
1310+326760495+327226204+327654828+328361807+329460992+330596957+331625229
1296+332705634+333901310+335209554+336626996+338064471+339374721+340590598
1283+341846459+343105942+344223322+345094445+345845838+346852182+348196064
1269+349401548+350213656+350939526+351800451+352726938+353667692+354654866
1256+355536242+356179581+356718293+357229671+357851499+358674167+359470839
1242+360150261+360746873+361243204+361781470+362373262+362761038+362966363
1229+363324854+364010351+364885123+365631139+366160182+366715278+367381744
1215+368008838+368514866+368956920+369450353+370013947+370537919+370937843
1202+371293464+371757669+372253945+372625337+372903804+373157863+373477178
1188+373911597+374371650+374739030+374983448+375132044+375047896+374547775
1175+373468847+371345374+367758402+363071102+358313113+354572780+352752322
1161+353275625+355645411+358780410+361874311+364614458+367002745+369070993
1148+370641599+371630250+371952518+371407565+370101104+368097528+365310626
1134+362260805+359996984+359431412+361097228+364712509+369049399+372909293
1121+375754875+377514396+378407029+378880290+379288433+379748236+380510413
1107+381777140+383494922+385574816+387871126+390308230+392985433+395939014
1094+398861638+401601088+404416187+407039642+408990724+410513516+412004043
1080+413516387+415036338+416539237+417969495+419361107+420694930+421860959
1067+422972794+424256909+425676690+427039853+428191784+429208326+430395058
1053+431604080+432526165+433477897+434665743+435813271+436879382+438100637
1040+439447918+440740224+442060868+443345958+444389388+445343460+446359668
1026+447475320+448818867+450393793+451998671+453394128+454576792+455781997
1013+457118244+458437383+459710102+461062064+462365126+463527031+464686596
999+465872548+467032809+468125837+469260770+470655336+472173726+473446027
986+474394498+475260884+476386678+477785479+479028467+480015167+480954611
972+481742422+482169011+482060288+481200534+479240842+475241380+467875734
959+457192138+445840516+437883330+436607964+442642629+453674323+466188993
945+477477867+486488347+493157517+497839356+501363357+504425995+507181522
932+509596168+511831596+514085804+516130145+517724881+519165867+520791532
918+522522409+524145009+525574793+526900759+528349156+529924165+531470308
905+533016840+534540636+535989535+537404608+538887612+540557022+542132421
891+543461953+544913248+546438437+547728626+548931825+550320372+551853586
878+553419400+555089368+556733534+558053926+559069772+560092750+561377533
864+562961292+564618386+565945522+567115285+568612666+570158697+571471177
851+572877946+574421080+575788171+577108843+578627066+580124057+581494270
837+582750075+583818694+584815481+585876298+587069355+587996149+587743984
824+585657570+581660448+577037680+575009723+578128979+585198269+592875818
810+598963478+602933684+605395029+607407773+609345508+610999816+612496362
797+614120801+615869900+617507268+618862768+620021498+621173205+622541857
783+624119095+625704247+627129963+628326642+629635054+631295436+633069335
770+634664405+636005250+637368051+638981734+640771514+642703621+644795218
756+646813145+648572777+650251995+651902570+653407307+654936341+656749025
743+658745831+660603654+662247987+664012858+666137334+668308620+670160815
729+671786925+673534186+675397136+677084378+678770172+680790774+683032555
716+685256615+687371004+689292746+691088266+692965928+694887112+696730446
702+698594176+700708342+702969405+704971449+706713081+708486088+710601703
689+713052627+715293573+717126207+719035577+721407536+724005412+726451655
675+728763597+730644212+731487917+732317579+735934644+740027449+742960856
662+745377508+747400673+749358526+751689971+754337500+756787532+759022459
648+761450034+763990511+766439874+768893975+771495585+774190537+776886325
635+779545946+782240118+784954965+787448130+789764083+792118711+794627759
621+797169295+799518071+802095774+805218319+808301743+811027289+813732216
608+816576962+819327697+821815791+824016390+826187677+828747491+831509650
594+834114715+836745024+839642431+842590272+845334877+848289851+851460543
581+854033398+856122766+858551288+861358307+864189845+867244905+870460235
567+873458397+876556143+879964956+883424871+886722454+889831345+892580798
554+894984578+897480473+899965112+902641340+905634765+908411302+911298456
540+914480851+917453769+920060450+922847686+926091826+928831137+930847893
527+933303554+936481714+939562965+942572439+945926640+949075655+951648120
513+954197848+957248672+960300945+962803639+965242693+967865646+970477231
500+972595075+974110178+976102971+978716228+980968040+982913911+985229475
486+987747773+989993455+992819922+996633647+999934462+1002323808+1004804769
473+1007335327+1009144890+1010307910+1011583053+1013422597+1015717096
461+1017987632+1020150727+1022337561+1024130407+1025743477+1027689683
449+1029673448+1031532720+1033411496+1035270434+1037496500+1039913709
438+1041186734+1041552526+1042703509+1044236890+1044710457+1044987754
426+1046444900+1048494646+1050724391+1053331183+1055448582+1056891573
415+1059103485+1062601239+1065986424+1067707270+1067952357+1067905992
403+1068205914+1069727704+1073741823
##END=
