##TITLE=павел 1-многокр
##JCAMP-DX=4.24
##DATA TYPE=INFRARED SPECTRUM
##DATE=2/2/2015
##SAMPLING PROCEDURE=Instrument type and / or accessory
##ORIGIN=Default
##XUNITS=1/CM
##YUNITS=TRANSMITTANCE
##RESOLUTION=4
##FIRSTX=3996.3347
##LASTX=399.24773
##DELTAX=-1.928733
##MAXY=1.1529828
##MINY=0.19339034
##XFACTOR=1
##YFACTOR=1.0737989e-009
##NPOINTS=1866
##FIRSTY=0.32816574
##XYDATA=(X++(Y..Y))
3996+305611905+305543269+305041614+303690544+302555624+303006545+304830433
3983+306213892+305996022+304646201+304007940+304815057+304700017+302959585
3969+302678658+304818749+306588267+306273618+305474384+306170068+306790733
3956+304991906+302847819+303051312+304012048+303386554+302012559+301428835
3942+301583370+302505084+303726542+304308989+305145470+305944427+305087741
3929+304111408+304215208+304197917+303592739+302657981+301909592+301881338
3915+302206699+302919674+304013436+304411096+304132751+304026480+303721185
3902+303161191+303154974+303230798+302379829+300907585+300322723+301438854
3888+302916288+303601815+303818047+303964894+303716439+303112871+302648211
3875+302797584+303329242+302961278+302015196+301838180+302041951+302587708
3861+303533900+304080739+304331664+304401799+303643612+303184337+303727291
3848+303768978+302890977+302112890+301617063+300994761+300267215+299418023
3834+299054472+299157800+298546405+297704068+298205835+299412972+299591292
3821+299052612+299466037+300605371+301235084+301323703+300962150+299689763
3807+298616207+299564898+301497554+301581732+299136374+297399911+298280105
3794+299967859+300352309+299529844+298755588+299238537+300498296+300976277
3780+300479173+299871580+299764977+300085564+300118481+299360017+298896718
3767+299185888+298424620+297175686+297935343+299700504+299865419+299230350
3753+299251998+299239175+298559894+298062041+298266061+298770520+298149605
3740+296640753+295999634+296706364+296926704+296159164+295537722+295583739
3726+296460629+297415648+297515674+297192533+296765813+296197770+296137960
3713+296647581+296233989+294741929+293906753+293866842+293525855+292724206
3699+292286135+292571003+293124032+293119230+292269122+291200117+290770623
3686+290930348+291171003+291332227+291055518+289950850+288118219+286575813
3672+286750164+288797556+290936786+291083051+289887043+289126858+288774936
3659+288133400+287149074+285580856+284539356+285133959+285682602+284738075
3645+284058238+284012749+283713588+283351924+283012103+281825060+279836368
3632+277985225+276539486+276121010+276238021+275109290+273040999+271285274
3618+270672686+271250082+271230821+269537710+267575467+266696772+266532551
3605+265743086+263664554+261303402+259813034+258831205+258089255+257487185
3591+256503913+255532714+254935529+253709408+251715137+250326600+249591255
3578+248209295+246664724+245887581+244961954+243600505+242830911+242783813
3564+242573575+241372045+239260902+237879608+238347264+239304004+238732464
3551+236962279+235512072+234306850+233133907+232349770+231329668+229946640
3537+229158118+228558588+227097237+225420862+224574945+224682992+225069065
3524+224105151+221316655+218662767+217312072+216907653+216802715+216034107
3510+215424446+216012278+215875145+214147536+212464999+211409996+210161533
3497+208549964+207574976+207306011+206741035+206060824+205836251+205661553
3483+205010595+203788734+201972034+199850233+198656099+198807456+198764424
3470+197986282+197553804+197703024+197754383+197104298+196036681+195390108
3456+194802998+193419178+191678427+190499017+189957035+189482218+188668037
3443+188020839+188264909+188941887+189333803+189274145+188347477+186729760
3429+185411427+184672016+184277478+184019614+183760641+183850037+184158690
3416+183752204+182831184+182836929+183970309+184654822+183973737+182694162
3402+181763914+181612224+182124856+182554808+182614494+182492459+182022610
3389+181458466+180898222+180099209+180129225+181742030+183963315+185510509
3375+185495577+184487632+184208481+185048251+186139736+187115112+187736873
3362+187592788+187114890+187174062+188045513+189111062+189756900+190373083
3348+190955641+191030314+191339647+192500684+193720338+194376709+194872785
3335+195540674+196145033+196816169+197923280+199114389+200191012+201211239
3321+201580521+201430635+201520544+201867651+202576768+203556030+204095181
3308+204215384+204663391+205730314+206976154+207943592+208391710+208190188
3294+207926593+208582214+210240813+211826641+212402580+212520410+213310999
3281+214683315+215419700+215027923+214762483+215525596+216554635+217210769
3267+217562858+217909118+218641341+219552605+220284938+221391758+222976753
3254+223812998+223856905+224362584+225114304+225254351+225327289+226168918
3240+227559829+229029533+230393370+231345779+231893548+232531004+233354580
3227+233868058+233984098+234354948+235032454+235334890+235594641+236650490
3213+238129367+239426177+240536119+241429357+242376965+243479553+243980847
3200+243910962+244421554+245462111+246028517+246504944+247788127+249155377
3186+249548181+249421594+249484402+249861996+250731005+251723935+252297529
3173+252972898+254147923+255056287+255472793+256172751+257110257+257648437
3159+257800890+257895503+257994808+258034246+258228719+258722465+259352649
3146+259886527+260273613+261018423+262120399+262815056+263153712+263451097
3132+263671936+264352356+265459495+265788658+265131608+264470006+264327988
3119+264886817+266254566+267707410+268080925+267478522+267150996+267404807
3105+267555956+267704774+268222610+268507672+268258440+268175178+268839250
3092+269894405+270121628+269256616+268327437+267869466+268073598+268755599
3078+269085623+269000723+269331580+270320264+271143118+271201068+270934463
3065+270988361+271466314+271915070+271771970+271214363+271262377+272165440
3051+272832899+272487887+271585629+271157966+271463706+271870220+272029140
3038+271940771+271638695+271358268+271341310+271624735+272251422+272863400
3024+272707394+272037272+271371867+270544240+269945473+269728880+269186315
3011+268278340+267704163+267772521+267857393+267380245+266475767+265134744
2997+263308025+261176871+258822407+256234476+252866572+247731758+240453579
2984+231282736+220725021+210063437+200652910+192679906+186419442+183343774
2970+185027074+191613427+201161864+211335240+220889062+228994855+235478157
2957+240908996+245299583+248257726+249906042+250557347+250216333+248905479
2943+247056196+245346404+244306708+243982512+243826146+243218858+242429060
2930+242244911+242745040+243477082+244159195+244772311+245175966+245278018
2916+245575764+246321211+247091721+247499651+247595014+247719130+247876385
2903+247891566+247823874+247632704+247005711+245912616+245029008+244824821
2889+244905808+244673645+244170380+244059974+244624853+245612205+246815512
2876+248033223+249088323+249935100+250655625+251487609+252392199+253163263
2862+254009513+254963338+255671345+256103838+256497224+257024275+257806246
2849+259065172+260765222+262181652+262797544+263120685+263705963+264208284
2835+264227074+264119721+264401064+264945433+265264383+265332658+265358331
2822+265384753+265471235+265589051+265796707+266118682+266211103+266134752
2808+266253789+266313072+266095757+266003281+266350485+266851113+267095155
2795+267079446+266853916+266509155+266345100+266655724+267363065+267756035
2781+267708937+267837521+268045511+268166408+268462266+268716688+268619882
2768+268299849+268118865+268583718+269417812+269464439+268612138+267994915
2754+268280921+268999058+269211710+268592461+267784789+267390320+267182969
2741+267166455+267566947+267858920+267837216+267862889+267836744+267637192
2727+267626424+267902383+267941738+267435365+266766102+266586228+267003205
2714+267464229+267622816+267567252+267437585+267388960+267561424+267894750
2700+268295187+268606921+268523658+268088196+267553292+267173671+267356154
2687+268094386+268796509+269102803+269230777+269325113+269239103+268906998
2673+268449111+268048425+267770245+267593535+267338753+266808483+266310380
2660+266484121+267181498+267362038+267001623+267083498+267554541+267893890
2646+268368457+269037054+269332607+269096114+268743832+268636284+268567732
2633+268313921+268386414+268806639+268805529+268514028+268666536+269038358
2619+268992036+268748300+268782299+268836725+268429627+267934716+267932191
2606+268002631+267811266+267682348+267660534+267631475+267728642+268115756
2592+268565456+268565511+267920506+267246526+267383492+267876793+267820952
2579+267550350+267598309+267763862+267798138+267937131+268375091+268514250
2565+267983341+267414438+267349022+267692756+267885453+267570888+267290294
2552+267551848+267980649+268068436+267874601+267707993+267803495+268168461
2538+268406092+268247311+267892197+267552709+267242196+267149414+267612908
2525+268284390+268359187+267797750+267195292+266890552+266903069+267037787
2511+266977810+266888831+267101150+267237894+267005454+266855443+266919027
2498+266952887+267112473+267332702+267302866+267044920+266611484+266177521
2484+266073554+266345433+266685060+266902736+267090076+267097958+266771986
2471+266349874+266133614+266238080+266454229+266388952+266062175+266003919
2457+266298029+266472408+266351317+266012662+265640729+265602900+265916855
2444+266043108+265931731+266029286+266076024+265751995+265375594+265256473
2430+265449031+265685469+265582973+265260637+265197635+265479450+265805311
2417+265806005+265448948+265245760+265247814+265115760+264988008+264998777
2403+265023866+264965971+264932861+265118508+265387501+265469486+265306792
2390+265009545+264853900+264959394+264958339+264556404+264080421+264040539
2376+264211670+263874819+263300698+263078831+262446870+260582433+258225527
2363+257149057+257853123+258307624+257649241+258024227+259498108+260436530
2349+260815762+261222831+262351063+263867686+263974734+263005588+261743554
2336+260073534+259087625+259650978+260976847+262381177+263868852+264869109
2322+264582548+263409993+262639789+262873201+263735577+264528206+264729090
2309+264563148+264661259+264776522+264300428+263649678+263671492+264433176
2295+265257334+265552277+265453722+265453722+265528713+265471457+265478701
2282+265493910+265398630+265359191+265273570+265229941+265363854+265489414
2268+265624576+265685663+265591660+265599264+265718940+265603316+265365686
2255+265661517+266281238+266211631+265596350+265640202+266448984+266847783
2241+266485064+266172137+266098172+265796291+265437347+265390970+265394356
2228+265285671+265415199+265626269+265432351+265106629+265003217+265120284
2214+265317061+265166439+264802833+264720098+264688042+264594927+264854261
2201+265261608+265243124+264868416+264475917+264207257+264113476+264138400
2187+264095159+263833549+263462560+263353403+263734272+264333622+264908437
2174+265321224+265242874+264869498+264779214+264945239+264740691+264113282
2160+263823169+263952003+263949977+263779151+263827193+264150972+264283498
2147+264151277+264126576+264233208+264263349+264104734+263868380+263775098
2133+263767355+263682372+263611655+263577378+263397643+263141223+263120157
2120+263258817+263355318+263529197+263461560+263002147+262807979+262945806
2106+263049218+263162510+263332310+263568885+263849674+263937904+263748788
2093+263530696+263320181+262970008+262719943+262898596+263226566+263143360
2079+262811060+262796322+263171697+263604327+263724697+263588258+263600220
2066+263821364+264005097+264016726+263837351+263598083+263570134+263709654
2052+263695083+263562474+263648734+264009843+264353633+264447608+264299734
2039+264077757+263946869+264012674+264363707+264730145+264735418+264632395
2025+264677995+264633005+264499092+264492042+264549549+264598257+264769306
2012+265159473+265509868+265473316+265370737+265649749+266007111+266116073
1998+266130617+266153458+266108413+266086848+266263115+266541683+266744482
1985+266697744+266400719+266378044+266903263+267428482+267475192+267187271
1971+266834766+266626444+266887998+267499449+267827558+267833719+267963747
1958+268195549+268329296+268361713+268356357+268486162+268558823+268339482
1944+268383167+268792956+268835392+268732369+268996838+269111351+268848076
1931+268781466+269027423+269303326+269512537+269609066+269599407+269555278
1917+269619640+269810172+269928404+270014164+270086519+269998872+269883831
1904+269756051+269541706+269527940+269786498+270069451+270399724+270873126
1890+271261933+271222633+270792695+270447711+270455732+270557395+270679042
1877+271113754+271621515+271629925+271310225+271242783+271368759+271260407
1863+271019612+271020167+271242339+271433870+271587267+271752903+271840662
1850+271775495+271521712+271272341+271426487+271832086+272068911+272087507
1836+271954925+271871663+271951512+272062833+272168216+272326775+272483391
1823+272558161+272568541+272591549+272672591+272755687+272855962+273034171
1809+273152903+273151071+273062647+272814525+272548252+272559271+272782997
1796+272886797+272769952+272715277+272779361+272679529+272509341+272510979
1782+272742781+273124872+273309658+273177160+273032645+272978913+272921712
1769+272979218+273143939+273234278+273401469+273779230+274052136+274036372
1755+273940343+274076615+274476274+274881290+275056862+274970797+274830333
1742+274870688+275021698+275107735+275250780+275520966+275717798+275989372
1728+276354921+276415842+276061172+275671560+275767922+276544676+277281631
1715+277233172+276979278+277074391+277391981+277631360+277559061+277255653
1701+277358121+277968878+278271647+278368814+278389797+278193159+277940652
1688+277684343+277587453+277879260+278207952+278328460+278285996+278309837
1674+278453964+278322687+278039928+277940485+277799023+277602579+277549957
1661+277347852+276723024+275858567+275277868+275675196+276019596+275507256
1647+274913734+274580741+274225905+273883197+273498137+273090068+273116240
1634+273320816+273298140+273379849+273648231+274031820+274572581+275093498
1620+275548609+276276100+277293898+278034516+278697978+279702954+280649924
1607+281222574+281809906+282712026+283669209+284304667+284753534+285299846
1593+285780519+286141267+286715055+287499913+288129293+288582961+289181173
1580+289891317+290520419+291133924+291596668+291928024+292489739+293125725
1566+293424581+293405042+293156837+293067413+293816247+294792608+295305948
1553+295515380+295627424+295602722+295442026+295504723+295953590+296720519
1539+297298276+297126783+296896396+297115349+297243906+296863397+296483249
1526+296645000+297199305+297806315+298218907+298372110+298358344+298239168
1512+298209748+298305084+298454151+298758585+298972153+298921891+298641491
1499+298318156+298342885+298375107+298090544+297990879+298244802+298209776
1485+297728104+297236440+296806945+296185225+295227792+293950798+292567728
1472+291267976+290181681+289657295+290108909+291339360+292456074+293240765
1458+294436856+296256748+297502435+298216381+299060661+300003024+300809475
1445+301550204+302167510+302347357+302170980+302069039+302094378+302126740
1431+302321962+302570750+302491789+302152745+301894105+301809566+301783616
1418+301747757+301790665+301870098+301799907+301680926+301868738+302500088
1404+303323469+304041412+304675010+305329424+306072512+306837859+307173073
1391+306722513+305420624+303159498+300165469+297239021+295409193+295450352
1377+297397108+300505789+303309952+304650087+305036285+305874292+307902701
1364+310765536+313651879+316042118+317958566+319452125+320392934+320842495
1350+320983707+320782351+320251138+319703466+319625783+320316943+321536403
1337+322686588+323515991+324243704+324967003+325456058+325507598+325232360
1323+324954847+324750827+324450222+324176150+324289498+324752742+325160339
1310+325458529+325944531+326674325+327474670+328294387+329255206+330430398
1296+331711000+332903427+333959526+335115207+336519953+337892365+339002057
1283+340060848+341193549+342233994+343228451+344291156+345299795+346160283
1269+346904898+347644018+348446944+349283147+350110386+350841123+351500588
1256+352261634+353177741+354129623+354924057+355488408+355966972+356504986
1242+357165839+357947311+358657788+359161275+359565513+359941415+360352314
1229+360885027+361486680+362144646+362873497+363497742+363961069+364519259
1215+365217969+365782015+366183034+366679361+367303023+367852638+368323902
1202+368816038+369285332+369733977+370260001+370853272+371344214+371613096
1188+371811344+372215416+372779296+373144789+373147232+372879710+372366231
1175+371374466+369563234+366710251+362840469+358594842+355100961+353301469
1161+353606903+355659457+358534893+361449961+364105834+366458494+368371972
1148+369735753+370646393+371209385+371293591+370450865+368413382+365636251
1134+362928200+360965264+360416676+361813457+364904209+368828361+372756676
1121+375877180+377733513+378612819+379012839+379244807+379600920+380414587
1107+381793716+383628845+385785394+388049573+390380252+392945091+395644982
1094+398198137+400454990+402450537+404446556+406544544+408438734+409974979
1080+411274009+412552113+414176727+416035614+417521402+418493850+419277209
1067+420235392+421481995+422809668+424104896+425293465+426358973+427534442
1053+428789316+429816606+430734878+431900800+433162613+434245911+435324380
1040+436530934+437741290+438936992+440201413+441446379+442564314+443706784
1026+444943034+446207067+447654665+449222328+450499599+451530442+452680184
1013+453931089+455027126+456009787+457299937+458958022+460522632+461896154
999+463295627+464622745+465742262+466778822+467892316+469135700+470346611
986+471370460+472354121+473408166+474548915+475843644+477165683+478281342
972+479142218+479782395+480066652+479726498+478246205+474640504+467994673
959+458503604+448213772+440739260+439580609+445578187+456037930+467349002
945+477477972+485726879+491931196+496323949+499617306+502452886+504970072
932+507237083+509376147+511403361+513226584+514822389+516267989+517610066
918+519056443+520817052+522692397+524314624+525714097+527132442+528633273
905+530165743+531480566+532660837+534127030+535769851+537315699+538664159
891+539870075+541300688+543082890+544770616+546068231+547276034+548552390
878+549925552+551570870+553181774+554503035+555802982+557248027+558780053
864+560365867+561997364+563403608+564557235+565853685+567204865+568437314
851+569865595+571610940+573287176+574697806+576109380+577567802+579042377
837+580525057+581699555+582607114+583654720+584796135+585553100+585497148
824+584082633+580860715+577007058+575450997+578259157+584376604+591022101
810+596494044+600421915+603097910+605105308+606693342+608191564+609984201
797+611684695+612954168+614099468+615416733+616942321+618545730+620189328
783+621814109+623308944+624713135+626063650+627530121+629258091+631077705
770+632691828+634056331+635458412+637045503+638802726+640604966+642241015
756+643836875+645604589+647418986+649164164+650972066+652922957+654923805
743+656858211+658652513+660258254+661890417+663898093+666002742+667710174
729+669246197+671079134+673062386+674774203+676427460+678560251+681009439
716+683193021+684992874+686669000+688461526+690481358+692684479+694850409
702+696748067+698531712+700411720+702293781+704069987+705728739+707583712
689+709928212+712523497+714961973+717175751+719562548+722215451+724707603
675+726999425+728934108+729940638+731000734+734637520+738427064+740965621
662+743066884+745107809+747259529+749524430+751925548+754307849+756560427
648+758985192+761694936+764297049+766721814+769396587+772302885+775201246
635+777988868+780631113+783127650+785374733+787676825+790388234+793270552
621+795826427+798002238+800393364+803232997+806239821+809110649+811704659
608+814326144+816993702+819418189+821634076+823999280+826862393+829831804
594+832436249+834941889+837634647+840361488+843018221+845926573+848888380
581+851361103+853638494+856207413+859119096+862210014+865448085+868674721
567+871719124+874764137+877804599+880909727+883958959+886666982+889312780
554+892216581+895375441+898419344+901176659+903723097+906229459+909171948
540+912386817+915297611+917842884+920423072+923386155+926556506+929538184
527+932314593+935053257+937657701+940467637+943581314+946136024+948271646
513+951080028+954491007+957626443+960666405+963839475+966476226+968662583
500+970555745+972104535+973847049+975883866+978038362+980227161+982493228
486+985219346+988307711+991344454+994135739+996298117+998080596+1000876544
473+1004684073+1007369560+1008449860+1009451006+1011274229+1013754224
461+1016146738+1017849175+1019370987+1021843101+1024634941+1026518778
449+1028175476+1030103165+1031526950+1032370008+1033432546+1035156076
438+1036977078+1038692059+1040747972+1042690981+1044070804+1045364034
426+1046589544+1047436710+1048155874+1048932767+1050387081+1052950672
415+1055901488+1059271169+1062854778+1064893594+1064114148+1062246297
403+1062459005+1066551180+1073741823
##END=
