##TITLE=павел 1-многокр
##JCAMP-DX=4.24
##DATA TYPE=INFRARED SPECTRUM
##DATE=2/2/2015
##SAMPLING PROCEDURE=Instrument type and / or accessory
##ORIGIN=Default
##XUNITS=1/CM
##YUNITS=TRANSMITTANCE
##RESOLUTION=4
##FIRSTX=3996.3347
##LASTX=399.24773
##DELTAX=-1.928733
##MAXY=1.1473645
##MINY=0.19295116
##XFACTOR=1
##YFACTOR=1.0685665e-009
##NPOINTS=1866
##FIRSTY=0.32846978
##XYDATA=(X++(Y..Y))
3996+307392938+308539078+309862765+309924458+309174468+308606209+308685333
3983+309268792+309561944+309533775+309757146+309797419+308810308+307410620
3969+306931135+307241746+307629557+308101372+308512917+308641880+308572099
3956+308097021+307559246+307922625+308510490+307962089+307270082+307986995
3942+308906919+308229164+307400217+308279059+309356562+308429944+306947646
3929+307181978+308175364+308600380+308160582+307113954+306813914+307505167
3915+307983063+307795335+307179245+306652960+306242029+305612858+305011076
3902+304736108+304648506+304863845+305968010+307543907+308227016+308041715
3888+307980692+307700063+307121596+306861410+305915158+304463986+304714326
3875+306126369+306750324+306571020+306262974+305916636+305161208+304404273
3861+304618357+305215621+305322747+304961236+304473189+304708581+305425717
3848+305785944+306215701+307269497+308340082+308855350+308354948+307052624
3834+306161594+305695915+305133680+304527407+304161044+304244937+304287804
3821+303619365+302742364+302155028+301788860+301746607+302079251+302545349
3807+302573601+302694253+304023045+305203238+304467081+303137286+302703847
3794+303456124+304434673+304519710+303784780+302863964+302448682+302454650
3780+302193154+302266421+303010888+303372343+303144314+302729088+302390392
3767+302786207+303776748+304426669+304347684+303416800+301945295+300440350
3753+299383264+299679428+301091471+302140525+301927334+300690914+300180555
3740+300224956+300225207+301086199+302167523+301714924+300576816+300112448
3726+300424593+300673037+300291864+299806383+299824846+300190930+300148509
3713+299661466+299408002+298892818+298038687+298260579+299972858+301350680
3699+300943096+299866932+299063728+298014478+296550643+295087729+293869968
3686+293081712+292529741+291949490+291540288+291838934+292832320+293363792
3672+293634688+294012792+293180415+291787393+291229258+291369183+291974591
3659+292712895+292557464+291278624+290112208+289949330+290419082+289695085
3645+288070967+287551961+287581246+286599295+285353811+284753479+284065739
3632+282395741+280244864+279556734+279879812+279178044+277488300+275559846
3618+273961832+273674788+273955166+272516879+269816401+268276566+267818306
3605+267302341+266700447+265419068+263340482+262145591+261979952+261083707
3591+259599986+258791176+258367862+257443531+256053884+254331063+252146773
3578+249563239+247546206+247065131+247096926+246397165+245251834+244158128
3564+243631509+243847712+243955451+243640490+243273597+242227972+240305905
3551+238498633+236907369+235153115+233357459+231854704+231138182+231371370
3537+231985159+232101084+231597307+230681539+228907093+226423837+224536646
3524+223704631+222901706+221771464+221016146+220645209+220213012+219602388
3510+218560515+217031251+215463010+214192341+213361805+212442955+210779790
3497+209266437+208756747+208561740+208245146+207816463+207084155+206148739
3483+204862466+203197669+202088888+201465463+200274616+199041682+198491440
3470+198148059+197743291+197187583+196875856+196997596+196280879+194690688
3456+193753905+193400483+192509160+191234685+190717130+191406501+192132422
3443+191072253+188450746+186560167+186577584+187511885+187456900+186033269
3429+184913931+184669155+184531643+184631350+185251414+185449684+184263969
3416+182749779+182329699+182396984+182436142+182725319+182755914+182285438
3402+181565750+180896042+180863480+181447064+182037105+182463028+182834411
3389+182793775+182112143+181337638+180991774+181388677+182583540+183825719
3375+184442144+184402331+183549050+182582188+183107691+184664399+185602647
3362+186034510+186870833+188131629+188862500+188878955+188934680+188958261
3348+189174436+189887068+190465939+190971612+191725005+192458066+193089635
3335+193934800+195163480+196474631+197733976+198864692+199505131+199489930
3321+199256380+199551400+200305880+200940727+201367304+201951725+203133913
3308+204290595+204498152+204571824+205399892+206310194+206917136+207511012
3294+208012976+208464139+208987648+209580994+210574687+211968797+213318492
3281+214399550+215032402+215016463+214345415+213882609+214849011+216870465
3267+218714580+219934823+220414852+220232019+220408939+221717510+222955910
3254+223120015+223135592+223911101+225428345+226702235+226589197+225917703
3240+226162912+227083924+228338695+229905695+231056492+231789162+232414080
3227+232734996+233149191+234076338+235134764+235758412+236494429+238233706
3213+240143808+241339285+242267269+242815949+242560840+242190572+242642697
3200+243851617+245141446+246292662+247112237+247474947+248201565+249629338
3186+250886089+251227212+250816894+250600328+251104719+252174329+253497179
3173+254500690+254967234+255173257+255546202+256495745+257578519+258227910
3159+258722093+259298802+260110875+261061757+261602684+261781738+262237544
3146+263448723+264841299+265224870+264742680+264521763+265006742+265668767
3132+265938659+265931408+265953887+266237947+266959851+267925961+268847307
3119+269662672+270481968+271217400+271069918+270163046+270024015+270520931
3105+270554064+270628391+271259012+271848523+272086034+272386967+272806042
3092+272893533+272564459+272256107+272278057+272263303+272073121+272240098
3078+272753163+273187968+273541195+273533776+273012010+272928452+273601800
3065+274057495+273838642+273534752+273956087+274929504+275454003+275246027
3051+274643185+273768610+273126220+273396613+274191395+274682426+274687614
3038+274625475+274973012+275463430+275381935+274726520+274297600+274453254
3024+274724986+274734999+274337287+273577843+272939552+272587022+272046765
3011+271338917+270959947+270670616+269823485+268475394+267170058+265977817
2997+264561757+262654025+259997307+256320819+251390034+245348947+238345991
2984+229884582+219842075+208969380+198308231+189232001+183046110+180570105
2970+182513676+188778858+197832469+208020813+218261799+227887518+236328623
2957+242600332+246691349+249712060+251561976+251661013+250882854+250107735
2943+248951918+247256233+245595216+244132999+242985214+242634107+242969763
2930+243534424+244295988+245125827+245753018+246297319+246806395+247094137
2916+247295335+247701135+248233583+248636984+249048556+249509495+249466153
2903+248825911+248304116+248173814+247907827+247136390+246030970+245149506
2889+244995944+245168834+245080116+245071916+245661288+246556529+247145315
2876+247823460+249271398+250970735+252219120+253130007+254221399+255519874
2862+256335461+256741679+257445232+258204008+258842717+259907613+261046222
2849+261585755+262263565+263583711+264459792+264589815+264978769+265885584
2835+266811449+267263685+267382441+267791782+268174573+268031497+267921945
2822+268143169+268177362+268081281+268497065+269249565+269680521+269897478
2808+270196877+270129969+269705316+269960453+270777742+270848164+270182039
2795+269777997+269932452+270345084+270517221+270278706+270131586+270401924
2781+270853798+271065790+270877030+270658819+270798743+271163238+271291504
2768+271209172+271345555+271659624+271958437+272141340+272195698+272338160
2754+272372827+272024648+271815529+272110103+272229361+271871727+271822613
2741+272163262+272200327+272013018+271809784+271486371+271369707+271432237
2727+271194697+270783710+270479960+270369906+270528182+270782985+270975036
2714+271015448+270828669+270624626+270633551+270967450+271462135+271553614
2700+271286846+271331944+271735819+271999938+271948062+271841550+271770319
2687+271622781+271601947+271921511+272346527+272462438+272125498+271561339
2673+271178410+271068161+270968928+270813832+270623287+270359866+270022230
2660+269797129+269945030+270179836+270253382+270374620+270481829+270603653
2646+271155484+271916965+272113087+271867321+271911694+272160500+272163206
2633+272241409+272652954+272767052+272428607+272147950+271998348+271888210
2619+271840769+271912977+272097079+272170485+272054518+272075352+272292643
2606+272209280+271865452+271695686+271554451+271252235+271004794+271083110
2592+271410817+271559638+271296691+270958553+270967171+271251175+271613103
2579+271896522+272103912+272423921+272412096+271832375+271485395+271532418
2565+271404737+271210985+271315210+271540087+271411375+271082357+271297974
2552+271914064+272126363+271926141+271709407+271475968+271259709+271260462
2538+271361117+271403064+271429894+271492591+271637758+271691697+271393051
2525+270816286+270504336+270711587+270742126+270325868+269997575+269838183
2511+269767956+269955545+270305983+270518867+270667911+270957130+271098505
2498+270968593+271028808+271395394+271605322+271499647+271362316+271218543
2484+270946895+270729660+270670031+270534653+270275973+270346981+270926479
2471+271228472+270697642+270040637+269941962+270131614+270237819+270340817
2457+270566531+270769124+270655054+270242003+270068499+270417068+270889832
2444+270898645+270283810+269642814+269401203+269361962+269458824+269647667
2430+269812859+269992861+270081161+269971414+269806082+269559702+269277288
2417+269353427+269615454+269657373+269710894+269798998+269690032+269503336
2403+269296364+269135690+269161154+269281889+269409486+269370635+269140878
2390+269103003+269270064+269259717+268779005+268008683+267763781+268009101
2376+267581157+266758597+266738739+266696012+265936233+265871193+266086197
2363+264797707+263068052+262867914+264096524+265412514+265783367+265546553
2349+265566495+265826318+266115147+266603612+266933719+266883628+266901729
2336+266811309+266413207+266354359+267066698+267715196+267634762+267163978
2322+266551737+266049299+266295065+267359208+268410857+268699156+268415989
2309+268039864+267665580+267582607+268012532+268496312+268652552+268826306
2295+269250430+269510113+269487020+269635256+269901633+269854109+269777857
2282+269924977+269782376+269386059+269265379+269225524+269018692+268995041
2268+269441448+269986586+270073436+269817294+269620697+269513349+269455282
2255+269644320+270054192+270161680+269850009+269663564+269693602+269583799
2241+269410825+269461529+269671848+269872711+270074272+270201088+270178469
2228+270072738+269827223+269585556+269590325+269591636+269462003+269439133
2214+269361097+269018329+268739122+268719013+268806560+268971892+269164026
2201+269269618+269268056+269185474+269063845+268912012+268705403+268420479
2187+268166708+267980096+267766904+267722643+267871436+267899717+267911932
2174+268182354+268521245+268617187+268425945+268054869+267839502+268083177
2160+268522445+268587233+268083930+267483598+267235572+267265024+267440173
2147+267596134+267443129+267095759+267033286+267264717+267470796+267632642
2133+267685382+267581296+267492802+267448289+267409076+267376082+267377142
2120+267353435+267137483+266946297+267111936+267359404+267239058+266888704
2106+266841012+267112717+267286973+267436603+267587153+267400402+267152655
2093+267230524+267302285+267064969+266681202+266411088+266444946+266697462
2079+266933802+267130259+267210359+267130622+267007097+266811560+266635017
2066+266675401+266908896+267266167+267674003+267772538+267375719+267099469
2052+267366097+267758398+267999200+268193538+268321748+268269427+268096453
2039+268016799+268137869+268331091+268437771+268459051+268409490+268293635
2025+268248035+268395824+268565312+268575715+268676760+268969410+269120602
2012+269103087+269059941+268897426+268714579+268802823+269248840+269820752
1998+270139563+270173505+270198020+270383098+270646659+270709858+270650564
1985+270795229+270980195+271014221+271071814+271089273+270995284+270935432
1971+270848053+270869305+271202507+271504974+271593887+271755036+272096326
1958+272401414+272480064+272380608+272234465+272173916+272390175+272822888
1944+273054598+272985626+272969924+273131100+273213460+272988834+272675015
1931+272672115+272957680+273146077+273078584+273056132+273232759+273406905
1917+273492611+273552658+273646647+273840148+274015074+273932743+273787966
1904+273787854+273792038+273910347+274134945+274221962+274261789+274395075
1890+274589803+274684016+274646058+274726632+274884294+274868229+274840311
1877+275043602+275329335+275473554+275478379+275475423+275499966+275445887
1863+275350196+275360544+275463653+275546403+275617438+275741577+275782659
1850+275535721+275222460+275355719+275929751+276337586+276446078+276501719
1836+276406224+276043821+275725847+275791528+276130754+276356942+276339650
1823+276230712+276189462+276243569+276372672+276559842+276684398+276706376
1809+276816792+276992778+276985108+276816458+276760008+276828701+276761905
1796+276602095+276547710+276625746+276765168+276822259+276779141+276798831
1782+276896502+276936050+276926177+276925842+276910614+276934600+276905231
1769+276722719+276647472+276686239+276719596+276887215+277270367+277793472
1755+277975901+277626551+277438544+277862500+278523661+278973470+279007162
1742+278804959+278639348+278486957+278539195+279201890+279841463+279838591
1728+279603812+279477025+279564627+279744545+279870050+280177398+280545658
1715+280487228+280386043+280595246+280875903+280998201+281015521+281042184
1701+281150955+281335168+281504516+281719660+281842710+281742278+281637858
1688+281698993+281929309+282198029+282176833+281869875+281591477+281665274
1674+281727859+281323789+281057049+281303122+281341415+280942951+280631977
1661+280483407+280066173+279393354+278862245+278907009+278867544+278292285
1647+277887183+277883139+277688104+277261610+276794006+276388792+276373732
1634+276636985+276740597+276939118+277538223+278324498+279033908+279486061
1620+279544602+279697160+280617949+281810999+282657517+283310645+284031908
1607+284955988+285830312+286404957+286855604+287355002+287836161+288360102
1593+289048818+289770974+290406336+291142883+292089526+292910579+293391794
1580+293771153+294341197+295060425+295517263+295791979+296172483+296530953
1566+296772648+296932206+296919405+297069537+297835787+298407364+298504896
1553+298502665+298690392+299104001+299223872+298867968+298517307+298675722
1539+299399468+299933924+300147450+300398850+300511833+300361171+300339807
1526+300526196+300696688+300985098+301353413+301585849+301737096+301776142
1512+301689655+301448463+301260400+301716848+302231028+302252085+302128923
1499+301867259+301505860+301269632+301114814+301069661+301203895+301268767
1485+300853625+299939390+298976348+298162100+297181292+295877016+294291832
1472+292585689+291421727+291230653+291963546+293071561+293948422+294827961
1458+296223856+297790744+298807447+299721597+300879311+302083657+303186930
1445+304140043+304732287+304712262+304309419+304097901+304149386+304193313
1431+304339652+304492266+304260137+303860502+303678603+303540743+303436936
1418+303511904+303454451+303227064+303130035+303292550+303616129+304101276
1404+304805080+305504004+306039324+306554676+307259401+308034910+308307507
1391+307742428+306220610+303532683+300091000+296806060+294669881+294790366
1377+297330699+300884638+303615125+304829038+305352645+306468914+308757763
1364+311991804+315474959+318356136+320358303+321634745+322376117+322743261
1350+322802528+322584316+322103939+321472063+321110692+321539975+322811201
1337+324351957+325751561+326869197+327417180+327470673+327453130+327384967
1323+327027947+326439942+325925790+325663624+325615625+325673831+325874500
1310+326397186+327150216+327839936+328467963+329266064+330388162+331781296
1296+333258434+334747983+336135344+337223333+338231640+339512098+340974817
1283+342371409+343602111+344684271+345655373+346635819+347763634+348852851
1269+349705839+350487428+351388219+352406372+353287250+353917926+354696894
1256+355709887+356575955+357226517+357802195+358447319+359216581+359864577
1242+360290290+360813730+361602850+362483114+363288410+363786163+363937940
1229+364224119+364841214+365415803+365890352+366587797+367399396+368047281
1215+368634979+369154933+369582263+370176404+370888966+371467711+372001582
1202+372537209+372875599+373047457+373241376+373551652+373985955+374430606
1188+374824524+375146403+375363610+375577610+375789379+375714940+375015431
1175+373463380+370927175+367382607+362966977+358204118+354198165+352145377
1161+352549141+354950610+358235243+361475309+364474990+367173069+369307937
1148+370825655+371664949+371725749+371184209+369993111+367817021+364755675
1134+361560150+359245335+358648461+360227426+363725613+368130421+372313922
1121+375452468+377269222+378138665+378666400+379164962+379649216+380327250
1107+381566430+383444627+385743433+388278969+391030792+393880146+396711483
1094+399575898+402385481+404943859+407222863+409371007+411456761+413312227
1080+414840990+416210975+417582354+419001035+420466738+421827045+422970340
1067+424075649+425282393+426498147+427701405+428913616+430071219+431223857
1053+432392532+433461667+434453826+435562119+436790311+437918322+439041481
1040+440307826+441543604+442765633+444085360+445366097+446470931+447544111
1026+448792439+450173190+451578428+452845889+453909865+455032716+456385855
1013+457813600+459101421+460274447+461436540+462641472+464038649+465512441
999+466734999+467814733+469017656+470193945+471302517+472672139+474177084
986+475392921+476429704+477656808+479042774+480147051+480822268+481455036
972+482298820+483118117+483303920+482321746+479910153+475311872+467347826
959+456160978+444315397+435937714+434505395+440672711+452085719+465175334
945+477031626+486359549+493232371+498259321+502116676+505285873+508102596
932+510692127+512907151+514826262+516657855+518376213+519910108+521365854
918+523020122+524988710+526936492+528407690+529583086+530926269+532400758
905+533921544+535476356+536971818+538514916+540144696+541579971+542701651
891+543930373+545513187+547087243+548388646+549662383+551197002+552808654
878+554347624+555932279+557441184+558769529+560000036+561222733+562502606
864+563920366+565493028+566906047+568054390+569255055+570622780+572088902
851+573628988+575257485+576838291+578276634+579726133+581121526+582398665
837+583689972+584974139+586222440+587343674+588119351+588500663+588309728
824+586627403+582586644+577454771+574981486+578069077+585472645+593479754
810+599585824+603418970+605958467+608298215+610499907+612168343+613526084
797+614903906+616262986+617673495+619372833+621197620+622713609+623961743
783+625098260+626168233+627400580+628890799+630627844+632474051+634161787
770+635651949+637128948+638655647+640166058+641875046+643838670+645767096
756+647585078+649319557+650997699+652609797+654135045+655702798+657405371
743+659261786+661174928+662965467+664694703+666550225+668526120+670431788
729+672197058+674050516+676079904+677988584+679614237+681298347+683341011
716+685565350+687805475+689951109+691900286+693707112+695506909+697396792
702+699263079+701171369+703202877+705053881+706736931+708602047+710817015
689+713256052+715644886+717881218+720047993+722348639+724834643+727138301
675+729137457+730872661+731951669+733255527+737019395+740720621+743287840
662+745521885+747550939+749704493+752145594+754648387+757191677+759796603
648+762082244+764110071+766461756+769067296+771695594+774370357+777105641
635+779973626+782793584+785261682+787682144+790460490+793234821+795651768
621+797759416+799817754+802373148+805481823+808722307+811829644+814698242
608+817326652+819698585+822010276+824312150+826563431+829221237+832218575
594+835090297+837930615+840638177+842996667+845505987+848712166+851929222
581+854374283+856758487+859633501+862575729+865511430+868639852+871749476
567+874736886+877831282+881051183+884319445+887514635+890608864+893522532
554+896045518+898426487+900988965+903859683+906594689+908788349+911249921
540+914407013+917598188+920455239+923365171+926542400+929474588+932099372
527+935113891+938585081+941785180+944468867+946802368+949026652+951745704
513+955317967+959154070+962183370+964485188+966892095+969394944+971817916
500+973930305+975562763+977261934+979321889+981558667+983857919+986179595
486+988540093+990927701+993679998+996984517+1000084881+1002454081+1004682716
473+1007257856+1009438519+1010667687+1011756067+1013673784+1016422399
461+1019027883+1021049239+1023068252+1025170601+1027276073+1029510397
449+1031638850+1033296186+1034136568+1034908228+1037213393+1040173861
438+1041645672+1042695229+1044949745+1046619799+1046444761+1046153031
426+1047095490+1048701732+1050444411+1053566418+1058052469+1060382400
415+1061034803+1062796782+1064913521+1065610994+1065066693+1064944647
403+1066706737+1069862658+1073741823
##END=
