##TITLE=павел 1-многокр
##JCAMP-DX=4.24
##DATA TYPE=INFRARED SPECTRUM
##DATE=2/2/2015
##SAMPLING PROCEDURE=Instrument type and / or accessory
##ORIGIN=Default
##XUNITS=1/CM
##YUNITS=TRANSMITTANCE
##RESOLUTION=4
##FIRSTX=3996.3347
##LASTX=399.24773
##DELTAX=-1.928733
##MAXY=1.1508049
##MINY=0.19461189
##XFACTOR=1
##YFACTOR=1.0717706e-009
##NPOINTS=1866
##FIRSTY=0.32864779
##XYDATA=(X++(Y..Y))
3996+306640063+306841132+306583476+305991000+305652483+306184952+306776371
3983+306454898+306081261+306583115+306873889+305941532+304632118+304315762
3969+305247118+306130590+305821269+304862830+304080936+303716891+303766470
3956+304128540+305569230+307593719+307526454+305867317+305317441+305445573
3942+304883518+303876390+303129977+302735484+302532357+302386428+302439733
3929+303255051+303992205+303797530+304105572+304979062+304901148+304671910
3915+304807940+303926553+302996477+303876585+305225679+304919722+303509926
3902+303311776+304368150+303974909+301913270+301032884+302474547+304276833
3888+304641322+303676850+302686739+302641053+302753920+302530021+302764765
3875+303246987+303100279+302668998+302448575+302555269+303049449+303944600
3861+305018436+305241973+304547920+304248860+304263708+303503865+303313167
3848+304010918+304156208+303750454+304085190+304576311+303757572+302029669
3834+300884481+300960003+301673466+301850761+301469615+301202811+301178452
3821+302005227+303530559+303385575+300936368+299209326+299638966+300924300
3807+301304082+300737217+300602883+300810042+300905753+301288038+301698519
3794+301676080+301402629+301347572+301768453+301960736+301069673+299712292
3780+298921472+298960985+299382951+299583992+299667718+299871735+300170518
3767+300301876+299797325+299162639+298986512+299004697+299124099+299408560
3753+299790151+299769324+299062841+298854430+299061395+298063554+297051031
3740+297748922+299133330+299440788+298515078+297448082+296927709+296714182
3726+295823285+294786988+295172249+296285459+297011073+297176328+296981014
3713+296919923+296195839+295185596+295854651+296800549+296026635+295083462
3699+295475341+296020991+295878343+295177560+294375506+293777941+293171507
3686+292313172+291362157+290742848+290356336+290304282+290590079+289936539
3672+288891761+288605826+288775418+289094138+289343452+289253859+289084322
3659+289110544+288820076+288108198+287831828+287947949+287672830+286737610
3645+285381703+283811658+282311657+281279809+280793276+280508675+280305270
3632+280210449+279615860+278056882+276420851+275498505+274989144+273625340
3618+271567066+270279841+269019645+266924027+265495239+265714272+265709266
3605+264064087+261892891+260378570+259478302+258969079+258733224+258200143
3591+257439965+256644751+255260176+253891284+252954868+251485371+249513742
3578+247722912+246428792+246021202+246301354+246400068+245696838+244360285
3564+242864733+241176176+239525130+238276807+237170242+236201321+235867780
3551+235882879+235323382+234145688+233039971+232154678+231175356+230115451
3537+229281642+228748283+228156836+227355699+226527896+225683604+224762009
3524+223450565+221757850+220467414+219706444+218892642+217698097+216816849
3510+216997745+216914951+215535173+213904439+212796192+212062890+211208142
3497+209915537+208794137+208454466+208126542+207457028+207343382+207388332
3483+206433146+204410075+202347811+201438701+201555225+201937052+201915724
3470+200964612+199407469+197804542+196437680+195529348+195029816+194358829
3456+193375100+192989491+193054044+192344252+191108707+190248286+189580719
3443+188787868+187843430+186519946+185225979+185031193+186133782+187642514
3429+188428927+187549417+185251769+183586570+183719402+183924851+183211069
3416+183180106+184235382+185000898+184958632+184276786+183209498+182329947
3402+181878437+181611118+181658931+182214772+182520756+182048113+181579807
3389+181872639+182757126+183756162+184591362+185093605+185241217+185260862
3375+185367542+185496509+185635987+185889209+186066490+186322074+186811109
3362+187010886+187105804+187493901+187696389+188034629+189379844+191076423
3348+192007014+192289348+192560588+193071048+193651219+194147484+194714378
3335+195351720+195809097+196387711+197667608+199065545+199740898+200147779
3321+200649980+200928825+201214649+202096495+203494945+204618931+205117879
3308+205464475+205992717+206626639+207103814+207288033+207644639+208573840
3294+209855183+211050520+211507814+211126363+210844960+211396268+212923519
3281+214723442+215496577+215541804+216130763+217055083+217355644+216937989
3267+216587320+216911628+217653481+218598003+220008716+221682675+223178241
3254+224273321+224533980+224149568+224062408+224482844+225154930+226357011
3240+228068133+229467140+230294776+231182809+232357527+233240944+233546233
3227+233890952+234627438+235385752+235859883+236047133+236312269+237164681
3213+238494728+239516871+240137960+241004609+242042074+242865957+243408436
3200+243812522+244349357+244892865+245442157+246345233+247409782+248215423
3186+248798028+249431602+250159329+250786758+251199408+251515625+252225945
3173+253658125+255058856+255579035+255713980+256078442+256428611+256909026
3159+257808348+258424236+258298411+258353385+259186388+260024675+260736163
3146+261921420+262905580+262990501+263036549+263584201+263735580+263300351
3132+263319927+263911763+264603842+265348364+265846715+266007882+266282528
3119+266894579+267749911+268583860+268840821+268453363+268161032+268070188
3105+267947978+268190201+268666807+268916844+269127729+269466470+269896916
3092+270318270+270303560+269928310+269944076+270302726+270308260+270132550
3078+270416567+270829133+270847069+270847152+271223988+272049983+272785552
3065+272514521+271625849+271290223+271870992+272682918+272647576+271725702
3051+271034513+271219233+271888038+272427931+272544135+272396176+272292513
3038+272479679+272926837+273101241+272854651+272545303+272333083+272194578
3024+272051346+271745751+271007902+270140558+269894108+270227259+270371325
3011+269884264+269164295+268510923+267670190+266778403+266043724+265019746
2997+263364389+261208625+258656311+255640904+251527415+245636804+238486691
2984+230627858+221555710+211392694+201546535+193063777+186556526+183304166
2970+184749359+190876758+199612209+209117751+219039906+228327179+235205037
2957+239699839+243351294+246657835+248899577+249931148+250320663+249971078
2943+248504445+246599775+245104557+244085528+243359441+242990531+243136376
2930+243397397+243455485+243800871+244686846+245741496+246563543+246986259
2916+247137611+247174649+247280481+247693688+248232886+248489235+248395721
2903+248280824+248405120+248583222+248420163+247566750+246224719+245197876
2889+244841117+244734062+244614855+244701361+244963411+245260024+245837790
2876+246870778+248054812+249329829+251198657+253246782+254509091+255165105
2862+255726827+256303620+256819238+257176247+257725094+258709032+259721944
2849+260397478+260729545+260921939+261183404+261605982+262410066+263511931
2835+264228174+264241800+264121564+264472595+265211194+265851164+266026123
2822+266039887+266166797+265926381+265485451+265512701+265955883+266547859
2808+266996519+266928837+266448672+266204197+266576917+267248669+267650642
2795+267597420+267542946+267816008+268075471+268115235+268370889+268949406
2781+269290343+269142217+268711965+268457201+268741329+269121779+268990893
2768+268534614+268282714+268422109+268765993+269125616+269545357+269690230
2754+269093082+268428810+268415435+268490096+268220594+267988186+267992719
2741+268043994+268116097+268339551+268464875+268312662+268065850+267560353
2727+266950582+266794865+266931006+267056442+267241968+267560993+267835528
2714+267863640+267903459+268066823+268187587+268292224+268365661+268364883
2700+268442352+268833424+269274688+269235230+268900077+268832006+268968620
2687+268862399+268790546+269063552+269162655+269175863+269552198+269848283
2673+269685586+269127424+268302624+267645748+267524844+267575953+267247890
2660+266836186+266908038+267464031+268212474+268835454+269173444+269019006
2646+268500495+268391466+268755343+269088995+269360527+269546748+269484683
2633+269171942+268857672+268784985+268898102+269096697+269390808+269619156
2619+269515298+269246936+268975794+268497826+268122993+268315609+268706209
2606+268884143+268961446+268836650+268469547+268237250+268327733+268701815
2592+269017476+268937560+268609247+268047498+267433333+267501821+268261164
2579+268847606+268973431+268851109+268438932+268129277+268567899+269239846
2565+269110100+268351619+267935743+268313635+268999763+269185539+268819938
2552+268417520+268409484+268666390+268452668+267854214+267583989+267623947
2538+267867394+268373447+268685243+268244897+267324609+266908372+267350413
2525+267875959+267866310+267645748+267683537+267850960+267751163+267443983
2511+267268161+267145729+266878479+266700600+266927197+267422238+267643273
2498+267389649+267176149+267306312+267472123+267418901+267130213+266758716
2484+266623187+266857930+267101155+266942435+266542381+266340838+266406295
2471+266531230+266728546+267000467+267133049+267079132+267059918+267174815
2457+267047766+266652050+266603333+266839022+266766530+266620490+267001412
2444+267457274+267224310+266654859+266460017+266740614+267193278+267343990
2430+266936651+266491661+266417501+266412579+266496861+266621574+266548276
2417+266531536+266470751+266198691+266005574+265847048+265613778+265461009
2403+265506667+265846464+266269792+266396618+266295792+266166018+266040332
2390+266048702+266195382+266130008+265679875+265145626+264708645+264212853
2376+263655886+263327879+263012246+261819648+259918398+258164773+256364850
2363+255226057+256494012+258260845+258536214+260117243+262512283+263119552
2349+262560555+261752690+260829510+259513450+257930419+257310887+258315012
2336+260243568+261856519+262889536+263589039+263680439+263661114+264023796
2322+263994877+263497945+263196521+262859338+262508835+262782119+263897971
2309+265276929+266008271+266078705+266111434+266041472+265688634+265607661
2295+266140074+266724598+266816415+266705049+266726794+266646377+266552196
2282+266736499+266967850+266985952+266724292+266270710+265879387+265732457
2268+265890093+266229111+266516854+266574414+266495610+266492913+266461102
2255+266329215+266262229+266266233+266199803+266089355+266204030+266650326
2241+266983866+266864187+266699683+266706662+266597994+266484126+266457570
2228+266340060+266319733+266518717+266711306+266694177+266368144+265830837
2214+265307739+265039043+265071827+265268031+265628294+265868320+265570372
2201+265119071+265159696+265432924+265331680+265130360+265244367+265354148
2187+265244145+265088873+265046996+265151104+265222845+265076082+264869757
2174+264923284+265073857+264979676+264896840+265063124+265152411+264940080
2160+264603453+264382807+264312317+264285094+264305393+264380833+264264657
2147+263847752+263594600+263825423+264158519+264165053+263894106+263753015
2133+263924609+264077601+264002690+263898888+263921996+264131074+264590940
2120+265001782+264987601+264781387+264632622+264404357+264162384+263921050
2106+263529060+263345648+263692424+264089920+263995794+263649213+263642567
2093+263980501+264236210+264187410+263918464+263738027+263689226+263516297
2079+263397785+263704103+264214966+264418566+264254007+264040480+263994043
2066+264080326+264101181+264042899+264142697+264227285+263956337+263669067
2052+263612591+263515435+263488296+263696261+263947578+264194584+264425657
2039+264596501+264759197+264892475+264939273+264886385+264811446+264886607
2025+265175351+265519403+265733097+265727035+265517512+265348420+265425110
2012+265718304+266098921+266402347+266565766+266474449+266191962+266180811
1998+266552669+266915129+267020849+267018180+267021239+266977109+267099765
1985+267406611+267471956+267296691+267394654+267909160+268261414+268034846
1971+267705448+267621472+267523955+267537051+267885552+268383708+268777783
1958+268870379+268867682+269048870+269242321+269307305+269378740+269484655
1944+269430794+269212150+268988502+268881641+269091915+269525781+269738196
1931+269566796+269319067+269284865+269463828+269747845+269957729+269957563
1917+269865050+269874838+269896610+269859155+270058056+270573452+270975369
1904+271018691+270947256+270934660+270925734+270960047+270996529+271010822
1890+271158420+271398113+271576659+271728372+271872744+271839904+271650208
1877+271595540+271673509+271729762+271855226+272119389+272384414+272582870
1863+272712782+272624274+272425706+272446005+272518581+272354049+272192186
1850+272295432+272454987+272488744+272596217+272833741+272961123+272871725
1836+272629251+272388640+272377045+272662758+272968992+273127935+273192502
1823+273149569+273086587+273191723+273447294+273585215+273487224+273248310
1809+273014262+272987122+273162888+273366544+273567113+273753723+273784171
1796+273578625+273382505+273497068+273673501+273717408+273773966+273830831
1782+273938137+274084705+274024504+273816955+273738819+273779611+273625952
1769+273395463+273419932+273623004+273923566+274142432+274217482+274552107
1755+274941984+274931501+274797473+274956137+275290540+275338311+275043506
1742+274965452+275313564+275652276+275925087+276308067+276427803+276236632
1728+276145009+276230265+276342520+276387900+276465509+276948760+277604774
1715+277662055+277552358+277773671+278013670+278080072+278169665+278303999
1701+278471757+278652778+278761891+278927813+279057698+279061313+278969412
1688+278659952+278233843+278088832+278225501+278242852+278054240+277931696
1674+278044480+278171306+278246022+278271410+278118307+277831732+277573158
1661+277414521+277233667+276861614+276430889+276421101+276517980+276326893
1647+276191752+275938378+275261537+274660163+274433984+274261806+273918589
1634+273548399+273427829+273757477+274323036+274743305+275113523+275602447
1620+276138113+276940196+278103180+278958929+279462701+280083512+280957307
1607+281900119+282641722+283236950+283838797+284443535+285132000+285809842
1593+286254692+286643095+287316933+288201184+288875578+289340004+289872028
1580+290297720+290719908+291547322+292255306+292579031+293031917+293656593
1566+293972588+293856356+293588272+293826992+294922712+295483155+295286117
1553+295159124+295434743+295879594+296117313+296226037+296471597+296952151
1539+297337773+297118852+296818512+297041049+297403619+297477668+297626156
1526+297962254+298179786+298280251+298423149+298701076+299098628+299357063
1512+299341463+299092010+298915493+299351668+299792542+299771409+299669943
1499+299553099+299416597+299232878+298951503+298753909+298668292+298545359
1485+298215962+297565676+296818568+296171230+295406742+294415130+293324610
1472+292051428+290814784+290180904+290506742+291631131+292766753+293603343
1458+294704681+296227733+297336744+298201753+299276952+300475445+301444589
1445+301941800+302137697+302209522+302236411+302432475+302607741+302469264
1431+302371023+302504995+302522263+302466733+302624174+302801692+302829665
1418+302755255+302484502+302112810+301991379+302219310+302628790+303152055
1404+303748813+304438640+305301340+306164486+306853145+307367984+307419176
1391+306727264+305328619+303191958+300347340+297451252+295714228+296031418
1377+298245882+301319626+303768194+304858381+305318191+306231806+308176184
1364+311087232+314233023+316735119+318488799+319791401+320718279+321263984
1350+321388057+321078236+320612808+320209501+320052394+320634943+321984259
1337+323337051+324315038+325053916+325590917+325923095+326036963+325982407
1323+325891924+325701198+325369299+325159664+325236466+325399274+325540281
1310+325878410+326508786+327281699+328068349+328872294+329862293+331114342
1296+332462212+333763646+334987277+336196003+337407092+338470279+339425158
1283+340519238+341773261+342968557+343937534+344722571+345545452+346563063
1269+347613264+348505968+349355850+350256145+351061564+351702061+352374843
1256+353263125+354316830+355263395+355849948+356281145+356830966+357388683
1242+357917788+358499919+359098818+359701471+360241059+360642253+361069224
1229+361662144+362291881+362824294+363335881+364013723+364769034+365321858
1215+365784143+366407845+367082768+367652414+368208046+368788843+369272567
1202+369649013+369924243+370151924+370606118+371309625+371988774+372501111
1188+372790272+372969458+373240545+373490805+373552369+373511048+373221692
1175+372194349+370277054+367500590+363732375+359441062+355861265+354099743
1161+354386652+356227784+359072958+362307286+365300141+367790446+369683382
1148+370976863+371872682+372350928+372083484+370844337+368627370+365805915
1134+363101360+361202473+360738631+362171645+365309845+369306241+373177785
1121+376122785+377864425+378750817+379255452+379724105+380238333+380777114
1107+381687725+383317221+385531546+388065619+390830822+393647438+396218133
1094+398508592+400762681+403080641+405307507+407419865+409349200+410873031
1080+412202604+413690954+415312775+416845949+418018694+418860790+419769399
1067+420933134+422195304+423398191+424592069+425859773+427069250+428177372
1053+429362017+430635755+431854408+433003156+434122289+435112205+436000654
1040+437083528+438455479+439870391+441091102+442129040+443227263+444612199
1026+446074411+447227468+448374297+449899407+451409835+452647369+453878424
1013+455196374+456468638+457637295+458767579+460056805+461580608+463065927
999+464382960+465660841+466865341+467937398+468995773+470210256+471548199
986+472800276+473906034+475027920+476277772+477393764+478242199+479209981
972+480318742+481042104+481148103+480685067+479269487+475767132+468990546
959+459184873+448735616+441375119+440364710+446287632+456669736+468163466
945+478483894+486689352+492761596+497112999+500291852+502873086+505308334
932+507737076+510038464+512040985+513685302+515138477+516622071+518261105
918+520134382+522075896+523695576+524978018+526381696+528085186+529829996
905+531344067+532504437+533608026+535057975+536807568+538555826+540023738
891+541310629+542669205+543979898+545213566+546611183+548265622+549995361
878+551627165+553195569+554603141+555738430+556725621+557799790+559253966
864+561016183+562690364+564106500+565384047+566691237+567968062+569169586
851+570489511+572037394+573759347+575548036+577222162+578675559+580081017
837+581490034+582611753+583409025+584288604+585492520+586627697+586911325
824+585498693+581999229+577791753+576068688+579010907+585470553+592448347
810+597922749+601695051+604380003+606448649+608107926+609597750+611248406
797+612943888+614343284+615558489+616863843+618178262+619393523+620821894
783+622444800+623956423+625472941+626996077+628419053+629930065+631637892
770+633250510+634688502+636293945+638061668+639844962+641625031+643327742
756+645010822+646850007+648776728+650456582+652033051+653883471+655759751
743+657434544+659231185+661236710+663216598+665202658+667159744+668944985
729+670699583+672595494+674490849+676135389+677808347+679929659+682212471
716+684300526+686321901+688422914+690491950+692412609+694352677+696393016
702+698257228+700010269+701940716+703875000+705614471+707396098+709599328
689+712105706+714377841+716258403+718058604+720097775+722538029+725309348
675+728074773+730354582+731797635+733197865+736346521+739687264+742392738
662+744713757+746519630+748425107+750803129+753305336+755665507+757909224
648+760238418+762684678+765135943+767603225+770181956+773041033+776187575
635+779201313+781914906+784413553+786663777+789050253+791813063+794533052
621+796854738+798987896+801478424+804386274+807218990+809783262+812494241
608+815548409+818400479+820812370+823112145+825565079+828315265+831164276
594+833796229+836205618+838672955+841329155+843956881+846862173+850051037
581+852673813+854934269+857534523+860264077+863210355+866936554+870604916
567+873162680+875578798+878670895+881976101+885159793+888138606+890909814
554+893703490+896544493+899180783+902000931+905114884+908073120+911043924
540+914129625+917099039+919610367+922109237+925448312+928789667+931360668
527+934031772+937164578+940057690+942650269+945185566+947477388+949991329
513+953401089+957294795+960479321+962557477+964441209+966851710+969936020
500+972815897+974279082+975423936+977782383+980422121+982216761+983938992
486+986386865+989176425+992381751+996009959+998850684+1000784357+1002972738
473+1005581889+1007766044+1009275054+1010315689+1011355323+1013634021
461+1016924879+1020035328+1022970596+1025203579+1026504929+1027979348
449+1030220673+1032457883+1033768353+1034890740+1037047088+1039300982
438+1040085351+1040455513+1042351369+1044770100+1045606968+1045254825
426+1045594289+1047092621+1049191910+1051533672+1053670334+1055714009
415+1058220165+1060931311+1063170411+1064256093+1063845000+1063837659
403+1066265623+1070086030+1073741823
##END=
