##TITLE=павел 1-многокр
##JCAMP-DX=4.24
##DATA TYPE=INFRARED SPECTRUM
##DATE=2/2/2015
##SAMPLING PROCEDURE=Instrument type and / or accessory
##ORIGIN=Default
##XUNITS=1/CM
##YUNITS=TRANSMITTANCE
##RESOLUTION=4
##FIRSTX=3996.3347
##LASTX=399.24773
##DELTAX=-1.928733
##MAXY=1.1492052
##MINY=0.19478345
##XFACTOR=1
##YFACTOR=1.0702808e-009
##NPOINTS=1866
##FIRSTY=0.32784814
##XYDATA=(X++(Y..Y))
3996+306319753+306733730+306790423+306782125+307160989+307841222+308442097
3983+307961514+306415096+305259097+304980031+305258039+304995485+303927338
3969+304022541+304954246+304322575+302799713+302630302+303788000+304953188
3956+305653582+306015292+305886313+304864528+303877300+304208771+304925398
3942+305222870+305613596+305944788+305994102+305659986+304613642+303746956
3929+304269279+305039703+304602142+304217180+304652876+304624112+304382442
3915+305196055+306473432+306616362+305298776+303780148+303388085+304120807
3902+304186550+303387278+303002455+302695655+302456297+302699025+303042469
3888+303574621+304628957+305610282+305857827+305340656+303935330+302538274
3875+302895112+305146100+306404375+304392299+301901423+301304698+301913397
3861+303176990+304060494+303899743+303672108+303937502+304204733+304256303
3848+303861734+303534468+304426967+305560689+304790293+302521928+301215593
3834+301622831+302756163+303897906+304140550+303085128+301892011+301293977
3821+300895316+300298841+299984244+300862152+302014921+302263607+302063455
3807+301848628+301639176+301917908+302398212+302052651+301196240+300681881
3794+300481617+300030829+299866820+300747540+301820727+302392698+303006298
3780+303491113+302881885+301686234+301235948+301414436+301587578+302131955
3767+302654639+302136883+301648810+302101575+302198783+301489786+301322741
3753+301970842+302045523+301245164+300809190+300448398+299751513+299107339
3740+298648643+299072198+299960715+299149720+297733924+297363943+297126701
3726+296834854+296825108+297063882+297122747+296297884+295518605+295988300
3713+296997081+296820402+295781771+295414825+295055565+294216641+294288509
3699+295104238+295295341+294976790+294464937+294091727+294132771+293135685
3686+290815361+288783599+287587753+286989747+286645913+286489673+287063509
3672+288254426+289411288+289653403+288833470+288081284+287942809+287950884
3659+287861890+287562052+286921804+286168616+285925805+286541521+286480567
3645+285180580+284242888+284205576+283553995+281989951+281259205+281237709
3632+280660419+279806542+279204387+278132314+275908391+273335399+271821615
3618+271381325+271280135+271509775+271066784+268667797+266002748+265206845
3605+265164214+264375022+263404138+262724573+261292209+259387672+258638661
3591+258373016+256928289+254926599+253441580+251966613+250852605+250638140
3578+250315830+249513133+249249131+248977556+246960941+244036318+242879540
3564+243019629+242245529+240885396+240177735+239759637+239213284+238823616
3551+238363055+237579598+236251293+234092973+232114395+231181521+230505868
3537+229005213+226671413+225241666+225713631+226405281+225976310+224946325
3524+223865606+222920103+222183163+221204817+220115160+219576895+218877435
3510+217653242+216724350+215748148+214346122+213379276+213049059+212731733
3497+212025381+210513435+208739827+207970906+208097992+208298938+208146234
3483+207174571+205441951+203815129+202339953+200500490+199146609+199055958
3470+199383879+198877957+197001530+194943175+194374016+194608975+194237853
3456+193512551+192750773+192231276+192373552+192120939+190977276+190525151
3443+191227563+191766607+191192311+189433670+187350087+185766829+184832131
3429+184991588+185715998+185948826+186261961+186886156+186734315+185328864
3416+183828613+183554337+184012337+184738947+185972773+186548935+185478213
3402+183829421+182812885+182252303+181992854+182453555+183241091+183777726
3389+184189336+184478663+184399986+183914530+183718708+184494409+185543287
3375+185913825+185696868+185750804+186445657+186926003+187118289+187844049
3362+188681707+188979554+188925061+188887108+189328679+190186106+191039120
3348+192068743+193035087+193276632+193197147+193522826+194186102+194677127
3335+194932789+195581808+196760960+197797586+198514561+198997901+198744898
3321+198275022+199043595+200732498+202085113+203140548+204304901+205471286
3308+206773988+208060094+208316578+207551541+207288152+208184827+209417777
3294+210448987+211398332+212271589+212999703+213525604+214146123+215155071
3281+215875931+215940323+215940769+215942592+215888238+216400940+217549560
3267+218617150+219365800+220191512+221136888+221862788+222567122+223443025
3254+224166934+224683158+225122488+225702395+226436022+226769874+226817545
3240+227384685+228551098+229667723+230253478+230577458+231413946+233067374
3227+234785904+235618201+235862432+236595461+237790777+238573426+239009428
3213+239884440+241436232+243153231+244122778+244133665+244064693+244096743
3200+243845967+244098107+245415553+246965396+247970557+248470381+249208895
3186+250718307+252273663+252903664+252613488+252256288+252750459+253861014
3173+254813046+255642754+256154829+255902133+255566151+255985641+256976601
3159+257988611+258842433+259580501+260145177+260593514+260983655+261181998
3146+261398523+261856217+262347074+263070162+264005152+264233289+264006043
3132+264645511+265784497+266166312+266025804+266222699+266584298+266636954
3119+266874725+267582163+267876377+267608728+267727015+268286038+268503621
3105+268374363+268484491+268802652+269005394+269134847+269431288+269935762
3092+270261553+270254007+270240641+270239750+270004401+269811962+270235935
3078+271250285+272349256+273097544+273108237+272401968+271779207+271928625
3065+272681674+273185953+272688078+271848681+271760160+272250183+272844513
3051+273294800+273576985+273936468+274038939+273677841+273372711+273176318
3038+272746748+272236316+271944859+271917849+272053066+272205964+272325142
3024+272356830+272212786+271918823+271598992+271234747+270722616+270230895
3011+269821708+269401967+269056657+268605006+267671770+266484083+265562736
2997+264410914+262296563+259727497+257063283+253374278+247703660+240082420
2984+230986242+221108779+211301082+201984577+193803744+187729605+184729883
2970+186041370+191777926+200449603+210267240+219802693+228307785+235367203
2957+240767415+244996592+248374287+250525004+251433960+251325864+250325186
2943+248833512+247039047+245254551+244182033+243707326+243194665+242797145
2930+243180965+244447510+245741733+246156879+246033803+246317770+247093151
2916+247658216+247675313+247848650+248520670+248945673+248760307+248352372
2903+248080908+247807690+247495098+247494792+247519825+247117265+246412750
2889+245584157+244899022+244686980+245011211+245633164+246224126+246880691
2876+247971643+249435110+250652675+251150633+251488787+252506729+253908379
2862+255137528+256333346+257268865+257673207+258275613+259460209+260768578
2849+261810439+262389817+262843361+263398569+263537128+263281619+263327258
2835+263750590+264103140+264381649+264903777+265422507+265491842+265512559
2822+265859178+266216322+266519725+266574859+266096977+265531104+265407025
2808+265853080+266544424+267051209+267336595+267568296+267852959+268204980
2795+268554077+268497857+267877909+267293296+267215301+267410859+267451680
2781+267658460+268387812+269064816+269271206+269065067+268660084+268544693
2768+268845172+269263966+269642022+269825161+269780524+269679836+269443234
2754+269072251+268733735+268456451+268528320+268814236+268552406+267974476
2741+267874595+268339529+269276385+270173394+270109489+269019066+267724147
2727+267235044+267879273+268800981+268892175+268158423+267678202+267757422
2714+267794679+267826256+268039077+268360858+268834229+269029619+268593394
2700+267994191+267745894+267970327+268390736+268739527+269067350+269217074
2687+269147405+269278083+269624034+269668363+269421710+269280673+269157402
2673+268980639+268696589+268141855+267741411+267729883+267752605+267780450
2660+267732667+267280292+266853924+267164957+267925469+268293083+268182147
2646+268231739+268502702+268660084+268843863+269210169+269571295+269536349
2633+269320798+269535764+269786901+269670870+269573773+269367829+268845255
2619+268602945+268800230+268885603+268701212+268402598+268301631+268657105
2606+269204432+269750702+270125055+269843483+269191373+268982310+269023688
2592+268674424+267978820+267420883+267417820+267868358+268331760+268636833
2579+268778287+268695197+268437238+268170507+267925385+267748428+267871950
2565+268255853+268387896+268041138+267815062+268120581+268534028+268784274
2552+268926258+268835120+268615114+268586183+268696951+268720536+268678824
2538+268821448+269113155+269029007+268587630+268350360+268263956+268270723
2525+268631181+268826878+268352616+267897261+267987926+268045009+267668456
2511+267312231+267364079+267633928+267771205+267645484+267528645+267775883
2498+268202084+268342480+268104625+267796934+267700562+267728435+267649410
2484+267535745+267564621+267537360+267256568+266995685+267049677+267290316
2471+267434249+267396073+267239554+267158831+267170331+267118511+267173561
2457+267255621+267205026+267417653+267762545+267697248+267398161+267372599
2444+267773461+268044730+267605359+267012699+266847297+266826497+266882884
2430+266849664+266400380+266083945+266377992+266727256+266582655+266354491
2417+266500372+266637511+266449805+266171602+266072083+266156427+266174833
2403+265986097+265805381+265900472+266151080+266369861+266622780+266745606
2390+266563303+266304091+266014248+265548480+265001959+264444830+263922396
2376+263528941+262988352+261850898+260347863+259750163+260154811+259641510
2363+258149000+256453025+255200848+256842414+259732704+260473974+260358138
2349+260779632+261286724+261610732+262170284+262893956+262799254+262094211
2336+261836446+261574867+261000613+261237159+262089143+262515678+262540738
2322+262313437+262511417+263466345+263896388+263495165+263265413+263527410
2309+264226523+265108134+265654069+265924503+266072724+265964572+265845784
2295+266049556+266310189+266263492+266112515+266240436+266693702+267041324
2282+266901985+266728648+266866900+266838442+266560463+266384146+266345274
2268+266459551+266649289+266614427+266470327+266453342+266285295+265972202
2255+266040841+266596105+267088605+267083342+266904686+266833068+266526436
2241+266046020+265841273+265828186+265842777+266048554+266392082+266543700
2228+266382225+266157290+266190231+266522704+266749616+266559627+266189201
2214+265741503+265345821+265466252+265941238+266250600+266290892+266049334
2201+265689461+265648082+265919574+266054457+265864468+265594591+265602722
2187+265728862+265602527+265412901+265330952+265236166+265210215+265252456
2174+265072826+264821354+265008531+265442862+265504400+265175241+264973362
2160+265001096+264863819+264621620+264551116+264645873+264927055+265191085
2147+265095854+264785545+264618947+264668762+264740352+264685302+264683576
2133+264795458+264751880+264599956+264518035+264391840+264182694+263954474
2120+263791244+263824492+263918386+263924401+263993680+264088772+264016931
2106+263894690+263962410+264196617+264351075+264307274+264160529+264038260
2093+264036868+264231368+264535522+264693433+264613127+264360960+264003732
2079+263764708+263774398+263852281+263967700+264158524+264195531+264120822
2066+264259018+264482672+264457611+264357869+264401614+264326766+264129649
2052+264175705+264421663+264577680+264657652+264764355+264688616+264417931
2039+264451039+264895841+265310653+265542298+265672948+265707170+265835593
2025+266038808+265855252+265320231+265044089+265261728+265617313+265701072
2012+265630039+265829105+266193990+266388907+266534928+266711997+266819925
1998+266908418+266871077+266571601+266300248+266436105+267013450+267700812
1985+267979488+267871226+267834665+267811748+267601878+267351381+267255036
1971+267518119+268101117+268614863+268789927+268733874+268740501+268877333
1958+269022797+269203876+269380972+269414358+269351261+269415611+269734580
1944+269995073+269990729+270071508+270213380+270064714+269826079+269786456
1931+269767771+269684569+269765683+269977307+270046503+270047589+270124916
1917+270102500+270064658+270297919+270565540+270560723+270610455+270958828
1904+271281416+271422647+271511836+271626197+271830693+272007483+272015864
1890+271930825+271770046+271653039+271791292+272003362+272055739+272057465
1877+272137966+272317652+272322970+271850797+271365397+271497802+272005561
1863+272391247+272478514+272487898+272658005+272856988+272934899+272870883
1850+272701305+272592625+272683400+272876201+272862251+272674545+272690807
1836+272927966+272987583+272790549+272743240+273060426+273403536+273578850
1823+273694297+273602853+273163955+272790828+272828140+273052323+273266704
1809+273540480+273842880+273947300+273796128+273591854+273438788+273307052
1796+273215163+273204804+273342193+273600960+273839260+273933377+273771373
1782+273515391+273541148+273801975+273921097+273914526+274056509+274157866
1769+274096022+274210466+274431697+274527597+274581199+274730728+274963209
1755+275055767+275031569+275228798+275644779+275948544+276053242+276049316
1742+275994739+275988920+276094871+276294912+276554096+276721085+276913719
1728+277189220+277312993+277285677+277212917+277155555+277311322+277649114
1715+277851633+277919965+277921246+277844171+277817690+277885521+277949120
1701+278348505+279043803+279236716+279133660+279089497+279032219+278943588
1688+278832067+278899341+279089915+278961910+278702614+278666415+278912735
1674+279080615+279041353+279095206+279173117+279002843+278596913+278109453
1661+277598519+276977986+276316993+275951050+276215386+276283440+275794615
1647+275444794+275417561+275158460+274619152+274162154+274082684+274383246
1634+274433424+274175687+274215701+274651759+275241440+275906720+276415761
1620+276650358+277040610+278036470+279317551+280355346+280958142+281419734
1607+282213326+283062191+283727249+284452981+285216500+285815565+286302970
1593+286889615+287523069+288026401+288516284+289102929+289731649+290354215
1580+290862086+291317134+291912579+292328170+292431254+292763142+293474117
1566+294070898+294328746+294266734+294503977+295551156+296077043+295999716
1553+295978972+296055574+296175727+296191237+296038589+295956055+296408096
1539+297226665+297532853+297659521+298009537+298165916+298085555+298200249
1526+298512145+298797838+299095449+299335476+299383425+299325702+299204965
1512+299017037+298750724+298660199+299328320+300107571+300264034+300145858
1499+300081424+300122914+300057979+299822184+299592711+299479631+299299054
1485+298842001+298278606+297764219+297135834+296227129+295134813+294024480
1472+292824513+291678594+291049290+291335345+292446012+293642888+294588153
1458+295696035+297160783+298172293+298781576+299666195+300876910+301859126
1445+302321999+302505110+302606188+302746947+303050962+303171671+302957346
1431+302820486+302858300+302820792+302702311+302637459+302660543+302810155
1418+302958293+302924154+302865874+302876678+302860723+302950663+303424785
1404+304204176+304931970+305559186+306174874+306808522+307474332+307779740
1391+307427496+306343060+304153999+301074584+298051750+296156792+296451256
1377+298930883+302188564+304536817+305540056+306109103+307096025+308874702
1364+311502215+314443684+317010829+319096890+320572163+321272585+321577491
1350+321792791+321747626+321304858+320656897+320341910+320778553+321898910
1337+323376244+324754003+325633971+326117004+326515332+326690869+326466714
1323+326081780+325700577+325358358+325215846+325290388+325515656+325931248
1310+326456216+327020585+327680909+328406252+329225852+330240564+331452142
1296+332721555+333819663+334894048+336265848+337754376+339072017+340237093
1283+341354137+342476554+343548683+344480443+345280134+346020430+346715365
1269+347445609+348438685+349595937+350590322+351481818+352367216+353151563
1256+353957741+354855224+355597219+356055609+356432662+356954233+357614724
1242+358301919+358996159+359686946+360231072+360557865+360864943+361400214
1229+362179048+362920012+363418081+363870039+364544843+365405932+366119301
1215+366495659+366785473+367321078+368158582+368992912+369502815+369792741
1202+370120480+370499121+370840449+371186260+371586426+372003716+372409840
1188+372865417+373488234+374143713+374565653+374687254+374474711+373902127
1175+372825682+370856627+367769917+363784275+359602965+356287170+354753589
1161+355223507+357205732+359979879+362939476+365697277+368140900+370227713
1148+371773797+372624722+372764422+372238313+371132491+369467368+367169516
1134+364451672+362220955+361623366+363101034+366169089+369943161+373643834
1121+376634227+378520220+379454375+379999169+380588905+381271700+382093639
1107+383235604+384755318+386621206+388717570+391033466+393705922+396512703
1094+399055817+401356371+403607220+405724496+407655152+409594718+411458908
1080+412952698+414209859+415568906+416999795+418283743+419440605+420578755
1067+421738430+422917540+424049703+425215448+426478373+427680874+428773998
1053+429846962+430943261+432012187+432968285+433904473+435070106+436542706
1040+438095780+439454186+440580224+441617295+442663166+443822339+445202382
1026+446561819+447590481+448616832+450042262+451573839+452959423+454313485
1013+455514677+456466737+457503948+458881122+460346427+461624361+462888873
999+464356628+465854067+467140493+468317042+469590409+470859321+471966006
986+473174159+474664552+476114069+477306183+478239726+479000572+479831087
972+480718462+481396050+481702181+481399725+479885775+476232801+469600823
959+460199014+450092356+442851205+441872693+447838165+458065644+469141264
945+479172266+487393433+493441383+497785422+501370397+504392729+506793665
932+508918153+510953145+512938740+514769849+516295161+517752028+519309863
918+520895209+522577513+524376043+526054114+527493216+528824502+530145039
905+531541649+532940042+534185452+535522808+537193917+538879729+540221707
891+541536564+543189129+544870318+546254287+547517017+548952722+550580895
878+552327075+554019236+555409665+556679301+558001453+559273093+560551918
864+561925695+563388243+564749602+565969951+567349353+568873050+570287760
851+571674067+573355424+575162642+576611045+577877729+579315495+580852223
837+582218426+583272316+584391364+585763527+586875279+587369645+587170551
824+585757122+582525727+578505307+576863379+580009233+586703307+593707911
810+599061176+602622148+605070588+607039253+608710586+610182657+611677283
797+613340930+615119690+616667612+617914359+619153086+620426732+621816715
783+623366642+624976158+626644372+628183940+629557049+631053179+632806711
770+634589146+636157451+637664440+639262149+640882469+642469987+644085629
756+645878423+647905674+650001704+651788093+653290795+655029290+657004805
743+658865040+660593567+662296587+664165455+666157732+667945069+669589224
729+671348938+673339823+675411571+677326551+679225881+681246561+683316917
716+685407489+687450389+689331564+691165513+693173663+695242181+697089496
702+698669217+700439457+702715256+705007706+706884815+708548017+710457706
689+712640613+714763095+716931355+719375062+721905701+724178047+726123823
675+728103849+730049959+731371053+733209513+737675292+741470109+743785059
662+745744034+747726900+749992730+752333130+754522052+756794008+759369423
648+762042018+764494412+766879977+769486021+772216924+774845412+777549695
635+780369202+783089802+785729985+788252216+790604478+792901718+795375497
621+797776655+799879089+802542050+805943134+809041651+811535591+813956854
608+816625327+819332228+822052160+824750874+827228273+829755961+832340007
594+834809331+837390538+840065026+842730270+845476377+848443241+851405483
581+853931110+856342238+859009430+861643655+864266406+867404631+871021183
567+874459134+877245895+879694613+882738888+886307991+889683959+892775069
554+895571687+898094029+900494519+903130414+906066704+909108250+912307901
540+915267303+917880420+920818660+924442451+928119204+930926793+933057574
527+935277682+937921652+940886400+943964869+946790947+949147219+951802661
513+955350268+959044675+961722505+963621111+965987853+969011410+972072058
500+974168143+975196527+976803982+979437371+981784732+983486193+985614245
486+988770235+992154890+995425157+998762031+1001478621+1003671719+1006290294
473+1008815086+1010087061+1010550964+1011292207+1012938200+1015771853
461+1018939649+1021215058+1022951159+1025287271+1027922219+1029765691
449+1031362008+1033835899+1036305111+1037962354+1039610575+1041167686
438+1041987230+1043055265+1045321764+1047339214+1047647851+1047782289
426+1049389521+1051066033+1051642320+1052451951+1054423846+1056578740
415+1058379888+1060060966+1061913460+1064126496+1065641393+1065915503
403+1066540909+1069170176+1073741823
##END=
