##TITLE=павел 1-многокр
##JCAMP-DX=4.24
##DATA TYPE=INFRARED SPECTRUM
##DATE=2/2/2015
##SAMPLING PROCEDURE=Instrument type and / or accessory
##ORIGIN=Default
##XUNITS=1/CM
##YUNITS=TRANSMITTANCE
##RESOLUTION=4
##FIRSTX=3996.3347
##LASTX=399.24773
##DELTAX=-1.928733
##MAXY=1.1513118
##MINY=0.18587163
##XFACTOR=1
##YFACTOR=1.0722426e-009
##NPOINTS=1866
##FIRSTY=0.33343092
##XYDATA=(X++(Y..Y))
3996+310965920+312466567+313242169+313027819+313181411+313536984+313739994
3983+313427891+312254385+311225409+311105865+311100390+310524546+310055015
3969+310213749+310139399+309078765+307877575+307956261+309131575+310190763
3956+310368703+309650496+309125571+309328081+309643936+309833383+310061130
3942+310247297+309839831+309352012+310355028+312400444+313108089+312155103
3929+311482535+311258679+310329846+308556370+306457505+305324161+306731724
3915+309526394+310876673+310673468+310442052+310150100+309293477+308626968
3902+309242335+310547782+310758658+309722261+308594142+307843666+307386949
3888+307588875+309076597+311064785+311746081+311123014+310658487+311004277
3875+311425084+311111952+309879577+308296770+307373135+307570308+308525323
3861+309060199+309006528+309201255+309331222+308360308+307311459+307175712
3848+307468970+307850670+307796999+307790718+309048664+310297966+309714867
3834+307999509+306407419+306130726+306490358+305917932+305064089+304792593
3821+305391785+306761520+307551686+307558301+307658722+308068523+308531383
3807+307700497+306076249+306019854+306677108+306461396+306257608+306811021
3794+307374719+306670576+305286416+304862774+305494513+306670521+307763924
3780+307863539+307057002+306008876+305065395+304530826+304523905+305018006
3767+305506186+305392118+304826558+304079445+303706556+304609095+306407920
3753+307662780+307109061+305712143+305557161+306108435+305851698+304734587
3740+303447595+302985347+303514524+303136243+302443273+303070843+303652079
3726+303292670+303205784+303680512+303523307+302441550+301687794+302318866
3713+303621477+303644268+302456031+302160799+302647506+302409475+301991614
3699+302256523+302326676+301690184+300623769+299703108+299047717+298143871
3686+297276853+296731472+296083724+295116285+294178113+293992697+295200140
3672+296757599+296952715+295850223+295271989+295536703+295803918+295490341
3659+294441215+293225099+292958106+293696742+294351189+293617667+291942027
3645+290295432+288361332+287025757+287363236+288203321+287936384+286404524
3632+284524068+283163338+282269526+281029952+279572693+278435458+277379966
3618+276015290+274538630+273125174+271562213+270200594+269941272+270428313
3605+270310548+268965244+267146047+265605376+263945162+262356935+261662243
3591+261820809+261223981+258937448+257171282+256565336+255565489+253934181
3578+251870420+249533913+247833481+247318479+247139483+246490234+246025345
3564+246239445+246045246+244907177+243856855+243066577+241731419+240350482
3551+239467399+238377081+236771066+234808477+232837133+232065491+232715268
3537+232989974+231773719+229922294+228723619+228363099+227436934+225233020
3524+223205753+222300880+221633967+220418449+218829959+217149621+215625294
3510+214519870+213640122+213162587+213255614+212931963+211809278+210895149
3497+210803441+210591912+208717181+205847689+204221009+204107913+204467031
3483+204772421+204084205+202018304+199934767+199316412+200091667+200536543
3470+199698098+198258655+196692455+195572758+195082257+194280222+193172561
3456+191927219+190005919+188579928+188898452+189715634+189657572+188638949
3443+187121306+186078795+185569060+184727474+184239793+184804311+185228731
3429+184896074+184166694+182987893+181870836+181738591+182106102+181835829
3416+181056836+180336642+179527547+178698650+178592878+179221337+179351414
3402+178223477+176820625+176833605+178175170+179152657+179459479+179887568
3389+180332070+180114912+178985418+177857758+177816470+178626273+179488010
3375+179996661+180333946+180894447+181406476+181579704+181691243+181734213
3362+181802573+182357141+183082977+183478700+184006251+184897492+185639616
3348+185977873+185806354+185459953+185880649+187333864+188881427+189524242
3335+189712896+190210791+190554066+190701334+191754755+194006003+195959462
3321+196349083+195804605+195413260+195509054+196112108+197081743+198019873
3308+198944023+200018136+200598789+200516907+200340774+200251790+200947358
3294+202879207+204793170+205832360+206802718+208069891+208846814+209071837
3281+209351907+209617719+209702214+209813211+210325002+211144826+211808027
3267+212556572+213400451+214034649+214842160+215935174+216698171+216787197
3254+217039736+217850304+218353452+218722992+219522928+220595736+222212841
3240+224313610+226044672+227190898+228049300+228519956+229006858+230261260
3227+231717714+232533826+233302077+234593376+235769245+236609720+237367089
3213+237676579+237947741+238916153+239811494+240011252+240163537+240817456
3200+241873698+242987808+244101779+245353249+246537512+247527270+248758033
3186+250092636+250464414+250255289+250875965+251789594+251942658+251869336
3173+252485927+253816805+255145071+256055810+256592186+257208081+258503022
3159+259700543+259669886+259212112+259665800+260768875+261517045+261992885
3146+262830329+263571467+263854914+264496102+265502509+265988160+265821255
3132+265644872+266119433+266945677+267510292+267857194+267859862+267644400
3119+268098199+269205332+269916507+269994165+270005199+270395377+271207862
3105+271674280+271382550+271386497+272400158+273575471+273987273+273814225
3092+273682535+273733121+273656603+273379576+273214728+273378576+273773617
3078+273920427+273688789+273785485+274451884+275107219+275578195+276168353
3065+276632269+276538324+276410637+276967470+277752466+277587479+276433595
3051+275506541+275328074+275473772+275425938+275122006+275119366+275590564
3038+276165908+276447909+276150454+275516464+274992873+274700754+274613841
3024+274913743+275521578+275573220+274954878+274704284+274866103+274553528
3011+273638592+272683772+272002670+271360342+270474646+269305281+267631281
2997+265180956+262099615+258571646+254450156+249405281+243016103+234809783
2984+224566844+212958006+201274554+190581638+181829173+175847432+173348481
2970+175322813+182068746+192043553+203070349+213942414+223895985+232088880
2957+238248199+242783408+246287641+248894920+250189694+250073819+249099015
2943+247604233+245692146+243870363+242311988+241039088+240604912+240888526
2930+241173669+241569016+242517277+243633360+244338337+244730988+245195961
2916+245857550+246267517+246215514+246215820+246291365+246191889+246378528
2903+246955123+247061381+246402209+245695175+245384379+245081531+244248394
2889+243088090+242290558+242265932+242750388+243208607+243886929+245181285
2876+246673343+248050138+249468291+250765566+251675776+252584402+254001833
2862+255666244+257051738+258164264+259076003+259705268+260341037+261344247
2849+262597662+263917979+265334242+266349126+266583850+266673681+266950457
2835+267156108+267189684+267268314+267693651+268120017+268237671+268401130
2822+268842810+269475410+270132080+270732773+271048767+270656950+270022376
2808+270133109+270611589+270688524+270825773+271321597+271847744+272387622
2795+272865686+273139627+273320291+273337273+273242161+273437305+273833320
2781+273982548+273818561+273664524+273784346+273964148+274070128+274362803
2768+274603696+274311883+273903250+273766808+273439529+272985535+273008994
2754+273355423+273498814+273569078+273851553+274048559+274002282+273941273
2741+274028242+274265411+274476815+274584685+274564395+274299515+273808416
2727+273417932+273396781+273532279+273582420+273518965+273471464+273534530
2714+273506291+273363316+273204055+273118809+273416376+273870369+273792545
2700+273372238+273443198+274123104+274786278+274968720+274767961+274489267
2687+274231669+273981325+273923679+274275250+274671376+274666595+274507556
2673+274453746+274401881+274102036+273415848+272784554+272458331+272203290
2660+272159264+272187892+272077159+272393570+273094990+273458457+273473271
2646+273775229+274621346+275274681+275303503+275183515+275101410+274923749
2633+274676935+274639468+274866576+274984535+275142935+275633979+276071573
2619+276016541+275390166+274753369+274776939+275057718+275178290+275396392
2606+275487808+275311341+275158389+274862407+274409580+274260269+274459972
2592+274635604+274619956+274478260+274371613+274367833+274271693+274265856
2579+274683883+275149884+275272763+275150190+275005353+274988232+274996209
2565+274916578+274973918+275288216+275445227+275294415+275201470+275182459
2552+275210114+275367347+275338385+275161029+275265814+275465017+275509515
2538+275544925+275456289+275275431+275149773+274758400+274296541+274311800
2525+274560365+274620623+274353325+273964704+273973320+274279836+274473230
2511+274513087+274301405+274057982+274278002+274813655+275026143+274554278
2498+273907086+273848745+274261158+274565451+274611979+274631046+274725714
2484+274681048+274285117+273620970+273077535+273085901+273488614+273681312
2471+273663107+273729257+273753855+273659771+273555820+273615078+273868869
2457+274008063+273931434+273902416+274039693+274231141+274495354+274776272
2444+274740306+274473702+274353936+274339872+274278724+274154067+273791128
2430+273093072+272542604+272628238+272999266+273057634+272926583+272963355
2417+272930947+272643247+272530736+272831860+273192437+273402451+273572664
2403+273487057+273026560+272725102+272859821+273147382+273389193+273497980
2390+273438750+273252834+272855652+272215325+271585560+271134596+270675099
2376+270106676+269701268+269384717+268219160+265874231+264661701+266838863
2363+269293413+268936338+268613590+269631420+270707285+271268204+270644609
2349+269636507+269409149+270025489+270301932+269829761+269429105+268993484
2336+268461249+268202650+268267967+268820158+269977516+271368541+271768530
2322+270422115+268931280+268684160+269081175+269632393+270510084+271340830
2309+271794351+272468087+273193159+273202887+273042264+273401756+273830540
2295+273840324+273483194+272961410+272592050+272646499+272959409+273371182
2282+273913228+274271109+274162516+273768253+273391889+273289939+273533307
2268+273988190+274358522+274264772+273905668+273804024+273826204+273705299
2255+273607685+273566299+273473021+273560740+273957171+274267106+274285062
2241+274150537+273923540+273726617+273637286+273525552+273366263+273411901
2228+273674058+273613049+273120838+272874441+273100270+273248387+273033175
2214+272775215+272843645+273244857+273606351+273699767+273691846+273519521
2201+272991594+272491601+272451133+272616593+272594163+272459527+272393209
2187+272391875+272458443+272496938+272332339+272090445+272056174+272278029
2174+272596108+272761679+272658840+272424533+272110485+271909114+272091307
2160+272310437+272381285+272570454+272697030+272596192+272399241+272124632
2147+271864616+271668637+271451035+271402117+271756495+272249234+272452383
2133+272324223+272157096+272139446+272164406+272153594+272139836+272160598
2120+272143338+271871509+271449562+271168700+270999682+270894314+270857681
2106+270782636+270669429+270614674+270740583+271035648+271231515+271321680
2093+271445421+271393473+271195772+271165392+271314982+271500342+271500287
2079+271335494+271360036+271375129+271024058+270733134+270887004+271307060
2066+271753938+271905223+271622665+271374879+271567216+271966760+272130580
2052+271965704+271753716+271745350+271904751+271994471+271912311+271996361
2039+272503247+273020139+273143324+272954128+272604669+272347960+272393181
2025+272584129+272717709+272791614+272963439+273232127+273378742+273428578
2012+273684564+274162766+274352491+274148202+274068043+274198843+274336982
1998+274532598+274821465+275006604+274873858+274634659+274723046+275111972
1985+275334605+275208725+275055605+275096908+275222205+275262562+275227402
1971+275286827+275354728+275135236+274861128+275118282+275856445+276416390
1958+276412610+276211907+276382954+276770269+276760012+276422561+276338094
1944+276600306+276910186+277073894+277136098+277299223+277613300+277831847
1931+277709552+277448479+277477441+277733149+277866729+277856445+277792129
1917+277715305+277767336+277780261+277503345+277387943+277747602+278043835
1904+278116628+278216772+278257907+278334898+278619568+278880918+278989372
1890+279110055+279271179+279397699+279575222+279742461+279690736+279476469
1877+279251918+279085013+279008300+279015944+279169174+279467019+279755135
1863+279957117+280026603+280042807+280176359+280243399+280139059+280036248
1850+279834349+279628949+279808639+280291372+280568093+280547053+280586326
1836+280671460+280402077+279963454+279889104+280041473+280104455+280424702
1823+281171120+281728119+281565050+281092934+280921554+280915995+280900959
1809+280951850+281025338+280979089+280781081+280702006+280860129+280985926
1796+280997683+281056857+281195162+281309897+281314734+281212450+281268901
1782+281524414+281618943+281393281+280925696+280542189+280642471+280963691
1769+280999740+280843230+280769769+280893565+281135654+281344918+281724895
1755+282268498+282417087+282103455+281926321+282066377+282182196+282207739
1742+282426537+282911966+283143270+283040765+283322683+283824455+283950114
1728+284011428+284092060+284069991+283988386+283885909+283995752+284484850
1715+284900626+285036096+285136017+285236299+285228238+285028313+284657898
1701+284635384+285235520+285793270+286174359+286309440+286090281+285745547
1688+285480806+285464963+285715307+285970376+286083416+285872040+285446869
1674+285233436+285159141+285129624+285247917+285185574+284828027+284557838
1661+284528515+284354188+283661997+282574292+282126635+282344738+282081803
1647+281727703+281731344+281656855+281394698+281042376+280624933+280431845
1634+280478206+280513977+280774383+281326602+281814866+282230920+282797508
1620+283395004+284109014+285188687+286208213+286975365+287710499+288472482
1607+289346004+290240538+290956327+291486283+291972434+292565316+293104972
1593+293473970+294007011+294821081+295757751+296692726+297354010+297664835
1580+297785629+297969878+298589165+299255619+299565915+299958983+300583634
1566+301080737+301344589+301294337+301150834+301652356+302416813+302775499
1553+302770302+302639557+302679109+302644505+302388852+302347271+302764465
1539+303426333+303848807+304036419+304246517+304381792+304362781+304372537
1526+304377179+304217166+304099346+304362781+304848071+305128044+304997049
1512+304693479+304455420+304384794+304782587+305226186+305147972+304844958
1499+304644866+304486800+304148987+303654469+303143108+302680776+302159854
1485+301463215+300710405+299973909+299055916+297746300+295975159+293760530
1472+291488756+289874292+289306536+290055039+291763309+293341030+294544499
1458+295973158+297864538+299582286+301024870+302360668+303654330+304800042
1445+305513218+305872600+305990142+305872294+305779433+305723149+305479337
1431+305148139+304686308+304048371+303557077+303272630+303048274+303136104
1418+303473833+303437979+303020090+302607872+302360724+302364532+302864525
1404+303791245+304686447+305518055+306493332+307366214+307831048+307802614
1391+307002664+304899101+301251895+296752790+292560452+290031803+290346213
1377+293207644+297065922+300274867+301989335+302750457+303787576+306151489
1364+310243016+315091885+318946160+321349346+322855690+323817321+324253692
1350+324141987+323525563+322460732+321288643+320783202+321359686+322696623
1337+324300415+325846700+327076518+327767236+327830663+327344456+326620023
1323+325994010+325382228+324661853+324128506+323954541+323989062+324213113
1310+324660547+325169434+325741998+326648206+327847478+329136359+330645316
1296+332355560+333968441+335534849+337268801+338967316+340366541+341639913
1283+343023628+344463683+345852096+347240481+348670863+349982925+350976852
1269+351775996+352747354+353889815+354949892+355862271+356629201+357461004
1256+358523722+359502557+360118508+360522833+361035000+361807350+362715504
1242+363575379+364381889+365061934+365460811+365793121+366275687+366812368
1229+367357333+367864497+368287361+368733711+369260108+369822528+370457268
1215+371174196+371781921+372163121+372515192+373014046+373560622+374041882
1202+374444511+374737687+374938640+375121944+375325149+375653762+376194446
1188+376665811+376837330+376955178+377042035+376703000+375869363+374685322
1175+372759616+369372565+364193304+357692809+351231643+346314539+343883948
1161+344277211+347017931+350973100+355199180+359284510+362869902+365486493
1148+367060350+367925784+368187190+367564846+365641725+362158227+357669323
1134+353414697+350401230+349400660+351070241+355298629+360907452+366236052
1121+370110478+372349677+373334598+373546920+373553201+373805935+374552103
1107+375851880+377717411+380369885+383780923+387496698+391239434+394952986
1094+398413359+401482387+404524176+407610909+410246095+412419282+414400271
1080+416109487+417558853+418975505+420513868+422162742+423718755+425074676
1067+426383736+427585454+428560703+429690767+431178823+432555117+433607496
1053+434692144+435943642+437195695+438323453+439352012+440566821+441974384
1040+443201367+444268588+445403683+446626080+447889140+449094082+450253886
1026+451439010+452598731+453787275+455119709+456554900+457926859+459124380
1013+460191851+461184305+462317593+463851899+465514559+466887156+468067751
999+469321555+470623277+471867132+473005534+473966664+474863477+475914327
986+477108708+478261118+479371504+480597347+481583159+481923584+482101802
972+482453623+482482029+481878279+480410180+477071018+470408316+459366191
959+444489025+428882201+417563244+415281270+423215871+437824071+454148129
945+468886518+480561103+489130668+495415144+500297950+504302176+507608040
932+510409936+512994202+515446390+517658544+519593034+521269980+522879553
918+524716817+526713009+528528094+529943551+531143323+532430481+533835876
905+535350281+536864964+538350351+539906003+541455873+543040542+544583130
891+545947278+547362902+548874916+550273252+551591595+553001159+554473150
878+555972768+557527975+558940374+560145761+561308734+562464591+563621282
864+564888261+566305552+567677928+568960972+570274090+571613835+573128517
851+574849101+576502255+577897589+579153284+580473628+581707421+582796682
837+583860318+584831954+585787525+586808468+587695109+587922689+586774726
824+583521616+577593240+570398887+566589666+570097818+579382698+589635546
810+597646387+602784513+605938397+608169508+609861074+611328228+612966374
797+614622585+616002687+617233089+618632648+620221208+621672353+622882298
783+624017921+625318753+626792189+628186578+629648896+631316726+632947867
770+634462327+635948548+637379903+638737048+640216487+641936403+643808300
756+645596924+647138011+648619063+650128965+651604068+653212751+655107606
743+657102242+658932446+660572982+662127633+663770948+665588200+667380549
729+669084567+671007827+673107971+674968471+676584437+678223583+680085639
716+682179613+684208825+685992335+687799081+689809504+691901421+693940973
702+695771233+697566416+699548378+701491094+703243364+704883065+706765690
689+709133938+711512248+713527397+715581735+717981168+720414400+722621274
675+724637923+726339773+727400629+728653878+732092821+735495299+737859600
662+740002769+742218982+744677951+747129138+749280145+751419034+753921251
648+756520304+758820234+761047731+763488967+766227103+769163358+771972925
635+774571366+777308390+779981543+782117097+784306571+787087121+789945107
621+792173438+794006533+796560948+799905057+803138822+806037888+808861130
608+811713112+814379371+816737280+818831809+820898766+823463965+826425068
594+829260317+832057266+834923923+837539319+840027083+843002916+846148240
581+848782202+851284086+853809984+856178844+859124937+862967010+866589897
567+869453830+872224263+875224222+878560104+882089879+885385682+888327661
554+891043228+893669631+896143720+898931830+902093441+904931915+907842265
540+911052460+913745458+915675889+917844852+921035480+924446129+927399504
527+930316914+933300252+935994417+938535602+941206197+944084472+947219234
513+950351550+953302646+956038948+958696980+961527004+964178144+966528659
500+968528743+969848198+971234693+973413439+975747611+977505106+979050251
486+981200869+984094932+987695416+991566729+994546954+996705021+999282561
473+1002426217+1004861338+1006121647+1007301685+1009245068+1011836617
461+1014214815+1015680357+1016943445+1019044812+1021715852+1024028567
449+1025881785+1027789258+1029367535+1030339893+1031415202+1032681737
438+1033986850+1036166485+1039410979+1041287767+1039481021+1036924160
426+1037950329+1041497226+1044481787+1046524562+1048826604+1051423600
415+1053802021+1056661730+1060082551+1062664872+1062772603+1061699517
403+1063233545+1068209851+1073741823
##END=
