##TITLE=павел 1-многокр
##JCAMP-DX=4.24
##DATA TYPE=INFRARED SPECTRUM
##DATE=2/2/2015
##SAMPLING PROCEDURE=Instrument type and / or accessory
##ORIGIN=Default
##XUNITS=1/CM
##YUNITS=TRANSMITTANCE
##RESOLUTION=4
##FIRSTX=3996.3347
##LASTX=399.24773
##DELTAX=-1.928733
##MAXY=1.1502736
##MINY=0.19492833
##XFACTOR=1
##YFACTOR=1.0712757e-009
##NPOINTS=1866
##FIRSTY=0.32734489
##XYDATA=(X++(Y..Y))
3996+305565489+306718467+307875173+307941578+305945726+303724146+303177828
3983+303258143+303041345+303527240+305017807+306375453+306953570+307172843
3969+306870890+305852085+305118931+305392146+305899267+305435767+304116763
3956+302563574+301417801+301380551+301747963+302036200+302815785+303481143
3942+303019758+301845053+301283684+302075036+303333561+303701696+303854536
3929+304686283+304918714+304052639+303724564+304403860+304598179+303700138
3915+303059873+303830027+304820178+304156322+302452101+301775114+302987960
3902+304200555+303386696+301728489+301141248+302385641+304582711+305723142
3888+305884662+305898461+305704225+304960026+303611645+302965843+303774694
3875+305117652+305611725+305017474+304710068+304621185+303670650+302550332
3861+302161749+302469433+302924865+302266434+300785715+301030777+301864554
3848+301395629+300247019+299878800+300819015+302815674+304388559+303351477
3834+300864722+299816012+300741899+301849865+301450628+299777482+298451411
3821+298251389+298544189+298825527+299281822+300042740+300719199+301193827
3807+302038899+302896434+302464926+300795341+299498063+299123613+299253280
3794+299675301+300279623+300749967+300185593+299387564+300112317+301101383
3780+300956081+300765880+301024406+300761067+299688460+299093540+299683257
3767+300371789+300814174+301192157+300871649+299444928+298318156+299119329
3753+301142528+302025434+300956916+300096432+300155187+299426233+297880667
3740+296988246+296724156+296897861+297266079+297419754+297973361+298376187
3726+297204097+295668157+295727273+296541966+296836102+296862419+296946044
3713+297029419+297131489+296893660+296053262+295139225+294876693+295398948
3699+295968190+295580192+294082419+292631523+292028146+291794657+291167634
3686+290283086+290297441+291266950+291901540+292040164+291710698+290513459
3672+289712203+290049125+290893779+291617614+291698513+290715930+289385130
3659+288248092+287204083+287248455+288395007+288774158+287404077+285908364
3645+285033886+283645667+282085245+281380050+281103107+280650846+279850146
3632+278775396+277975976+277982569+277937307+276569368+274730223+274266917
3618+274347733+273214646+271484970+270190976+269563897+268696903+266863127
3605+264885441+262615205+259925703+258364836+258030557+258005102+258212135
3591+258270277+257865142+257199868+255804638+253311318+250923712+249587265
3578+248941603+248682715+248217490+246998607+245492684+244014218+242526683
3564+241202810+240216666+239650317+239153795+238239425+237058516+236297292
3551+236246828+236324054+235972194+235167822+234043247+232808745+231859892
3537+231253233+230159260+228237449+226749998+226655217+227125213+226627662
3524+224673914+222436742+221546978+222080820+222007335+220030219+217776731
3510+216805358+216430018+215735922+214617872+213182568+212119836+211751298
3497+211121048+210020746+209069779+207993903+206542895+205162980+204132436
3483+203423039+203019323+202702891+202458288+202523830+202233381+200783250
3470+198936246+197842301+197106295+196328824+196013713+195734239+194906303
3456+193781451+192772216+192127013+191473603+190675366+190384986+190760312
3443+191081989+191046004+190916268+190298787+188915506+187585958+186976030
3429+186803702+186516355+185852207+184919823+184303525+184621863+185270808
3416+184860095+183646763+183129682+183414164+183472877+183059007+182719651
3402+182665041+183201540+184413787+184983850+184321872+183709315+183991321
3389+184386705+183879751+182885664+182251672+181959067+182202279+183509195
3375+185160184+185887259+185902838+186031183+186266272+186340605+186531155
3362+187452146+189020594+190476888+191296463+191650827+192011006+192127417
3348+191890520+192167546+193067882+193518474+193318285+193473990+194233490
3335+195043273+195750722+196578170+197806358+199150915+200055284+200465496
3321+200766141+201660022+203091960+204030143+204037015+203680536+203967842
3308+205412688+207154061+207798694+207029708+206129568+206522796+208012389
3294+209391985+209880480+209999826+210721018+211793584+212983840+214493616
3281+215692621+216006286+215759931+215869261+216834207+217800002+217806178
3267+217472469+217590299+217817194+218358199+219598461+221044239+222311110
3254+223150952+223523997+223825142+224513118+225518764+226127092+226261502
3240+226611624+227578448+229092063+230559986+231303350+231975524+233626067
3227+235341999+235992057+236198505+236709632+237410905+237773171+237680254
3213+237800350+238727128+240385558+242246819+243659464+244334782+244661883
3200+244928227+245038030+245312108+246083263+247292103+248744613+250031681
3186+250701295+250339447+249401876+249387910+250625320+252005806+252940234
3173+253561721+254146820+254893355+255572679+255926682+256197310+256792507
3159+257580716+258000762+258256952+258947654+259951157+260902194+261522262
3146+261864358+262162138+262348612+262708679+263543792+264268572+264308076
3132+264060538+264109389+264436880+264922191+265469205+265903300+266336393
3119+267025927+267863849+268084847+267308322+266876147+267878371+269212426
3105+269761332+269832104+269717822+269207363+268468477+267993154+268021474
3092+268465000+268935260+269460242+270017744+269940489+269660876+269988116
3078+270417037+270619840+270980130+271351882+271266087+270990980+270967500
3065+270992399+270948277+271226472+271847069+272043780+271658035+271624680
3051+272121146+272339473+272142428+271778382+271205802+270938596+271446691
3038+272248031+272890020+273349320+273549425+273357694+272693476+271725275
3024+271028147+270905574+270769509+269980299+269102622+269160709+269774017
3011+269796468+269229618+268861873+268811130+268582287+267693872+265944973
2997+263749127+261366501+258707516+255745660+251866096+246376592+239022459
2984+230222508+220954465+211309789+201627070+193569008+188054159+185261586
2970+186217727+191648755+200544879+210838569+220528174+228793630+235718341
2957+241295338+245606938+248537553+250023696+250666716+250871077+250310849
2943+248636256+246435625+244783760+243741866+242991046+243034500+243620851
2930+243756304+243914569+244654428+245250015+245453236+245727786+246264591
2916+247003086+247625853+247866241+248035578+248392224+248773684+249132138
2903+249401208+249258132+248689196+248119092+247481553+246479496+245618261
2889+245281339+244944446+244433207+244370057+244877707+245591554+246348105
2876+247015633+247973429+249469894+250754208+251429692+251817830+252317968
2862+253329373+254728330+255926877+256615547+257068921+257899360+259013836
2849+259842300+260828361+262240199+263155988+263293055+263316117+263627779
2835+263914319+263803792+263821291+264336758+264893231+265348246+265751294
2822+266053108+266309937+266364352+266309993+266430701+266497440+266387303
2808+266382713+266504840+266555360+266675318+267053635+267518025+267874615
2795+267836391+267329381+266983752+267288097+268012127+268452342+268233681
2781+267924356+267941215+268087128+268301116+268533297+268669251+268772210
2768+269040195+269457710+269460742+268695095+267816000+267685638+268299975
2754+269110662+269587655+269373806+268690505+268154006+268059476+268028429
2741+267722888+267581259+267846545+268104654+268049127+267748426+267452789
2727+267215489+267000583+267002892+267306542+267534773+267394702+267146079
2714+267024647+267006898+267153117+267598869+268319588+268969367+269046371
2700+268532434+268137732+268298055+268649360+268785480+268682354+268442021
2687+268164828+268041671+268072885+268080591+268150195+268561061+269271097
2673+269586848+269036885+268179767+267674899+267336336+266733934+266236243
2660+266399293+266757191+266863489+267219995+267742250+267752070+267406469
2646+267194374+267466587+268262669+268984306+269203273+269081897+268965556
2633+269010595+269237074+269723942+270116141+270014962+269794743+269543310
2619+268944107+268493237+268515687+268590939+268734710+269088045+269247423
2606+268926859+268443607+268217574+268358062+268695846+268818307+268512516
2592+268178432+268308488+268635060+268592775+268274492+267958101+267719828
2579+267768401+268110497+268162908+267577420+267043397+267084737+267154425
2565+267116117+267636536+268485197+268721468+268441548+268494600+268832857
2552+268663826+268145215+267983501+267987674+267898345+267953929+268122348
2538+268218547+268125686+267844876+267714431+267778471+267734989+267625548
2525+267600872+267774576+267913507+267497189+266704640+266065626+265890837
2511+266286763+266895092+267129610+266826378+266552884+266801980+267252878
2498+267405996+267435151+267794940+268084040+267671728+266896733+266548962
2484+266977688+267541449+267365964+266762755+266554053+266811689+267062704
2471+267085460+267122766+267174705+267011878+266671896+266220553+265902660
2457+265951177+266240361+266701468+267066599+266989038+266771100+266799226
2444+267033299+267352444+267363766+266815528+266246703+265949452+265817338
2430+265977689+266259528+266426556+266565320+266619317+266480888+266366522
2417+266374756+266254688+265969816+265595450+265259669+265242087+265284344
2403+264957466+264644636+264823932+265356703+266096617+266708395+266726895
2390+266400072+266019196+265624493+265336200+264852531+264131589+263847636
2376+263824824+263656210+264259225+265162634+264201527+261311780+258214666
2363+256671993+256817906+257547694+258742652+260828862+263073643+263684614
2349+262933683+261884277+260446316+258405452+257426541+258776898+260565829
2336+260842799+260864693+261941668+262556479+261902499+261376822+260862607
2322+259939473+259766158+260424867+261440751+263126444+264944224+265798671
2309+265862906+265869249+266018417+266154259+265964169+265535332+265347189
2295+265553081+266058115+266517303+266499332+266284065+266437545+266783786
2282+266708757+266205864+265947477+266194125+266434346+266366995+266401686
2268+266673788+266587269+266106716+265907306+266014494+265993073+265845185
2255+265892562+266270350+266619178+266534969+266179686+266044484+266210343
2241+266164970+265778363+265646053+265941858+266218244+266367941+266575529
2228+266695710+266530378+266249986+266115034+266133895+266152089+266076198
2214+265906332+265761226+265779976+265798226+265560091+265318618+265499667
2201+265822874+265682775+265134592+264729708+264736579+264981224+265283899
2187+265533996+265637791+265724198+265762672+265530936+265189397+265001337
2174+265014607+265155401+265167531+264972850+264842015+264840290+264786932
2160+264708148+264743645+264777529+264684473+264673791+264739917+264538032
2147+264162663+264037782+264249599+264507736+264495357+264197660+263880630
2133+263700972+263540453+263352588+263264373+263319706+263470821+263706035
2120+263930677+263923861+263761813+263696882+263692320+263743257+263942528
2106+264120155+264093476+264034833+264122103+264248292+264353449+264354813
2093+264056977+263589610+263296421+263290940+263490489+263708817+263710931
2079+263497611+263305212+263349945+263633732+263752632+263465062+263190373
2066+263233855+263592086+264245232+264700887+264497999+263969346+263686116
2052+263781982+263887418+263837176+263924084+264076562+263981948+263791357
2039+263712962+263736441+264062708+264764343+265402605+265552469+265338064
2025+265229457+265218941+265078035+265097314+265463724+265845463+265950982
2012+265858622+265814723+265921577+266072164+266162800+266180660+266072331
1998+265846687+265626830+265651200+266106911+266624742+266747955+266672508
1985+266771212+266995687+267192621+267500527+267884213+267977492+267754769
1971+267609718+267671505+267775133+267983028+268279778+268469868+268609133
1958+268622041+268456515+268495379+268765784+268942187+268985947+268999662
1944+269075109+269148107+269123988+269135449+269270513+269504947+269689084
1931+269631109+269516826+269610049+269769761+269880622+270023168+270116586
1917+270115390+270153030+270314438+270552879+270684076+270739826+270921459
1904+271020886+270840922+270657675+270656757+270676731+270580838+270656952
1890+271159427+271540164+271453785+271361619+271407994+271500994+271634166
1877+271518604+271169331+270984637+270933533+270900455+271013569+271254681
1863+271550708+271762358+271845928+271906241+271876863+271862703+272039301
1850+272236819+272360115+272516322+272670052+272804615+273062195+273234537
1836+272982492+272621284+272601922+272772622+272804503+272766446+272898505
1823+273122035+273126848+272889881+272739851+272857694+273046310+273122396
1809+273120783+273146015+273271787+273406628+273401120+273334937+273295155
1796+273214312+273098360+273149520+273505081+273866345+273844228+273476149
1782+273290343+273553404+273859946+273808174+273556408+273494899+273535738
1769+273449442+273523025+273839304+274137835+274205241+274093463+274214422
1755+274629266+274893189+274894330+274837022+274806170+274905235+275144121
1742+275368457+275585894+275752310+275889989+276249722+276573485+276620583
1728+276598300+276501405+276348843+276292787+276340803+276616828+277257009
1715+277855156+278023631+277777150+277527943+277714834+278085640+278239565
1701+278469577+278848339+278953441+278839576+278656663+278597407+278598715
1688+278329283+278178696+278645340+279014143+278936638+278742458+278655439
1674+278555511+278289724+278115574+278216225+278364892+278373015+278208185
1661+277847978+277409432+277038488+276771198+276698395+276536986+276133492
1647+275839635+275638445+275203376+274651883+274215284+274127931+274405152
1634+274400673+274152579+274256791+274680398+275133466+275696866+276280936
1620+276611848+277034370+278029000+279107561+279829003+280356488+280936301
1607+281725762+282478974+283005652+283453852+283928702+284580679+285491739
1593+286356090+286971985+287575362+288369942+289135867+289652169+290067263
1580+290446081+290945273+291824007+292549678+292862313+293098250+293310679
1566+293461600+293553543+293540468+293844145+294837718+295453029+295523718
1553+295507471+295589761+295871239+296106675+296163900+296315293+296975616
1539+297704041+297526970+297128262+297254033+297530837+297640863+297883477
1526+298200452+298332678+298506327+298767440+298800017+298686013+298641307
1512+298731692+298832176+299003600+299520319+299739063+299461063+299190797
1499+299080660+299149012+299364251+299438696+299220174+298956362+298725433
1485+298335460+297904564+297360999+296548281+295584949+294519853+293402734
1472+292234567+291092021+290427776+290749063+291839753+292789064+293565812
1458+294864202+296526749+297592875+298423647+299537567+300711910+301612231
1445+302199500+302504151+302548635+302465816+302440779+302466011+302540595
1431+302685729+302613983+302381412+302429206+302575175+302386225+302077790
1418+302153904+302477222+302642414+302593591+302521733+302694548+303223925
1404+303985622+304874036+305795083+306502115+306927085+307201858+307185389
1391+306657320+305499724+303574672+300981175+298222485+296372740+296523689
1377+298595293+301515781+303905390+305082655+305682887+306620821+308394868
1364+311062394+314168799+316942067+318959284+320245406+320956388+321265323
1350+321293783+321091285+320749272+320417247+320291419+320639246+321643640
1337+323058177+324399047+325271160+325618291+325876039+326192902+326265261
1323+326124800+325914986+325537921+325136653+325047130+325257946+325619488
1310+326168755+326881796+327596756+328285455+329070827+330014380+331142904
1296+332464079+333828401+335068231+336203154+337307949+338393047+339493752
1283+340609536+341723900+342875404+343990213+344985288+345925280+346864576
1269+347779781+348667111+349527317+350251680+350802394+351370524+352102927
1256+353010148+354022526+354874497+355461265+356077077+356810204+357500099
1242+358148682+358701677+359085029+359483126+360114155+360891681+361541099
1229+362081770+362704454+363311335+363726958+364034475+364494497+365191292
1215+365926199+366524039+366996024+367507568+368164720+368824820+369265063
1202+369545623+370002919+370627132+371125157+371527259+371939738+372318862
1188+372644962+372895198+373134056+373505891+373845511+373797717+373242385
1175+372062283+370088130+367235383+363511329+359512476+356334073+354795740
1161+355163514+357098469+359845308+362742789+365422416+367706116+369535385
1148+370927527+371792824+371998104+371661905+370777580+369061842+366574225
1134+363889952+361894796+361420585+362864110+366003370+369948254+373585983
1121+376239627+377958425+379101861+379867926+380350872+380701313+381251527
1107+382336486+384159746+386505261+388716881+390831690+393402876+396217789
1094+398718398+400940228+403248938+405646531+407843518+409676264+411157846
1080+412514045+413997657+415459542+416654639+417757514+418884731+419838633
1067+420681591+421712441+423068445+424672766+426152623+427131813+427858875
1053+428863547+430170367+431533270+432884517+434211812+435496682+436702600
1040+437789646+438852350+439962764+441106089+442288277+443404478+444425535
1026+445535310+446760229+448036030+449501698+451160852+452704971+454040779
1013+455326122+456531678+457643539+458731698+459821219+461129736+462733751
999+464320657+465685230+466869894+467925086+468962029+470174847+471461497
986+472676930+474013488+475392778+476486528+477336580+478261855+479373187
972+480394496+481101778+481383144+480929798+479299744+475707694+469152704
959+459731780+449623576+442408401+441288417+447038924+457316549+468625914
945+478714979+486859852+492964389+497315744+500558325+503173244+505483095
932+507844300+510309494+512521532+514227310+515710978+517268980+518863925
918+520517348+522328228+524228076+525924507+527264292+528382246+529460695
905+530721585+532210928+533781504+535408776+537095637+538601561+539767308
891+540946130+542373046+543922145+545566721+547212688+548685284+549896822
878+551081152+552600485+554251737+555779360+557220297+558525475+559847401
864+561391047+563010140+564439727+565669515+566879161+568132539+569526795
851+571214213+573081623+574765535+576105599+577237740+578355471+579717846
837+581145430+582331430+583583083+585013449+586340159+587238339+587200616
824+585710772+582502352+578488225+576476767+579043558+585425733+592424722
810+597901931+601746470+604540658+606661169+608399329+610028660+611537588
797+612846383+614197797+615775328+617299111+618555327+619863399+621499963
783+623140810+624566725+626005882+627626422+629384556+630942669+632275055
770+633789603+635399126+636789710+638203551+640097278+642231866+644020491
756+645579215+647330952+649189682+650886502+652585437+654481112+656316362
743+657928612+659563451+661395919+663311178+665190495+667148151+669317290
729+671520592+673563042+675413760+677055053+678617506+680332187+682329235
716+684535708+686681202+688675134+690758423+692849612+694807380+696826239
702+698593943+699987309+701593605+703498683+705361419+707023076+708773922
689+711097293+713825214+716468954+718942160+721269704+723440847+725728330
675+728269861+730350090+731347974+732534976+736167030+739861789+742591825
662+744868236+746835685+748987131+751231996+753317788+755534833+758134729
648+760976043+763597305+765840166+768171660+770864028+773686091+776612476
635+779599397+782516380+785240017+787615689+789885423+792193104+794478974
621+796680384+798853252+801636924+805094494+808345589+811187125+814064659
608+816884163+819269237+821422186+823521109+825533681+827885539+830781045
594+833771916+836573058+839306989+841993960+844488087+847088428+850037848
581+852859076+855423864+858131533+860975852+863937679+867171192+870238678
567+872928598+875821656+879164054+882726392+886012706+889037461+892376187
554+895652264+898105885+900052080+902504811+905494959+908357582+911227605
540+914297039+917370979+920288740+923226254+926362955+929118362+931280213
527+933756591+936931015+940007291+942767873+945715735+948892496+952117218
513+955377882+958582796+961239889+963463666+966081924+968924517+971475451
500+973356826+974538152+976382917+979425143+982129974+983615979+984985030
486+987254654+989929774+993083278+997140024+1000686228+1002928143+1005142907
473+1007720102+1009298245+1009787534+1010682319+1012575601+1015349759
461+1018518619+1020868362+1022020645+1023358650+1025808544+1028469643
449+1030631772+1032611962+1034190772+1035266941+1036575346+1037871733
438+1038372484+1039544796+1043145303+1046818920+1047270930+1045945611
426+1046211899+1048154254+1050569652+1053474672+1056016815+1057087753
415+1058415410+1061670510+1065875479+1068291544+1067563230+1065873809
403+1066278972+1069442268+1073741823
##END=
