##TITLE=павел 1-многокр
##JCAMP-DX=4.24
##DATA TYPE=INFRARED SPECTRUM
##DATE=2/2/2015
##SAMPLING PROCEDURE=Instrument type and / or accessory
##ORIGIN=Default
##XUNITS=1/CM
##YUNITS=TRANSMITTANCE
##RESOLUTION=4
##FIRSTX=3996.3347
##LASTX=399.24773
##DELTAX=-1.928733
##MAXY=1.1522315
##MINY=0.19529493
##XFACTOR=1
##YFACTOR=1.0730992e-009
##NPOINTS=1866
##FIRSTY=0.3266274
##XYDATA=(X++(Y..Y))
3996+304377651+304159139+304826228+304933012+304451414+304778598+305728241
3983+305596628+304828699+304785958+304770878+304340714+304425586+305033408
3969+305312991+305127723+305233812+306047288+306653999+306104748+305143358
3956+304607105+304187162+304008725+304266896+304576139+304673064+304149808
3942+303162117+302707959+303057555+303740140+304467633+304646958+303882612
3929+303376852+303763441+304434612+305245449+305461711+304003476+301766676
3915+300781068+301519364+303000372+303815208+303035421+301312184+299932155
3902+299339497+299698897+300433971+300464271+300397090+300968753+301529640
3888+302070976+302579957+302731149+303073219+302972045+302024318+301693301
3875+302114134+302221973+302067865+302148932+302106746+302081779+302748728
3861+303233020+302861595+302755782+302701349+301493092+301088118+301804501
3848+301898982+301591433+301900315+302948272+304006142+304380373+303948404
3834+302968767+302156514+302173288+301834967+300068739+298531076+298617753
3821+299739611+300607631+300022887+298548822+298292124+298967849+299204302
3807+299436477+300594245+301674389+301506395+300627071+300387786+301182099
3794+301658781+300326409+298577789+298395047+298876145+299169281+300024442
3780+300802814+300287112+299282203+298643720+297953803+297533832+298261852
3767+299184472+299392069+299749081+300018249+299405928+299375434+300287112
3753+300506956+299638187+298969682+299516572+300302942+299841451+299081382
3740+299029476+299057637+297820357+295778379+295746996+297257748+297696077
3726+297165045+297221811+297617426+297399248+296770568+296435386+296664812
3713+296954476+296555056+295795070+295569282+295805373+295637435+295132731
3699+295169085+295428338+295341189+294976290+294794771+294944130+293901228
3686+291902019+291132423+291274561+290992174+290639883+290426343+289810994
3672+289340228+289342505+289460565+289745313+289986015+289701183+289125521
3659+288679805+288520170+288713409+288851798+288218092+287059631+286393487
3645+285754698+284879180+284056539+283163997+282245570+281060086+279268029
3632+277731949+277481472+277639773+276684521+275111531+273612082+272190146
3618+270787094+269617163+268774221+268229525+267781087+266803228+265291115
3605+263603093+261838726+260579923+259509277+258216925+257770154+258023048
3591+257625878+256192888+254350202+253080485+251880560+249878295+247801601
3578+246479367+245808391+245620762+245447852+245128027+245014550+244372929
3564+242835988+241458376+240340351+239068023+237949970+237178375+236758765
3551+236428664+235620077+234439342+233105749+231671634+230505271+229542034
3537+228790671+228773619+229041801+228259056+226192749+224186527+223051963
3524+222095586+220850225+219816682+219419832+219132639+218285962+217396794
3510+216816577+215739404+214355807+213661058+213099088+211964205+210824933
3497+209926711+209257429+208860245+208752489+209044902+208783108+207400566
3483+205994946+204942296+203966895+203347783+202857923+201932789+200478804
3470+198525918+196733279+195667396+194751274+194112416+194304961+194869750
3456+194962287+193925329+192396775+191525964+191399767+191680210+191671212
3443+190493685+188400772+187212997+187839163+188344520+187142358+185448449
3429+184848805+185094381+184876216+183658586+182426681+182208641+182631070
3416+183361896+184252800+184055034+182652733+181991504+182697918+183032267
3402+182374913+182375024+183409247+183969093+183467166+182732383+182688892
3389+182975446+182778249+182727870+183417426+184172761+184359473+183938502
3375+183888151+185189181+186722804+187044670+186757700+186986640+187910482
3362+188722763+188412742+187833969+188308180+189346374+190420658+190949121
3348+190421408+190107610+190804317+191817488+192897230+194176445+195375537
3335+196272774+197089263+197724718+197837029+197691683+197839584+198414121
3321+199424530+200978148+202204235+202030492+201331660+201615478+202976260
3308+204743433+205813093+205352547+204800088+205882204+207838436+209205828
3294+209373114+208884615+209057441+210104009+211154451+211788754+212497597
3281+213588559+214531161+214910154+214997789+215594947+216747327+217639412
3267+218315262+219042407+219565233+219935756+220615897+221961724+223208140
3254+223137501+222230336+222024142+223018331+224599346+225951047+226681942
3240+227126144+227823490+228912591+230164367+231173928+231956063+233057564
3227+234454561+235479022+235790487+235733304+235963619+236593770+237296018
3213+237840353+238146486+238687294+240062823+241958942+243314503+243638493
3200+243568952+243830510+244608132+245747181+246932526+247836233+248233181
3186+248297224+248593526+249381229+250281409+251173452+252225657+252989254
3173+253378759+253980999+254734708+255584149+256809403+257840696+257905405
3159+257338602+257279419+258152605+259289016+260343998+261541424+262637593
3146+262890875+262380533+261922320+261830144+262310409+263271799+264192447
3132+264729228+264679877+264651716+265159697+265543037+265502767+265752689
3119+266658702+267375169+267189873+266611045+266408696+266861216+267579655
3105+267975659+268220305+268595229+268732535+268774915+269376878+270281446
3092+270466159+269679872+269033169+269147590+269247098+269126039+269498326
3078+270167441+270507401+270982277+271940335+272621365+272488280+272090499
3065+272017736+271990019+271744458+271676194+272191284+272826435+272818936
3051+272338616+271949444+271857629+271685803+271154437+270994025+271497840
3038+271807945+271669195+271757927+272113522+272004155+271162991+270109175
3024+269638214+269888219+270285917+270528730+270627460+270483850+269890136
3011+268895780+268027760+267475954+266909012+266381868+265872887+264863896
2997+263339174+261630795+259449678+256156062+251566651+245782007+238782830
2984+230581520+221175340+210981499+201207296+192930765+186784805+183894678
2970+185671459+191976901+200765010+210181396+219631400+228645200+236270613
2957+241713325+245048127+247163563+248763519+249880239+250257913+249552028
2943+247780745+245872239+244735940+244075656+243273595+242514414+242350724
2930+242879896+243656962+244375345+245085508+245635009+245746209+245842440
2916+246300903+246664024+247031284+247746140+248187774+247940796+247506272
2903+247266792+247030867+246669384+246220419+245745292+245343456+245030214
2889+244822200+244607215+244379372+244329771+244558225+245174546+245904677
2876+246375971+247066110+248652875+250740567+252354576+253274585+253738520
2862+253930926+254301101+255127185+256284369+257479240+258222313+258749568
2849+259887645+261244234+261840253+261942233+262474764+263324399+263731151
2835+263978573+264443758+264582563+264470863+264780912+265406148+265766270
2822+265681703+265504434+265729333+266391561+266969667+267036515+266766597
2808+266754877+267193011+267571629+267638671+267675553+267697909+267549106
2795+267272134+266936701+266731298+266763458+266938562+267289408+267584821
2781+267553077+267605095+267802277+267500727+266955809+266986414+267365560
2768+267502532+267487119+267596263+267871958+268294040+268766278+269001453
2754+268851122+268483168+268223332+268349001+268557626+268383522+268058531
2741+267913922+267989684+268229414+268376329+268325311+268148152+268050033
2727+268300622+268354194+267757620+267390055+267695077+267846380+267449570
2714+267010992+266869909+266851302+266946533+267343786+267896342+268253937
2700+268111604+267717572+267765924+268067335+268048034+268016484+268241356
2687+268452869+268539463+268500470+268410905+268391326+268268462+267927225
2673+267561826+267330428+267150270+266886795+266759904+266970472+267350951
2660+267673887+267494811+266839110+266738602+267498477+268211723+268460645
2646+268662827+268929995+268764501+268119825+267663528+267726793+268067585
2633+268401574+268612809+268636193+268422625+268226026+268362054+268570095
2619+268536130+268552793+268847678+269269538+269420619+268843735+268016096
2606+268016179+268904917+269539262+269163837+268470171+268102384+267770562
2592+267395442+267168905+267061065+267116721+267366837+267529110+267585071
2579+267779588+267851323+267522500+267143576+267214007+267630312+267773978
2565+267549162+267582322+268214583+268874256+268810797+268340947+268237968
2552+268267156+268143514+268245300+268248327+267810803+267494117+267400330
2538+267293435+267404746+267685829+267668832+267246167+266796118+266733853
2525+267132023+267559049+267502143+267109750+266849163+266770457+266852579
2511+267001883+266850024+266531727+266578829+267035765+267476232+267503671
2498+267248528+267166711+267201287+267102474+267042319+267025184+266978304
2484+267127635+267344119+267214034+266746795+266378202+266364483+266459186
2471+266430192+266376369+266441523+266746851+267090504+266989107+266734575
2457+266883768+267069813+266830973+266340738+266043131+266148637+266461797
2444+266746767+266932619+266892155+266562471+266371981+266588327+266771262
2430+266520452+266030272+265751190+265661513+265645738+265817232+265863945
2417+265617966+265381875+265182248+265095793+265412980+265858585+265953177
2403+265783377+265666790+265722556+265844171+265967063+266163135+266330656
2390+266121865+265544759+265144617+264890973+264239688+263423129+263199841
2376+263645335+263990849+263796110+263295155+262976053+263215699+262723159
2363+260886250+259890506+260163812+261042080+262892903+263622173+262362565
2349+261292724+261347491+261969699+261989695+261535731+261653707+261822951
2336+261408090+260492774+259879980+260820541+262549805+263010823+262480319
2322+262624429+263117857+263163209+263252192+263664081+264114685+264303564
2309+264416624+264865895+265348909+265165613+264557679+264545737+265224157
2295+265649793+265458804+265221268+265197745+265175472+265275341+265640406
2282+265909574+265660263+265164696+265126260+265581640+265857863+265671872
2268+265542259+265793903+266129975+266379313+266559666+266571108+266407113
2255+266204321+265961508+265601969+265348548+265470107+265825952+266184325
2241+266321658+266021691+265614828+265490131+265440502+265259594+265116678
2228+265236932+265486076+265515292+265394428+265438641+265549952+265505100
2214+265360574+265143645+264988704+265082935+265260705+265463942+265677704
2201+265561950+265139118+264757584+264500330+264524158+264775885+264700567
2187+264362607+264330003+264503385+264540738+264493831+264468253+264502996
2174+264580564+264581452+264616529+264839095+264933826+264614834+264157732
2160+263894674+263880565+264083441+264353470+264656771+264958182+264802880
2147+264113130+263474036+263217560+263267216+263451429+263562463+263518166
2133+263399107+263230890+263092779+263031514+262863048+262734990+262993744
2120+263444931+263759506+263976241+264193558+264246492+263915586+263434599
2106+263233556+263310041+263530136+263866985+264134237+264106214+263820716
2093+263605898+263549437+263403967+263243471+263322400+263527553+263540356
2079+263433489+263564907+263792722+263712044+263411132+263253275+263331703
2066+263574543+263884787+263946580+263654028+263351644+263306125+263513833
2052+263731679+263716904+263548576+263566823+263932722+264145318+263867596
2039+263697352+264021787+264438675+264588118+264539127+264501718+264565428
2025+264738060+264954933+265059912+264981483+264916579+265036194+265097432
2012+265105153+265384485+265606607+265431170+265323026+265553451+265751495
1998+265772491+265836867+265970979+266165773+266426776+266565304+266620681
1985+266822058+267148964+267439795+267525416+267410773+267329011+267241918
1971+267123692+267254665+267548134+267755842+267889399+268114770+268496777
1958+268754364+268854288+268904223+268873534+268919414+269012145+269048583
1944+269055664+269047388+269114791+269248570+269321861+269256707+269207328
1931+269276648+269363880+269518433+269649878+269596028+269512906+269493410
1917+269453307+269426784+269495937+269661654+269954262+270311912+270467575
1904+270308635+270043994+269936793+270103537+270441775+270704889+270823976
1890+270916041+271091561+271366895+271560994+271557217+271450489+271335012
1877+271349343+271475650+271411774+271236810+271323264+271464125+271355202
1863+271213592+271231894+271369644+271541193+271685664+271831273+271987020
1850+271954721+271752567+271860045+272386523+272672382+272488975+272258327
1836+272103552+271891456+271907703+272368693+272863011+273067831+273009648
1823+272766891+272603035+272618893+272629613+272613811+272610922+272571708
1809+272633890+272844014+272859983+272660079+272744368+273054972+272986958
1796+272508943+272192257+272554600+273211718+273536125+273563509+273471944
1782+273371464+273392849+273473638+273412428+273262819+273302172+273506465
1769+273663600+273799989+273877696+273838370+273719561+273588948+273606111
1755+273733447+273759303+273837343+274287336+274903267+275246754+275313713
1742+275339235+275312713+275211983+275404611+276000797+276243387+276164653
1728+276235139+276309624+276356337+276354726+276247358+276370167+276801969
1715+277101603+277190780+277240992+277338473+277530462+277676071+277588395
1701+277684847+278156891+278361739+278310805+278307889+278421283+278414118
1688+278048191+277831512+278169833+278413784+278369238+278347436+278461858
1674+278548424+278461191+278437030+278515792+278312888+277923522+277633469
1661+277253073+276667468+276118190+275925645+276153627+275975719+275471764
1647+275183794+274940704+274503237+274022167+273628190+273500494+273649380
1634+273656046+273597280+273787630+274068491+274330827+274807842+275508590
1620+276245470+277077692+277976983+278645654+279241396+279983969+280783641
1607+281548821+282267704+282985505+283655287+284148799+284546052+285075196
1593+285767890+286413538+287049994+287857359+288605042+289129631+289641973
1580+290205998+290845925+291534343+291882967+291969977+292245533+292727075
1566+293096584+293242055+293214561+293475675+294392157+295062300+295349909
1553+295572004+295705199+295736998+295669317+295718196+296078041+296589910
1539+296884518+296760404+296655814+297017658+297560660+297791530+297709602
1526+297445183+297312543+297659640+298166649+298261796+298095136+298095024
1512+298342558+298559403+298720454+299126123+299356354+299178751+298883144
1499+298624835+298605033+298747504+298767473+298790690+298916193+298762613
1485+298227887+297680608+297211563+296627292+295708754+294285012+292615570
1472+291201243+290261459+289874982+290205526+291233403+292435384+293467038
1458+294649689+296088261+297166489+298097274+299244849+300368568+301231422
1445+301845799+302147849+302125965+302026512+302098664+302170039+302073336
1431+302131491+302343782+302313760+302152876+301989464+301762038+301754178
1418+301891401+301749207+301551719+301606319+301855880+302262798+302888478
1404+303512130+303908662+304347935+305068679+305863130+306501558+306796110
1391+306499530+305301521+302900614+299720198+296847414+295348437+295875137
1377+298136599+301043738+303380240+304600301+305280470+306363002+308243208
1364+310857266+313793148+316329666+318232423+319635113+320570981+321013892
1350+320896499+320402237+319910447+319506528+319347727+319869899+321061299
1337+322416804+323640336+324577981+325136591+325453056+325691785+325866639
1323+325786961+325348327+324838012+324592562+324610475+324739643+325072910
1310+325719974+326473267+327119748+327659168+328280099+329212939+330442164
1296+331792143+333107379+334251510+335307326+336543383+337953711+339315354
1283+340572684+341704318+342664625+343574304+344557662+345616949+346664710
1269+347572056+348395224+349255884+350087023+350788243+351384873+351973088
1256+352595991+353270022+353995710+354739671+355481828+356192824+356916428
1242+357609345+358117715+358614421+359268900+359818373+360140253+360548671
1229+361213621+361879903+362369444+362823742+363383324+364024445+364690561
1215+365418665+366110387+366616396+367090634+367546043+367880031+368349048
1202+369056128+369669727+369923010+370032710+370425048+371094635+371679407
1188+372044306+372426923+372914659+373269171+373280557+372958594+372477330
1175+371662410+369923593+366857598+362690990+358378135+355053081+353525165
1161+354008235+355966841+358756059+361985993+365037547+367310368+368932931
1148+370291547+371279320+371632833+371387327+370492367+368651126+365962333
1134+363144538+361125027+360614908+361965803+365077067+369155942+373056352
1121+375929303+377580305+378473625+379160681+379753146+380198112+380721201
1107+381693811+383404884+385669651+387935585+390207656+392715236+395275527
1094+397811990+400421493+402917269+405007849+406856811+408708384+410310978
1080+411557200+412825473+414311286+415818538+417205593+418492168+419657878
1067+420707056+421701468+422748230+423958209+425177491+426224809+427256463
1053+428448223+429795008+431165761+432366325+433358237+434292882+435336895
1040+436562537+437963895+439392358+440594561+441624909+442782565+444141737
1026+445541289+446819532+448072391+449396209+450593913+451732767+453040699
1013+454287282+455229815+456155906+457507163+459164052+460605096+461816186
999+463202713+464741265+466097631+467211352+468255920+469428129+470754140
986+472064543+473361727+474723009+475898828+476729884+477547719+478586788
972+479621247+480337270+480560170+480065214+478422599+474963905+468717605
959+459371594+448863094+441217158+440130654+446178883+456607788+467836559
945+477689969+485707025+492049250+496769746+500099744+502656619+505109737
932+507602514+509876724+511839552+513501885+515009693+516594374+518236822
918+519854497+521466507+523087459+524594489+525939552+527343270+528879184
905+530419597+531886635+533341343+534860926+536317356+537609152+538867344
891+540318997+541959334+543549736+544969507+546294129+547633916+548990365
878+550502006+552142399+553537396+554760317+555988015+557290031+558945976
864+560756890+562232705+563360145+564539408+565993005+567468153+568841377
851+570350851+572133160+573907081+575315021+576447571+577587398+578888025
837+580208593+581381191+582633995+584001164+585160543+585871344+585811523
824+584327599+580979549+576991628+575301579+578122068+584711799+592077931
810+597789283+601369453+603607503+605457853+607237607+608862447+610370478
797+611723317+612950681+614421108+616263016+617994557+619335732+620643469
783+622088457+623508671+624870620+626235901+627678222+629207360+630843864
770+632602344+634429810+636150909+637584343+639021554+640757817+642623053
756+644456685+646277652+648114616+649832605+651466165+653320848+655226243
743+656894630+658536189+660224794+661946171+663883559+665969307+667971793
729+669860636+671851958+673941372+675832770+677592416+679471816+681393152
716+683258611+685191722+687132222+688980461+690949177+693099300+695186381
702+697042064+698804376+700559913+702310283+704259614+706382854+708562694
689+710818907+713148161+715515186+717782452+720041554+722419021+724677234
675+726723878+728412539+729432945+731040955+735257441+738964308+741483135
662+743725073+745668961+747768705+750149949+752460985+754870778+757236525
648+759173247+761215281+763852863+766704901+769486675+772224125+774967852
635+777704080+780385097+782990962+785493126+788016119+790646257+793341771
621+795860765+798120200+800685740+803614707+806384040+809139097+812140772
608+815057297+817574014+819894770+822149372+824353596+826788884+829399138
594+832009891+834798053+837777621+840648044+843256020+846016799+849069297
581+851919613+854506371+857154395+860069476+863236506+866470856+869531352
567+872449544+875503875+878632913+881757174+884656869+887131316+889744513
554+892757519+895627220+898384555+901497319+904501437+907221724+910134805
540+912897639+915222394+917514601+920510887+924065507+926895549+929096718
527+931809951+935163221+938657519+941803998+944261393+946368526+948907127
513+952277894+955931604+958648725+960641880+962991075+965625656+968427982
500+970907373+972693681+974825475+977433840+979709605+981652881+983696359
486+986124205+988810109+991920151+995382011+998231550+1000553972+1003365518
473+1006100635+1007153535+1007246961+1008360181+1010614284+1013045129
461+1015273681+1017823947+1020440199+1022076870+1023531244+1025540285
449+1027619312+1029587805+1031055066+1032057976+1034039355+1036784359
438+1037994339+1037842480+1038809397+1040909420+1042171388+1042826590
426+1044543356+1046795348+1048148854+1048998239+1050882860+1053935913
415+1056834442+1059805956+1063401789+1065858407+1065347843+1064166747
403+1065721434+1069639758+1073741823
##END=
