##TITLE=павел 1-многокр
##JCAMP-DX=4.24
##DATA TYPE=INFRARED SPECTRUM
##DATE=2/2/2015
##SAMPLING PROCEDURE=Instrument type and / or accessory
##ORIGIN=Default
##XUNITS=1/CM
##YUNITS=TRANSMITTANCE
##RESOLUTION=4
##FIRSTX=3996.3347
##LASTX=399.24773
##DELTAX=-1.928733
##MAXY=1.1514328
##MINY=0.18786222
##XFACTOR=1
##YFACTOR=1.0723553e-009
##NPOINTS=1866
##FIRSTY=0.33315071
##XYDATA=(X++(Y..Y))
3996+310671947+310492359+311013254+311742891+311624583+310956560+310532184
3983+310882996+311184339+310334837+309273509+309380339+309837787+309495841
3969+309236296+309472107+309385231+309197583+309600503+310291760+310161724
3956+309254833+308884095+308931841+308624828+308475005+308868365+309179379
3942+308975751+309076857+309778035+309787290+308861306+307845000+307588818
3929+308601734+309065406+307484183+305871084+305829702+306109229+306060038
3915+306939276+308392269+309018050+309005822+308846076+308691528+308519082
3902+308073446+307534847+306977100+306730924+307194207+307352452+306546249
3888+306305575+307113529+307989349+308320512+307593987+306591716+306672923
3875+307240953+307269439+306633598+306436028+307163998+307061948+306272337
3861+306886945+308004995+307982595+306794761+305055710+304867840+306341649
3848+307309681+306854457+305944592+305856243+307086932+308614518+308268153
3834+306574513+305926250+306675758+307274580+307383634+307358788+306493168
3821+305388513+305723539+306905649+307616721+307451528+307193874+307074537
3807+306060482+304700452+304789690+305625963+305611206+305647251+306401428
3794+306896144+306928493+306747543+306162560+305626602+305492258+305446430
3780+305590668+305580301+304828126+304008972+303789975+303923236+303907478
3767+303166891+301905020+301861192+303374771+304259707+303895527+304307091
3753+305864636+306129294+304680998+304021506+303649656+302923104+302761830
3740+302563538+302061291+302193689+303128316+303856619+303870237+303288868
3726+302631627+302411491+302280121+301792603+301054267+300802393+301504350
3713+301920666+301093648+300792333+302125934+303810263+304062582+302533913
3699+300686420+299426577+298555037+297977947+297598427+296585206+294803412
3686+293646231+293721657+294524830+294679684+293479649+292655854+293789218
3672+295148304+295054341+293950214+293142733+292505864+291714224+291292210
3659+291634768+292301124+292210023+291458459+291372250+291749047+290696417
3645+288353597+286661291+286977530+287818583+287119156+285727137+284762384
3632+283988753+282950075+281624922+280613925+279554653+278137566+276868580
3618+275491347+273950227+273282982+273017629+271602543+269577796+268750944
3605+269015186+268624604+266625870+263900111+262077881+261470221+260750811
3591+259454672+258215396+257240888+256323325+255082853+253808892+252769714
3578+251368496+249607046+247892896+246584696+246196422+246054602+245646651
3564+245675777+245444190+244238347+242369649+240401568+239663705+240199552
3551+240192049+239030671+237749652+236891785+235430009+233140715+231511372
3537+231186420+231095389+229847997+227638006+226196282+225841066+225247760
3524+224213639+223155285+222135282+221490965+220973599+219622698+217768952
3510+217178842+217636192+216702191+214153686+212045967+211178665+210693496
3497+210116281+209550933+208865762+207902872+206649379+205469979+204316717
3483+202776111+201981178+202278297+201754900+199939075+197860107+196200846
3470+195286646+194643690+194142596+194114013+193823953+192944937+192410479
3456+192699941+192695773+191349346+189889627+189212571+188469497+187735538
3443+187308550+186514451+185319779+184675448+184819728+184564241+183531343
3429+182854802+182869531+183471091+184652437+185063890+183716157+181807481
3416+180939970+181136511+181326313+181509751+181815082+181082026+179307861
3402+178104074+178184224+178860571+179375172+179500442+179591820+180092219
3389+180390366+179910672+179373129+179285600+179448597+179801493+179984347
3375+179671804+179649043+180396564+181225319+182133349+183427139+184186068
3362+183710834+182852537+183013741+184610653+186276542+186588474+186374855
3348+186654145+186819407+187105103+188389749+189689876+189730757+189509037
3335+190393583+191693932+192406394+192829894+193859971+195501348+196202833
3321+195211539+194156936+194911961+196946769+198411031+199054265+199372352
3308+199206437+198963331+199767949+201470843+202574415+202969345+203763375
3294+205123183+206612083+207923882+208927571+209794692+210640192+211156404
3281+211260442+211509814+212193901+212532512+212098715+212270244+213677548
3267+215003868+215656815+216076702+216582604+217496151+218689919+219340392
3254+219304819+219379356+220076185+221365945+222583059+223298341+224260482
3240+225653237+226302390+225987235+226120453+227254817+228696555+230069398
3227+231228996+232220123+232992893+233298571+233842783+235270347+236875026
3213+238020563+238859948+239638554+240354934+240942057+241388944+241412594
3200+241149687+241553191+242875676+244457177+245862702+246949209+247802824
3186+248894361+249988261+249978784+249343027+249773933+251355629+253137284
3173+254478778+255068040+255348123+255996331+256916367+257617796+257973471
3159+258092418+257978223+258156200+259410206+260905331+261210315+261037174
3146+261703224+262667421+263180340+263680142+264268237+264604180+264850830
3132+265145475+265373504+265687408+266408930+267171500+267526731+267878487
3119+268373870+268912496+269252052+268768147+268119078+268443877+269281011
3105+269619316+269404072+269433141+270091799+270658022+270630231+270574843
3092+271057247+271987510+272921859+273429943+273353933+272860940+272442401
3078+272344325+272464801+272900460+273496670+273912069+274239675+274734252
3065+275297362+275456135+275317233+275481592+275676966+275216795+274272302
3051+273678260+273925076+274467871+274407563+273835226+273639713+274131677
3038+274684144+274732834+274433381+274231643+274233505+274171030+274030655
3024+274130510+274282251+274062060+273782311+273695323+273186517+272185191
3011+271544237+271235056+270528431+269657752+268916387+267676165+265892537
2997+264006553+261654589+258447593+254428253+249544181+243501762+235717012
2984+225906292+214698746+203105718+192376282+183834659+177853728+175186540
2970+177464078+184250586+193545177+204104529+214905459+224766856+232835940
2957+238930400+243408938+246778125+249226303+250395323+250321731+249510804
2943+248098275+246110518+243827366+241748426+240495670+240423635+241104998
2930+241760904+242251980+242666156+242870618+243199474+244019461+244762105
2916+245062808+245657073+246474337+246494541+246135864+246402912+246941039
2903+247037419+246583112+245966864+245710377+245560109+244870602+243784040
2889+242863698+242519723+242809310+243361165+244080380+244928687+245603102
2876+246445155+247963264+249802336+251353239+252430353+253153181+253846216
2862+254810941+255985631+256967976+257481201+258114568+259446363+260933317
2849+262175401+263186482+263742701+264087231+264722016+265544504+266139686
2835+266564590+267090988+267576199+267874707+268223852+268787351+269228735
2822+269328896+269253609+269001790+268777319+268965300+269438755+269749936
2808+269803463+269992472+270390780+270641264+270665943+270579484+270636623
2795+271076395+271375431+270999302+270659190+271221050+272113211+272251807
2781+272058907+272437676+272882229+272803440+272372867+272006659+272235883
2768+272837095+273089803+273000398+272865193+272514464+272150202+272471554
2754+273115538+273040390+272307279+271847469+271877234+271722463+271374320
2741+271577308+272301276+272818475+272830064+272494760+272078305+271837881
2727+271775072+271652957+271400221+271205959+271129894+271230443+271698785
2714+272454796+273193604+273400623+272821866+272133082+272015079+272266453
2700+272370477+272119047+271861726+272280516+273133158+273502784+273467517
2687+273518987+273709581+273869687+273717696+273355990+273067764+273045226
2673+273274477+273143163+272484839+271936708+271688085+271380962+270773051
2660+270097330+269802240+270075791+270956586+272001962+272606065+273119790
2646+273770805+273900480+273580156+273522210+273739429+273855319+273664475
2633+273325252+273316971+273756798+274311599+274687368+274641595+274277555
2619+274203435+274439857+274264743+273560980+273038834+273201803+273572569
2606+273566288+273520487+273585186+273490584+273377167+273236403+273079937
2592+273200997+273392925+273335424+273055620+272666900+272501152+272778261
2579+273185406+273462264+273645049+273606613+273422550+273466739+273646272
2565+273751184+273870604+274012063+274132455+274120311+273775113+273227482
2552+272845099+272714035+272857328+273223369+273284955+272813556+272338378
2538+272348660+272719927+272881562+272507544+271997432+271979367+272445569
2525+272844043+272734600+272171796+271711402+271725743+271946351+271983481
2511+271920033+272033116+272179716+272053404+271874038+272107931+272623824
2498+273010236+273137716+272936617+272489980+272090589+272036618+272427421
2484+272914856+273041668+272787321+272485478+272221431+271864728+271695478
2471+271843078+271927342+272037507+272383511+272721677+273076296+273364550
2457+273192215+272781929+272511991+272264591+272147283+272454879+272909770
2444+273063346+272845127+272393988+271912974+271641145+271620357+271573445
2430+271357533+271120333+271075061+271330242+271611103+271551184+271344555
2417+271529813+272048540+272347326+272148478+271671605+271408837+271247340
2403+271033652+271193758+271437073+271317291+271165745+271117971+271018672
2390+270912175+270745732+270454617+270375772+270501001+270288813+269730093
2376+269098866+268289606+267160578+266065817+265645332+265538807+265585942
2363+266891001+268071388+265974438+262657972+262592106+264913138+266723168
2349+267047689+266020267+264856499+265266451+266294096+267095351+268135225
2336+269099783+269909737+270261160+270120786+270377301+270540548+269606060
2322+268477282+268458189+269016047+269149502+269212283+269943420+270886190
2309+271094821+270589600+270162389+270242068+270629953+271051299+271272380
2295+271210211+271077145+271090263+271266461+271522448+271813008+272003768
2282+271963888+271878818+271982702+272136111+272094202+271960191+271921117
2268+271999766+272183246+272327539+272246582+271969918+271694505+271564163
2255+271568387+271512804+271313956+271263598+271532203+271863116+271749615
2241+271170163+271007139+271563246+272028336+271983758+271762872+271661711
2228+271745558+271893714+271868007+271840271+272058795+272188859+272040842
2214+271817010+271636504+271618106+271666797+271564496+271476981+271494851
2201+271411449+271355171+271450079+271273881+270766798+270450837+270315409
2187+270121647+270049695+270052113+269997419+270125343+270396421+270483353
2174+270497610+270644710+270747372+270655188+270364572+270058422+270083406
2160+270371326+270556806+270525068+270391308+270249349+270058171+269938057
2147+270057449+270217111+270326776+270491524+270543938+270387695+270161417
2133+269954565+269826669+269819776+269782091+269477941+269157728+269283484
2120+269634018+269661170+269396623+269309859+269532996+269811967+269889422
2106+269680708+269450261+269465129+269598000+269483444+269035640+268817394
2093+269169678+269551255+269393094+268886067+268612543+268620630+268582278
2079+268588059+268782682+268952961+269038030+269151141+269271923+269487585
2066+269713057+269639354+269494783+269600418+269822833+269977270+269892923
2052+269589830+269375558+269460989+269847401+270282588+270390724+270269748
2039+270407705+270722248+270734421+270584986+270612667+270711577+270863096
2025+271185699+271439963+271294058+270914704+270810153+271055857+271386715
2012+271794777+272069189+271915920+271788273+272092062+272450850+272477835
1998+272268315+272097870+272065132+272208480+272494010+272741882+273021130
1985+273316998+273375555+273345735+273405848+273355212+273234069+273256913
1971+273265334+273196967+273366940+273742791+273925242+273947948+274199155
1958+274618306+274814736+274822934+274829410+274750538+274662744+274689257
1944+274624726+274608495+274992073+275393187+275417588+275264513+275183806
1931+275266097+275426537+275564021+275787659+276096172+276246052+276098090
1917+275842353+275796969+275942569+276089475+276208172+276382258+276596113
1904+276554092+276243606+276165095+276468522+276864440+277003063+276841261
1890+276837732+277016737+277086521+277253270+277423020+277257550+277000201
1877+277014458+277112478+276843902+276420777+276523966+277074126+277474545
1863+277607222+277670837+277809988+277925518+277948140+278054970+278195817
1850+278145292+277970706+277867294+277982379+278241201+278499272+278804867
1836+278913087+278464922+277858373+277938190+278660630+279117354+278980231
1823+278576394+278322130+278431600+278820486+279177301+279234495+279037287
1809+278865286+278898608+279029867+279082560+279057964+278956664+278797836
1796+278759178+278964557+279327069+279596424+279685579+279552735+279118577
1782+278751535+278798586+278830102+278549214+278402892+278681556+278997295
1769+279088340+279089118+279073499+279194698+279575024+279942038+280000067
1755+279836597+279817032+280101422+280507317+280733289+280664755+280529494
1742+280695993+281162278+281313241+281030685+281104916+281508310+281596019
1728+281659523+281884300+282086483+282174610+282221522+282400971+282721351
1715+282954549+283004630+283018609+283122716+283266981+283430256+283577273
1701+283747273+283897291+283878699+283993672+284143552+284005734+283689300
1688+283375201+283489591+284214142+284636016+284502006+284184294+283898931
1674+283584721+283125578+282880652+283096369+283280793+283140891+282893547
1661+282746086+282480510+281721553+280715864+280624319+281087352+280874831
1647+280390565+280088333+279800024+279384486+278917284+278654071+278896023
1634+279163155+279038343+279045430+279475420+279953933+280360133+280894313
1620+281449864+282114886+283146088+284131240+284844508+285553802+286424313
1607+287365666+288083214+288652800+289426820+290188806+290543286+290792853
1593+291402431+292304348+293233389+294016607+294607649+295129572+295671645
1580+296074760+296349367+296812262+297276240+297597009+298162621+298735348
1566+298895149+298963210+298870553+298466521+298580605+299297875+300036238
1553+300747227+301113018+301093453+300910641+300709097+300618386+300955107
1539+301692470+301917387+301701975+301649533+301796160+301899100+301988255
1526+302026774+301986449+302313332+302988220+303311490+303381385+303498360
1512+303430632+302980521+302654027+303116866+303465510+303265662+303154913
1499+303276139+303306376+302969238+302422052+302030581+301869780+301544564
1485+300865369+300152073+299550944+298670649+297180693+295245546+293138314
1472+291177571+289815872+289221218+289661880+291060847+292497748+293672744
1458+295183849+297140479+298737265+300099047+301548149+302929719+303967174
1445+304545097+304902496+305090755+304894464+304594260+304553713+304426956
1431+304123556+303982404+304012001+303912480+303513784+302967737+302665839
1418+302682486+302592302+302315916+302153531+302218257+302422219+302877248
1404+303659745+304468309+305171489+305857799+306501894+307132677+307451417
1391+306819273+304818927+301459773+297439209+293647731+291190772+291246327
1377+293802891+297637613+300977257+302625069+303290646+304519474+307049442
1364+310736451+314811013+318234088+320644275+322172360+323081308+323621574
1350+323611902+322870315+321810543+320910961+320439507+320779480+322097907
1337+323889706+325497192+326542679+327041786+327289964+327276290+326845411
1323+326161324+325432382+324767527+324363134+324307245+324334147+324354824
1310+324658779+325299678+326222910+327424669+328654580+329814901+331114347
1296+332606526+334173131+335681068+337038819+338322368+339639100+340962474
1283+342341097+343795480+345052682+346039863+347084655+348278131+349418832
1269+350466153+351550965+352684607+353687990+354452255+355105743+355863728
1256+356765088+357644160+358343810+358919955+359587033+360403741+361300516
1242+362141541+362681668+363000548+363434845+364039893+364684932+365269943
1229+365753070+366199289+366729606+367404744+368172011+368860655+369383857
1215+369899834+370458081+370982283+371556121+372116647+372414516+372539578
1202+372893141+373468202+373865925+374079114+374398993+374891514+375304828
1188+375426972+375566513+375967710+376261272+376058033+375285680+373985985
1175+372015014+368962650+364542446+358988211+353204418+348552433+346228872
1161+346625901+349199947+352916888+356877421+360591167+363733075+366111663
1148+367785654+368766609+368957342+368262138+366479900+363446990+359393994
1134+355301562+352582390+352103321+353967294+357829473+362874791+367779484
1121+371318421+373278914+374200257+374564353+374798885+375315306+376246653
1107+377536622+379250382+381498017+384302926+387594296+391083542+394532435
1094+397897814+401028967+403855692+406498188+408955759+411244942+413378048
1080+415152366+416587323+418002603+419577156+421211044+422573798+423585185
1067+424617110+425753197+426841983+428168664+429778929+431160721+432221382
1053+433247415+434365410+435615053+436827400+437877445+439039017+440309420
1040+441465434+442715772+444069522+445360852+446641038+447652786+448409937
1026+449473321+450964333+452608559+454154098+455405881+456445365+457490547
1013+458625411+459858880+461119056+462287047+463399679+464672444+466196139
999+467744596+469050517+470126936+471197852+472394886+473679074+474916905
986+475944300+476818508+477841734+479022038+479960555+480575970+481089667
972+481513042+481755161+481419385+479967170+477087196+471675587+461919172
959+447903131+433007213+422385817+420431326+428037822+441854264+457218246
945+470985747+481901845+490067199+496081493+500490164+503905179+506853464
932+509506215+511986936+514386507+516494878+518151583+519539822+520999485
918+522736952+524727599+526717078+528425920+529937720+531380875+532792959
905+534305982+535763588+537090520+538558187+540219560+541918675+543401627
891+544657801+546045874+547515764+548775885+550002433+551442976+552970394
878+554502482+556079981+557472445+558693546+560113356+561720147+563212382
864+564451492+565613509+566823216+568017248+569298768+570686729+572047455
851+573398787+574933042+576586912+577927072+578966473+580143552+581631007
837+583136637+584292651+585216828+586066913+586731741+587086304+586602622
824+584032912+578567665+571969639+568628883+571875036+580355157+589690475
810+596957887+601924166+605401267+607929401+609727897+611245923+612847044
797+614254349+615367397+616594390+618051607+619539229+620953758+622372957
783+623694775+624766025+625893691+627374309+629119001+630813613+632240372
770+633536065+634878726+636313433+637910441+639711272+641549733+643236230
756+644849136+646501950+648080004+649575908+651283637+653303521+655367204
743+657234345+658906168+660491783+662109301+663840821+665628701+667427198
729+669318518+671341236+673392524+675343207+677087677+678669233+680393304
716+682358828+684280996+685930197+687591682+689643081+691929540+694069427
702+695848359+697547140+699554462+701742261+703758365+705451699+707176437
689+709236729+711373726+713350143+715390815+717861198+720586651+723095831
675+725300417+727140489+728345972+729727819+733092476+736353859+738653770
662+740800160+742946105+745045139+747291856+749950554+752674618+755092475
648+757444133+759871384+762302581+764835828+767499362+769952904+772253259
635+774887000+777798600+780541895+783020005+785570594+788318780+791048902
621+793484657+795662897+798256062+801521837+804785388+807480660+809818923
608+812381684+815088239+817596419+819926789+822166558+824423114+826739532
594+829421075+832592136+835660981+838398495+841064308+843853237+846537614
581+848786277+851039108+853872003+857227767+860645172+863836743+866743341
567+869601693+872718005+875910522+879175796+882461581+885532926+888332805
554+890920468+893621576+896322628+898978492+901633577+904222963+907265628
540+910718939+914008837+916703608+919012301+921800396+925032098+928084824
527+930814112+933487095+936199764+938845511+941596532+944461610+947368485
513+950627535+954190400+957196325+959406302+961576704+964164311+967134329
500+969466255+970587029+971937361+974267842+976579425+978104175+979463734
486+981862804+985157315+988889041+993042531+996446207+998530789+1000439284
473+1002612132+1004377557+1005670082+1007101231+1009256626+1012458981
461+1015698020+1017464779+1018258614+1019630067+1021627940+1023514202
449+1025433258+1027822323+1029994726+1031506248+1033158729+1034680700
438+1035064000+1035603488+1037953645+1040597280+1041711051+1042095796
426+1042831825+1043968274+1045513368+1047330262+1049916091+1053440160
415+1056242651+1057870897+1059835642+1062132773+1062648583+1062339875
403+1063993690+1067899057+1073741823
##END=
