##TITLE=павел 1-многокр
##JCAMP-DX=4.24
##DATA TYPE=INFRARED SPECTRUM
##DATE=2/2/2015
##SAMPLING PROCEDURE=Instrument type and / or accessory
##ORIGIN=Default
##XUNITS=1/CM
##YUNITS=TRANSMITTANCE
##RESOLUTION=4
##FIRSTX=3996.3347
##LASTX=399.24773
##DELTAX=-1.928733
##MAXY=1.152845
##MINY=0.19474824
##XFACTOR=1
##YFACTOR=1.0736706e-009
##NPOINTS=1866
##FIRSTY=0.32715797
##XYDATA=(X++(Y..Y))
3996+304709820+304299565+304695303+305033860+305756996+306853053+306625553
3983+304329432+302206850+302560147+304327600+304958582+304560901+305226663
3969+306547833+306150929+303944548+302209348+302660351+304450787+305464544
3956+305207038+304634708+304109038+303228379+302242713+301927028+302573942
3942+303813422+304818046+305490747+305931257+305807653+305454079+305608633
3929+306813443+308252388+307995188+306144406+303910878+302110227+302226280
3915+303872656+304992446+305297583+305488776+305944997+306672269+306663165
3902+305312544+303608877+301964972+300958960+301476386+302414142+302212818
3888+301765535+301961391+302138150+302230305+302615661+302680170+302337893
3875+302058154+302124300+302291982+301647760+300940002+301008729+300972866
3861+301510722+303720906+305924790+306111097+304260483+302392853+301490237
3848+301029186+300182141+299015386+299420921+301937770+303883343+302922242
3834+300386602+298960953+299878863+301896161+303160151+303281478+302535692
3821+300648937+298962646+298810314+298924202+298985269+299770165+300587621
3807+301348063+302063400+301759956+300949717+300804851+301144102+301486434
3794+301584085+300963290+299288990+297589543+297196331+297842191+298648932
3780+299364685+299454203+298886425+298947269+299916030+300735735+300656071
3767+299959748+299635320+299919195+299833091+298564938+297116778+297560342
3753+300233825+302643058+302267611+300649853+299046363+297404373+296564989
3740+296571123+297357296+298737839+298837322+296948735+295392460+295688160
3726+296619227+296936300+297254400+297797584+298093284+298193072+298391593
3713+298548728+297724055+296087006+295189664+295291506+295264387+294716789
3699+294607619+294750375+293938998+292146452+290472485+289719232+289487652
3686+289182543+288807179+288383740+288114465+288410415+289563819+290807989
3672+291209389+291188432+291167337+290993215+290383412+289284052+288238957
3659+287735771+287499888+287572168+288736120+290538576+290362483+287517125
3645+284920447+283836298+283726378+283791553+283397175+282349832+280959963
3632+279780911+278816508+277097241+274770975+273293309+272812523+272230755
3618+271263714+270592623+270270443+269436249+267387447+264940214+263605443
3605+263395569+263368228+263226860+262429139+260337202+257932743+256346768
3591+255279800+254476195+254500344+254823302+253789782+251641358+249968141
3578+249059668+248117665+246987022+246086072+245371707+244853448+244705779
3564+243813989+241846154+240204692+239312069+238488228+237197869+235390279
3551+234183469+234537793+235120310+234192407+232708968+231473235+230012723
3537+229297415+229429429+228618593+226893928+225764242+225146862+224083961
3524+222787537+221796722+220890373+219623927+218233697+217066692+216237911
3510+216034060+215694462+214098161+211826452+210580353+210639157+210503145
3497+209678320+208644814+207671042+207066250+207081919+207413578+206586102
3483+203990353+201345432+199946056+199276408+198975240+199390033+199959643
3470+199688384+198723203+197414066+196173115+196094159+196593737+195516180
3456+193084353+191319703+190779724+190803124+190871546+190524620+189482079
3443+188226750+187388670+187059731+187098216+187206137+186927952+186232920
3429+185629488+185392301+185471063+185618940+185248906+184199495+183033517
3416+182547721+183408562+185055492+185804360+185022947+183496122+182046699
3402+181385462+182018637+183628484+185194724+185458280+184164923+183002110
3389+183136650+183299086+182877951+183180312+184177053+184892487+185511769
3375+185929796+185789121+185438864+185057019+185068913+186219000+188190609
3362+189663737+189933248+189625848+189503618+189491835+189066536+188594188
3348+189135722+190390426+191390471+192144154+192792109+193360636+194059596
3335+194621240+195040585+195861538+196506190+196534253+197057286+198261236
3321+199252995+200220896+201535987+202642772+203256308+203876589+204843144
3308+205697448+205878565+205824105+206078502+206449882+207116699+208410292
3294+209900476+211115349+211747829+211462442+210876052+211211612+212638704
3281+214214145+215097761+215612342+216349176+216630817+216047828+215680431
3267+216277701+217252056+217833199+218262578+218964369+220062092+221837276
3254+223144858+222873307+222598454+223607824+225123990+226222739+226892318
3240+227447619+228110202+229163915+230227260+231047714+232051839+233093103
3227+233758337+234025780+234621065+235981234+237184296+237584947+237674659
3213+238181787+238965490+239434729+239897445+240713235+241464851+241959071
3200+242548778+243431713+244507813+245526899+246258334+246818202+247586915
3186+248640282+249370274+249597913+249960924+250635846+251442421+252338652
3173+253211734+253795278+254029162+254490324+255480819+256364366+256720882
3159+256980914+257380731+257804004+258625374+259983544+261029222+261351430
3146+261726044+262163806+261912685+261735759+262558184+263504018+263775652
3132+263827031+264052782+264571485+265376672+265890434+265844356+265802082
3119+266283479+266920845+266978302+266669612+266435562+266194655+266080405
3105+266579789+267946092+269412184+270057710+270042444+269755182+269460842
3092+269549527+269898577+270124189+270129546+269794514+269404689+269561768
3078+270178288+270873473+271431675+271458572+270855431+270422193+270612970
3065+270732021+270689747+271000630+271168784+270829616+270821761+271440585
3051+271833075+271589059+271066415+270883271+271271986+271567381+271644102
3038+272080504+272428693+272220985+272027321+271883954+271608656+271621452
3024+271607962+270980977+270194277+270017323+270303447+270245711+269790434
3011+269370048+269136802+268982305+268567470+268033279+267424003+266039547
2997+263671034+260621327+257128639+253534192+249753410+245020603+238634371
2984+230500643+221040707+210921935+201040239+192410597+186098783+183457082
2970+185478099+191623910+200131503+209577852+219242554+228244076+235603150
2957+240914199+244612736+247268260+248939312+249876930+250248352+249529241
2943+247884253+246329588+245122140+244039545+243422664+243467937+243560119
2930+243183340+242813334+243080582+243819651+244664504+245577334+246637751
2916+247577006+247895772+247758845+247619419+247488293+247395972+247418317
2903+247447351+247514552+247589275+247243390+246351849+245478268+245066042
2889+244965921+244793881+244548977+244683656+245256070+245733497+246175007
2876+247221100+248496970+249395894+250553184+252086420+253090018+253647775
2862+254500455+255543690+256264828+256733095+257189233+257637376+258319071
2849+259257327+259989318+260493892+261291973+262522515+263497384+263590121
2835+263194744+263129737+263591703+264203005+264636465+264778111+264697586
2822+264779415+265300533+265882551+266204093+266493464+266679299+266485109
2808+266154490+265939037+265861399+266354621+267537198+268287453+267902819
2795+267201944+267115035+267599902+267801449+267388335+266982216+266963924
2781+267352417+267877143+268046213+267840781+267515297+267333431+267589993
2768+268137841+268352128+268171538+268185750+268331171+268275018+268111721
2754+267999498+268162267+268355875+268264609+268130624+267985453+268004716
2741+268279681+268046352+267247716+267073372+267978624+268775651+268480090
2727+267792150+267436633+267184457+266951267+266824471+266953709+267408681
2714+267781102+267956363+267977958+267673959+267404712+267493286+267693750
2700+267815189+267804224+267669101+267529232+267590687+268046352+268846238
2687+269532651+269665664+269555634+269551082+269359112+268875355+268412389
2673+268185972+268026728+267820407+267656139+267258652+266772065+266825415
2660+267113231+267026073+266864441+266995151+267112537+266964590+266868355
2646+267407488+268442451+268959488+268706451+268465434+268596699+268656349
2633+268443228+268416858+268698624+268919739+268932258+268913466+268981611
2619+268950578+268770599+268703121+268800383+268748837+268506043+268364119
2606+268263804+268239377+268606081+269052503+269047479+268726909+268454386
2592+268321817+268309160+268441257+268596865+268392126+267888829+267714956
2579+268121047+268775873+269100884+268779398+268086878+267599264+267633988
2565+267786071+267670017+267594406+267862293+268157493+268044937+267948868
2552+268299472+268491498+268089626+267497560+267331654+267644508+267831454
2538+267786487+267833592+267839587+267696859+267427029+267134549+267280719
2525+267541528+266953154+265973761+265813601+266286060+266432508+266283840
2511+266464707+266944993+267254905+267133466+266888063+266989627+267179627
2498+267086362+266730928+266184329+265818736+265944699+266432508+266974999
2484+267211520+267109456+266952516+266945576+267102323+267150731+266908354
2471+266764987+266977386+267106930+266947853+266811036+266813312+266881124
2457+266968282+266941829+266668086+266396118+266442723+266533462+266408998
2444+266398589+266741060+267129664+267211520+267045836+266772453+266312041
2430+265806107+265687832+265902980+266009902+265920495+265683974+265379336
2417+265284906+265433630+265523092+265411313+265120526+264708301+264625639
2403+265111644+265551460+265599730+265585852+265694189+265826508+265828812
2390+265695826+265529199+265325209+265092575+264868156+264487796+263694128
2376+262433136+261034523+260480513+261587673+263942085+266357036+266002629
2363+261174365+256000300+254826105+257732584+261303326+262449374+262387309
2349+262520711+262257293+261056757+260077503+260500415+261543261+262388391
2336+262406628+261464819+260438322+260455115+261507843+262126417+261808817
2322+261996679+262939765+263102312+262772360+263208068+263918269+264121731
2309+264065411+264062025+264300461+264666332+264686539+264317310+264031131
2295+264089838+264498649+265128076+265576248+265598315+265410286+265397629
2282+265545798+265466300+265320074+265526839+265745873+265596677+265516486
2268+265770327+265807689+265419113+265202133+265517180+265969154+266072828
2255+265923881+265839887+265775102+265741210+266132589+266660980+266435839
2241+265808827+265708845+265845717+265750620+265755866+266074743+266346738
2228+266266352+266012955+265896651+266032052+266275096+266334303+266122902
2214+265749759+265421333+265340920+265353550+265171711+264864492+264615036
2201+264413684+264204809+264059360+264268651+264816000+265089022+264892527
2187+264676546+264658393+264661363+264582088+264480662+264385399+264458095
2174+264709827+264833376+264818803+264708218+264343180+263945499+263836607
2160+263808267+263694767+263667759+263603472+263486947+263636420+263836773
2147+263753640+263597643+263598171+263891122+264454765+264787937+264582837
2133+264189404+263891983+263618989+263465296+263514288+263475538+263314962
2120+263351380+263505739+263299501+262723257+262453233+262776857+263296114
2106+263648384+263710505+263665760+263802743+263907444+263545987+263041801
2093+263095567+263513344+263534606+263112666+262784379+262761423+262950562
2079+263124629+263044910+262904402+262938044+263013461+263004329+262984676
2066+263130014+263396735+263511429+263486614+263565167+263678140+263618212
2052+263547458+263698986+263921711+263930871+263736319+263594312+263651770
2039+263883212+264160730+264285361+264280365+264324166+264448602+264733116
2025+265163411+265337867+265031064+264667719+264699446+264940908+265151115
2012+265554402+266114214+266321090+266054591+265600063+265074393+264723845
1998+264933302+265552459+266039852+266347099+266861888+267320690+267247327
1985+266955430+266813590+266815311+266883539+266872436+266903441+267169218
1971+267384782+267356664+267351196+267508136+267744879+268050877+268303580
1958+268294670+268204320+268325092+268548262+268660624+268576158+268493857
1944+268764575+269180659+269277172+269196176+269348536+269641765+269675824
1931+269564294+269697946+269926834+269881478+269704053+269690174+269811974
1917+270021542+270247571+270359045+270357268+270275578+270192833+270167352
1904+270091297+270016518+270111115+270269999+270427161+270714617+271058976
1890+271219164+271141637+271006348+270957245+271000546+271083402+271158986
1877+271261716+271387651+271314344+271115074+271282673+271704086+271960093
1863+272067597+271980022+271789995+271826330+272106846+272280496+272198695
1850+272042588+271819945+271742807+272110205+272333874+272063850+271911989
1836+272252600+272646839+272752595+272770526+272849773+273011599+273258862
1823+273372584+273239265+272986895+272781684+272755537+272766334+272667157
1809+272696580+272879585+272958943+273061757+273342218+273393041+273008518
1796+272571255+272314499+272386669+272745544+272985646+272972350+272830898
1782+272835062+273199656+273670060+273879407+273808931+273583790+273298916
1769+273186804+273390404+273621985+273621180+273533466+273716332+274123422
1755+274285775+274287025+274520215+274796817+274897438+274916202+274941961
1742+275108922+275277492+275110559+274896883+275109144+275307082+275297644
1728+275481926+275681391+275711452+275762914+275896677+276182884+276647543
1715+276955040+277054633+277111675+277099073+277093549+277195252+277282438
1701+277524095+277967297+278178781+278194297+278086099+277924134+277797810
1688+277603425+277584106+277920387+278067363+278031056+277989226+278039800
1674+278305605+278461296+278392735+278151024+277637983+277219929+277224648
1661+277125609+276616483+276204063+276259300+276481304+276105385+275510960
1647+275229139+275040833+274542171+273875104+273301248+273029142+273213784
1634+273530385+273689629+273957294+274379790+274816830+275373172+275932290
1620+276309485+276812145+277670820+278484002+279122866+279812721+280582074
1607+281350676+282113395+282978177+283824529+284356749+284704661+285198826
1593+285817955+286438250+287199081+288184719+289053526+289520656+289800645
1580+290086158+290451640+291033851+291594301+292056657+292600064+293010735
1566+293213142+293382906+293478225+293739644+294448846+294843918+294848886
1553+294959971+295313601+295612965+295520755+295299611+295453776+296093751
1539+296712603+296796846+296729923+296866101+297083109+297222812+297287014
1526+297269860+297408981+297910224+298398116+298690707+298886563+298745667
1512+298271875+297770882+297629014+298189242+298674580+298607712+298494712
1499+298558526+298649709+298666281+298601078+298490715+298332581+297980478
1485+297405872+296835568+296349952+295758247+294974294+293977775+292702516
1472+291333520+290241322+289788237+290398512+291776279+292888269+293604827
1458+294616057+296102106+297273358+298113381+299061740+300200877+301180381
1445+301749630+302049355+302201188+302272524+302338781+302348690+302281046
1431+302300393+302470379+302509128+302268860+301973716+301849640+301942266
1418+302084801+302012631+301795985+301806366+302113169+302368287+302588404
1404+303031079+303533960+303970307+304572337+305514563+306583751+307115610
1391+306660611+305176561+302735990+299891687+297308138+295604998+295676862
1377+297738822+300760272+303238732+304359965+304744322+305613490+307553872
1364+310408861+313525492+316098882+318010980+319548213+320710638+321286827
1350+321256904+320852978+320266964+319635205+319335119+319810826+321082254
1337+322611188+323867794+324687665+325126899+325360339+325427734+325329750
1323+325255582+325202205+324998881+324657826+324381112+324515902+325150159
1310+325863747+326374261+326863514+327452776+328127920+329075030+330404333
1296+331884941+333199755+334273689+335283060+336320022+337377829+338511747
1283+339643306+340657423+341659133+342728987+343815967+344926875+346026651
1269+346960439+347732511+348595073+349552232+350323444+350992925+351765664
1256+352539652+353262094+353938126+354546152+355216050+356046302+356840192
1242+357391065+357864357+358487122+359199045+359779980+360121562+360451487
1229+361092461+361981032+362728206+363128884+363362158+363723282+364292087
1215+364879461+365375125+365949093+366652078+367261880+367759654+368298453
1202+368902427+369485166+369886150+370255573+370824045+371349771+371715752
1188+372119983+372539953+372828353+372962588+372935746+372738419+372306902
1175+371370117+369596945+366675644+362677160+358510355+355301653+353662828
1161+353778215+355566376+358472022+361646694+364500822+366805132+368618552
1148+370045200+370965525+371302805+371097817+370108598+368092549+365360969
1134+362575318+360581614+360224209+361861508+365130194+369082378+372721487
1121+375443795+377133722+378043055+378552154+378894237+379267435+380131329
1107+381594089+383326458+385282606+387482992+389853586+392406991+395044556
1094+397625746+400171518+402603984+404723484+406685517+408718665+410565005
1080+412012943+413286370+414502756+415596814+416655426+417782100+418927565
1067+420128296+421510893+422912947+424160505+425315352+426377156+427359047
1053+428342659+429446349+430768907+432148201+433236375+434071318+435168624
1040+436673465+438224133+439539557+440634670+441687287+442712452+443708638
1026+444847524+446264652+447885768+449420503+450681911+451815219+453076988
1013+454448426+455705976+456836897+457985471+459173127+460343630+461569842
999+462975782+464465412+465801543+466959804+468157981+469462635+470704669
986+471852382+473004315+474171848+475381183+476529007+477413414+478187180
972+479083745+479932511+480309512+479798109+478028963+474386412+467864530
959+458293356+447856317+440402924+439286742+445259611+455830413+467413916
945+477641969+485704721+491740294+496169212+499486667+502163482+504577155
932+506953190+509233185+511260420+513018963+514645992+516243653+517878343
918+519551449+521161768+522759707+524318508+525764669+527284999+528923685
905+530409707+531568745+532727229+534253998+535984617+537618641+538970927
891+540214181+541763767+543415611+544763511+546065167+547576614+549029049
878+550428578+551971279+553284094+554295408+555519843+557061379+558720662
864+560349134+561833545+563176171+564493649+565809240+567006528+568271933
851+569867041+571603490+573144748+574476715+575784423+577119555+578582315
837+580156993+581581837+582822482+584088276+585376109+586148931+585897227
824+584206467+580549317+576175802+574531009+577710010+584241442+591231647
810+596836536+600641190+603222407+605166703+606643842+608108601+609949417
797+611715622+613065298+614335922+615712135+617021730+618362024+620007206
783+621612473+622893922+624234328+625829935+627577209+629315212+630978159
770+632538237+633898572+635159147+636516430+638243829+640360166+642394784
756+644141892+645918922+647822803+649476645+650914035+652564436+654393427
743+656282431+658321435+660313585+662076014+663764665+665460920+667187321
729+669116850+671304301+673491030+675471688+677295573+679090367+680937346
716+682761952+684631525+686573600+688436456+690365541+692489983+694624139
702+696570323+698477257+700485617+702425972+704368325+706485050+708807069
689+711149739+713319315+715497217+717700434+719936794+722324431+724530313
675+726442466+728161705+729358994+730765184+734371928+738021029+740621510
662+742786755+744752924+747013765+749729440+752456218+754752866+756758728
648+759000639+761594792+764210818+766705044+769225806+771778988+774391516
635+777183246+780190207+783155477+785657641+787857361+790186208+792809895
621+795426031+797740889+800343869+803418058+806207123+808583713+811117743
608+814054867+816964510+819600299+822097800+824316506+826355177+828784951
594+831726126+834677017+837450927+840116028+842560623+845329093+848591255
581+851342515+853574267+856196121+859253101+862337505+865368449+868311179
567+871345065+874637872+877742095+880586841+883515082+886354610+889054519
554+892247677+895808065+898564154+900727234+903292908+906321131+909517009
540+912437034+914939087+917292583+920083647+923541000+926742984+929192021
527+931589318+934442448+937400944+940249410+943050245+945738939+948620825
513+951918295+955189784+957910788+960338008+962724924+964780416+966974473
500+969418014+971438532+973418080+976020727+978972561+981319728+982907453
486+984884003+987770996+991209918+994665939+997320769+999254462+1001523242
473+1004230256+1006284083+1007409924+1008517334+1010457688+1013354674
461+1016102214+1017777208+1019210934+1021325272+1023973552+1026550106
449+1028351785+1029574998+1031126416+1033376099+1035920344+1037840047
438+1038654338+1039248791+1040431590+1041492257+1041774161+1042078827
426+1043324024+1045382736+1047535713+1048595380+1048867958+1050951540
415+1055064190+1059918740+1063644563+1063836422+1061340253+1059993908
403+1062088704+1067404139+1073741823
##END=
