##TITLE=павел 1-многокр
##JCAMP-DX=4.24
##DATA TYPE=INFRARED SPECTRUM
##DATE=2/2/2015
##SAMPLING PROCEDURE=Instrument type and / or accessory
##ORIGIN=Default
##XUNITS=1/CM
##YUNITS=TRANSMITTANCE
##RESOLUTION=4
##FIRSTX=3996.3347
##LASTX=399.24773
##DELTAX=-1.928733
##MAXY=1.1536196
##MINY=0.19441688
##XFACTOR=1
##YFACTOR=1.074392e-009
##NPOINTS=1866
##FIRSTY=0.32833287
##XYDATA=(X++(Y..Y))
3996+305598762+305227312+305511079+305871989+305198658+304195152+304384219
3983+305240932+305524893+304978107+303712525+303177083+304078926+304966595
3969+305418071+305401178+304310268+303245515+304169272+306254978+307080290
3956+306617468+305974289+305422315+304687987+303705424+303031593+302832762
3942+302511491+301410484+300966941+302813566+304670511+304518392+304355288
3929+305277408+305396296+303968165+302733568+302410578+302190664+302019544
3915+302224589+302987045+304335455+305214053+304734505+304113766+304667765
3902+305544505+305240432+303715105+303129705+304435536+304900743+303110011
3888+301556112+301138477+301335811+301868590+301969836+301585016+301312954
3875+301104525+301568262+303018390+303481350+302634596+302703554+303619378
3861+303580766+303104629+303342961+303532112+303027876+302933343+303119525
3848+303326873+303690417+303545537+303157278+303556106+303828168+302861305
3834+301521744+300908772+301497861+302044564+301098117+299980605+299696588
3821+298854300+298431644+299907513+301218143+301271124+301234509+301176035
3807+300828191+300477074+300319434+300313775+300548917+301139448+301698856
3794+301752725+301354673+300530388+299797113+300097274+300742617+300746584
3780+300743810+301147631+301461773+300941670+299728182+299424831+300105818
3767+299965349+299174710+298672916+298392421+298818045+299782356+300096276
3753+300273027+301235702+301540856+300288256+298599380+297269028+296363246
3740+295535216+295321655+297044844+298891275+298406956+297381565+297170112
3726+297235936+297461286+297848852+297898088+297705970+297508414+297173801
3713+297145397+297219071+296793170+296613339+296690259+296188853+295160548
3699+294504221+294282366+294162258+294526357+294942854+293708479+291328519
3686+290382710+290808500+290908055+290115225+289663610+290469283+291263611
3672+291533232+291780356+290991576+289244394+287953653+287884306+288661186
3659+288784097+287618236+286428242+286121867+286713369+287206925+286101341
3645+284368166+282847194+281444776+280646621+280947254+281752732+281520309
3632+279577235+277001662+275580910+274863280+273748541+272953049+272740375
3618+272550975+271868352+270244385+268459422+267657050+267249623+266138019
3605+264724950+263422726+261912238+260580194+259592194+258301398+257259446
3591+257404770+257751810+256945499+255243919+253311414+251560403+250526940
3578+250140677+249495751+248260182+247106388+245916782+243847719+241643679
3564+240821862+240543864+239696694+238937678+238389615+237183755+235305285
3551+233962756+234072130+234888815+235258240+234681634+233026794+230836679
3537+229135279+228511753+228347595+227252038+224991730+223190013+222789007
3524+222515877+221324275+219593971+218104704+217610191+217709621+217232680
3510+215988540+214275823+212779649+212399975+212734130+212749150+212025085
3497+210465486+208581593+207273987+206626328+206190469+205852971+205129918
3483+203594660+202134532+201462408+201090112+200568845+200113929+200004985
3470+199621274+198191132+196254397+194861452+194026141+193515414+194096001
3456+195468668+195420860+193403128+191388058+190644048+190596490+190460751
3443+189923118+188553599+186930547+186674920+187416531+187315007+186547003
3429+186562564+187255465+187200432+186243582+185459157+184879431+184324808
3416+184081234+183839046+183590257+183608662+183507291+183168004+182863959
3402+182458265+181996623+181729804+181429198+181058983+180955254+181361932
3389+182136191+182695307+183073928+183736884+184531961+184751583+184015451
3375+183212219+182961114+183074482+183767675+184827546+185963643+186840188
3362+186793351+186649054+187096841+187364298+187616943+188386459+189573276
3348+191218089+192440148+192530133+192687980+193442794+193678019+193114797
3335+193087904+194403998+196208225+197762304+198721525+198862161+198804187
3321+199001091+199374663+200099824+201177974+202085074+202804909+204169255
3308+206075658+206974894+206370410+205922318+206655024+207760803+208517225
3294+208624033+208273235+208401152+209268794+210316557+211430685+212604312
3281+213339335+213645265+214113316+214989084+215981134+216553524+216787736
3267+216911493+216860953+217548042+219456775+221089743+221613257+221864765
3254+222192263+222546861+223379150+224551488+225177801+225261975+225747806
3240+226808134+227968586+229168690+230362762+231283745+231963234+232550824
3227+232835840+232864161+233447120+235033084+236569508+236860681+236804871
3213+237802385+239228630+239972834+240107117+240174356+240701753+241932384
3200+243405369+244626818+245669131+246419048+246500323+246302019+246740208
3186+247832561+248941308+250106780+251241241+251492943+251159828+251558073
3173+252783489+254094147+254895686+254969749+255022869+255661637+256460930
3159+256992960+257441468+257941793+258289221+258605249+259332809+260378977
3146+261169033+261542563+261881975+262494586+263145643+263310051+263255433
3132+263563223+263842968+263737200+263555761+263480006+263722110+264705949
3119+266191361+267265767+267665788+267781015+267761154+267727063+267826479
3105+267739601+267166268+266699618+266927520+267481214+268053937+268789514
3092+269515326+269837984+269900424+269893156+269376660+268855476+269376660
3078+270190322+270488847+270791144+270993415+270853778+271077852+271648411
3065+271794733+271578037+271269388+270776193+270431677+270744071+271436098
3051+271836757+271930375+272062551+272280827+272396498+272183214+271818228
3038+271954841+272587036+272725508+272094672+271417929+271109113+271152469
3024+271405502+271797257+272121856+271849239+270917882+269977094+269548169
3011+269313527+268719002+268089248+268055379+268151189+267266017+265188992
2997+262615250+260142143+257775415+255059068+251275055+245856118+238770108
2984+230080617+220128706+209683710+199700427+191464326+185672469+182767775
2970+183890668+189375540+197872899+207612386+217634005+227120306+234912532
2957+240650021+244562797+247166969+249306766+250584609+249988225+248277935
2943+246740707+245476346+244628538+244210986+243402012+242420615+242326636
2930+242665465+242894559+243892933+245257820+245532517+245268305+245708936
2916+246572250+246999427+247089800+247564993+248074998+247716169+247027443
2903+246914546+247062394+247274707+247727182+247563550+245997391+244075177
2889+243152363+242878804+242638503+242929538+244076065+245545332+246623650
2876+247129522+247649041+248897286+250751402+252348712+253238710+253691047
2862+254123744+254776382+255562527+256203653+256880562+258177461+259799847
2849+260767070+261046982+261313330+261644004+261725390+261874097+262632226
2835+263583638+264078664+264318355+264534024+264659736+264905890+265231766
2822+265262777+265169825+265303692+265621329+266056828+266399624+266353549
2808+266173053+266333772+266731463+266965828+267251898+267837879+268135516
2795+267843899+267687452+268170051+268653150+268534566+268219121+268027890
2781+267892164+267932912+267940180+267580103+267345904+267754413+268354986
2768+268585328+268565939+268655202+268815116+268800359+268618948+268399395
2754+268373931+268667269+268708294+267998320+267273700+267340246+267868558
2741+268234183+267908169+266929739+266350942+266679952+267149347+267152288
2727+267153785+267679213+268193047+268077986+267841513+268070608+268299647
2714+268104144+267898350+267989971+268181119+268259869+268267997+268407994
2700+268744383+269079800+269027512+268311990+267459384+267479439+268269300
2687+268798529+268969094+269191476+269076970+268585051+268426579+268675452
2673+268924934+268918471+268457924+267664956+267046048+266871849+266891848
2660+266952014+267055063+266996174+266837952+266865801+266939531+266924857
2646+267149680+267681183+268057765+268081620+268206694+268636340+268736560
2633+268297733+268035379+268337649+268778307+268806157+268436427+268033549
2619+267770002+267715246+267994825+268522306+268827849+268680639+268580807
2606+268786712+268763800+268415317+268222311+268226056+268270382+268451239
2592+268847987+269078690+268771428+268443001+268499643+268517035+268352711
2579+268214073+268181008+268363668+268720666+269055140+269091478+268727573
2565+268341005+268145586+268163477+268490989+268839388+268778224+268282726
2552+267811749+267733831+267822651+267890500+268132271+268334598+268078791
2538+267743595+267615581+267407318+267253895+267246627+267097864+266904303
2525+267016146+267236946+267151816+267035674+267034259+266763945+266430941
2511+266494879+266827744+267066131+267082219+267078835+267078086+266814790
2498+266532270+266584003+266831600+267131816+267354115+267409260+267421492
2484+267536165+267713415+267628368+267223327+266960529+266971209+266844914
2471+266591798+266698675+267143910+267386347+267153009+266784249+266648440
2457+266582561+266423923+266379236+266555127+266681561+266585002+266522590
2444+266639314+266797758+266944746+267010126+266942832+266887438+266847938
2430+266596846+266167811+266039935+266412661+266710159+266571105+266336962
2417+266139295+265941767+265981878+266186507+266143234+265870701+265740939
2403+265817276+265861242+265809120+265731923+265562550+265457948+265621190
2390+265744683+265661245+265562023+265552675+265560442+265189492+264497048
2376+264119052+263831623+263300176+263020513+262949807+262532810+261971349
2363+262019338+261660564+258650740+255729098+257937271+262185826+263472461
2349+263314766+263955338+264483928+263029279+261820256+262448845+262449649
2336+261418377+261398849+262369040+263141482+263731680+263966045+263246640
2322+262197032+262207434+262982567+263383198+263498730+263589297+263670821
2309+263952952+264376357+264846945+265184277+265276037+265373067+265490568
2295+265560109+265587876+265469709+265510180+266063263+266696678+266815955
2282+266421620+265889591+265584492+265634865+266026398+266449304+266364451
2268+266030809+266112028+266377405+266287226+265918578+265747845+265956524
2255+266152332+266129004+266170973+266318682+266358875+266196409+265842879
2241+265612286+265708290+265869036+266044983+266317350+266494019+266336462
2228+265856054+265659719+266102292+266440122+266079740+265513619+265409543
2214+265631565+265624269+265405549+265414120+265647542+265816249+265827123
2201+265594672+265191406+264863200+264667448+264579766+264455940+264265485
2187+264273945+264436522+264487867+264523539+264655243+264608919+264396440
2174+264401461+264522291+264507478+264424151+264313501+264277552+264406259
2160+264549697+264623842+264695908+264746836+264584648+264195583+263959915
2147+264004852+264159800+264396690+264476522+264214917+263936448+263828627
2133+263658339+263342782+263164283+263271577+263458481+263565691+263559700
2120+263448412+263488744+263832511+264098886+264003465+263799196+263677062
2106+263519146+263361534+263381034+263507218+263465194+263289052+263508633
2093+264083130+264188538+263836505+263752540+263881553+263816672+263699004
2079+263721528+263676286+263389578+262995576+262745178+262814497+263141177
2066+263487523+263673928+263656758+263618312+263787047+264045378+264118054
2052+263986627+263865159+263867933+263924465+263995088+263994949+263909680
2039+264019082+264296247+264318633+264176471+264321323+264706254+264964863
2025+265039397+265108994+265167301+265222196+265432289+265632508+265551011
2012+265408739+265616114+265970449+265912253+265694282+265880714+266266533
1998+266690132+267201108+267358997+267132038+266927936+266723446+266739701
1985+267087767+267195532+267022720+267052816+267274144+267405487+267437026
1971+267439939+267355058+267259997+267404516+267826950+268198428+268270882
1958+268216264+268228746+268299480+268371712+268373903+268309161+268356678
1944+268707462+269149064+269272917+269186372+269219964+269395800+269545978
1931+269600318+269682730+269837512+269972656+270029825+269989937+269957483
1917+269933267+269765946+269623230+269779039+270100975+270335645+270527320
1904+270702463+270760132+270774445+270892030+271042013+270957133+270674364
1890+270621799+270897134+271210499+271377680+271365974+271384615+271609271
1877+271882165+271975784+271881389+271908490+272047821+271869350+271632489
1863+271808020+272241438+272547008+272617520+272663816+272781845+272774744
1850+272533638+272236584+272104991+272205073+272369397+272404431+272406206
1836+272455165+272393585+272204851+272114561+272307983+272708864+273026196
1823+272964893+272729197+272780902+272959845+272974463+273153933+273560472
1809+273703244+273395593+272878986+272572251+272761956+273211796+273457756
1796+273426383+273402583+273524218+273556672+273433151+273427687+273642080
1782+273741634+273539918+273226664+272930608+272809195+273124086+273536201
1769+273467048+273179258+273245804+273675061+274037940+274304704+274781506
1755+275162137+275056952+274799203+274865194+275134704+275318418+275376142
1742+275338029+275311095+275375449+275497166+275676581+275823291+275947089
1728+276098543+276195324+276220039+276100207+275941070+276228444+276921719
1715+277238191+277184821+277230840+277403958+277434720+277278051+277164711
1701+277516549+278284858+278638222+278679054+278689650+278535062+278381056
1688+278393483+278545325+278732395+278782825+278741522+278592786+278495673
1674+278561330+278258756+277598712+277295027+277261075+277138941+277045767
1661+276893731+276511657+275943372+275429262+275459247+275653641+275545349
1647+275353036+274983999+274379793+273749679+273273154+273087304+273269326
1634+273451098+273387937+273480363+273913199+274441650+275061751+275794609
1620+276422393+277069234+277974295+278830896+279449387+280019336+280687868
1607+281477370+282228064+282843033+283505019+284320206+285129374+285795327
1593+286311823+286757862+287260960+287915290+288658357+289321619+289853787
1580+290307427+290842009+291463025+291872144+292235938+292810963+293371120
1566+293677245+293685622+293423019+293353783+294032440+294626910+294773315
1553+294943187+295244958+295461070+295409393+295247676+295289867+295859649
1539+296733615+297047645+296989394+297050142+297173135+297174855+297258932
1526+297503338+297643280+297753819+297929877+298041637+298214061+298333865
1512+298183742+297894760+297916812+298647146+299225445+299203309+299046224
1499+298879154+298701043+298576579+298506455+298518106+298504236+298304240
1485+297867742+297216020+296494895+295739790+294804854+293629534+292194635
1472+290650112+289533404+289232133+289895590+291123530+292081710+292692851
1458+293693084+295334387+296523798+297284091+298291397+299529905+300557877
1445+301240167+301701463+301846953+301739882+301721408+301786760+301847702
1431+302050389+302255601+302120069+301727593+301379111+301176008+301269959
1418+301567873+301678107+301670063+301624516+301641242+301979850+302538398
1404+303076641+303604316+304320309+305241847+306006494+306419830+306426431
1391+305883334+304595672+302335489+299406551+296614171+294919526+295144488
1377+297229057+300230365+302768879+304016625+304537032+305386477+307183977
1364+310045454+313390030+316180634+318100602+319445017+320391741+320871262
1350+320898862+320666272+320223339+319736052+319610090+320036768+321016724
1337+322344080+323632130+324596829+325148665+325394430+325409187+325170134
1323+324798157+324430840+324030292+323745387+323837536+324181247+324573307
1310+325039346+325654814+326393636+327142972+327958020+328993176+330239840
1296+331536461+332697690+333785522+335038205+336395602+337612169+338738031
1283+339908413+341021265+341995950+342878626+343710262+344553161+345428014
1269+346343949+347368869+348464439+349521093+350413227+351135379+351942411
1256+352839205+353606543+354280124+354915980+355510256+356069719+356581305
1242+357166871+357870742+358445351+358850837+359447331+360226153+360812801
1229+361255955+361767125+362329945+362926884+363479440+363856660+364210995
1215+364827989+365620236+366359419+367044289+367646082+368117780+368492503
1202+368808143+369168886+369572402+369929011+370292362+370693742+371117674
1188+371561383+371910032+372191747+372592461+372868462+372621920+372015578
1175+371160308+369474179+366432122+362310778+358028604+354592435+352750746
1161+352917013+354915703+357951767+361158870+363999986+366301278+368135256
1148+369601195+370656766+371167381+370945693+369697920+367452632+364753593
1134+362138936+360172007+359704609+361292987+364515539+368354170+371924345
1121+374651483+376424268+377463835+378059081+378584620+379282250+380186091
1107+381331286+382863077+384786262+386908167+389238752+391799679+394509897
1094+397377587+400167442+402470205+404302129+406120101+408147445+410157314
1080+411965993+413570654+414907247+416036909+417260216+418441084+419299599
1067+420304631+421674954+422931021+424021239+425134202+426197318+427236884
1053+428336144+429493406+430683011+431806765+432799175+433810254+435066099
1040+436514868+437895066+439127528+440271808+441295507+442290054+443512391
1026+444832091+446010490+447295267+448708308+449972281+451237308+452646382
1013+454044583+455303563+456439355+457662746+459024470+460312576+461587423
999+462985679+464286572+465438453+466640651+467892003+469173979+470502611
986+471899591+473328804+474595800+475672620+476544616+477154259+477683681
972+478320508+479094253+479728140+479608364+478060540+474304432+467469708
959+457649737+447062483+439440199+438158917+444089857+454777913+466519544
945+476883029+485152236+491416207+496008196+499476209+502306452+504779808
932+507014776+509133409+511122279+512747661+514294763+516112597+517868406
918+519419503+521010155+522561197+523820094+525014692+526598909+528465340
905+530145867+531511890+532802132+534185687+535684413+537223582+538649356
891+539995740+541377742+542798078+544239884+545715865+547235173+548739503
878+550335647+552039863+553490434+554715878+555981598+557170649+558346773
864+559824862+561499951+562983976+564320042+565628868+566816310+568159200
851+569765719+571401197+572993791+574428497+575728336+577000602+578362077
837+579878223+581278200+582484781+583589339+584479199+585104709+585238798
824+583989887+580565590+576149965+574186836+577204316+583810806+590741783
810+596223909+600007035+602660360+604858602+606616742+608049949+609620574
797+611267703+612656805+613934897+615409491+616874819+618143425+619488533
783+620863156+622238168+623895893+625597223+627031373+628358674+629754156
770+631177433+632724147+634535878+636386054+638151628+639943442+641769596
756+643553588+645299245+647086787+648718549+650184321+651956885+654081009
743+656115538+657861084+659410849+661011377+662874813+664849925+666729504
729+668607309+670661642+672793035+674666068+676247178+677920215+679956186
716+682175899+684261910+686157856+688110888+690174653+692149376+694045377
702+695859105+697732027+699938093+702163131+704077883+705950972+708065222
689+710262521+712326120+714408026+716656476+718963788+721237647+723464793
675+725686503+727616789+728754966+730153001+733920260+737491961+740050419
662+742438062+744576944+746563373+748741755+751220992+753731351+755905017
648+757915413+760240145+762851751+765567211+768468187+771404892+774127287
635+776650850+779255022+782035612+784679506+787040631+789423170+792135635
621+794716395+796865152+799287524+802288860+805368419+808145293+810833790
608+813665420+816306541+818545004+820456373+822532620+825302670+828229833
594+830701746+833078016+835819884+838638144+841275103+844310946+847548838
581+850054704+852118802+854432105+857249921+860673441+864443696+868009238
567+871061225+873868556+876735192+879837830+883247370+886697852+889677995
554+891941424+893871988+896204930+899415583+902615639+905024475+907473753
540+910370736+913331906+916129528+919049645+922297967+925196614+927589749
527+930131897+933082693+936142169+939038985+941719772+944437950+947776923
513+951469398+954614864+957019151+959287961+961904172+964600492+967174872
500+969195698+970269189+971472053+973675178+976296049+978866879+981730852
486+984811632+987498188+990350844+993595282+996102202+998320306+1001288688
473+1003989557+1005357079+1006094376+1007131252+1009014715+1011840852
461+1014628267+1016694029+1018492057+1020339903+1022295931+1024532564
449+1027084199+1029400387+1030791431+1031648005+1033036164+1035169165
438+1037190878+1038740366+1040341560+1041792964+1042455920+1042571203
426+1042820963+1044055782+1046427559+1048520838+1049965141+1051755734
415+1053525468+1055672006+1058867957+1060972997+1060158698+1058763104
403+1060053512+1065224908+1073741823
##END=
