##TITLE=павел 1-многокр
##JCAMP-DX=4.24
##DATA TYPE=INFRARED SPECTRUM
##DATE=2/2/2015
##SAMPLING PROCEDURE=Instrument type and / or accessory
##ORIGIN=Default
##XUNITS=1/CM
##YUNITS=TRANSMITTANCE
##RESOLUTION=4
##FIRSTX=3996.3347
##LASTX=399.24773
##DELTAX=-1.928733
##MAXY=1.1478852
##MINY=0.19469053
##XFACTOR=1
##YFACTOR=1.0690514e-009
##NPOINTS=1866
##FIRSTY=0.32999334
##XYDATA=(X++(Y..Y))
3996+308678644+308350193+307228436+306745795+306744848+306748611+306869571
3983+306589571+305664405+304633779+304004727+303902305+304054711+304333234
3969+304795161+305378216+305990012+306255210+305999128+305872621+306088364
3956+306004369+305814218+306134891+306472904+306289164+306072669+306109355
3942+305564604+304305412+303818841+304354894+304457371+304234659+305562011
3929+307980567+308949528+308043737+306668241+305029693+302901676+301622384
3915+302470720+304512234+305959264+305744106+304474293+303807745+303770947
3902+303288836+303034567+303530282+304213891+305116113+305810705+305509323
3888+305149873+305577177+306077938+305679459+304189498+302918653+303219338
3875+304427320+305006834+304459490+304380541+305844381+307154617+306934051
3861+305798467+304488009+303362265+302615431+301987745+301932352+302786514
3848+303405308+303393795+303486180+303999402+304898503+304952055+303342166
3834+301967729+301968091+303250031+304715488+304696559+303297311+301793356
3821+301047999+301074566+300818067+300288174+301052906+303044770+304735086
3807+305177416+304630183+304145507+304243664+304345277+303766375+302615208
3794+301711452+301584081+301885714+301827227+301083515+300469405+301195777
3780+302690115+302395423+300444928+299975195+301601197+302948565+303048088
3767+303209804+303237096+302553627+302046956+302307080+302941429+303128458
3753+302493886+301368394+300697079+300778146+300891970+300786565+300656016
3740+300657131+300959823+301311412+301260369+300825594+300575450+300669313
3726+300239026+299047883+298442749+298436031+297846508+297425058+297860977
3713+298145242+297528372+296168347+294753154+294161931+294619231+295744249
3699+296957416+297336799+296514807+295106806+293227147+291564403+291511882
3686+292279206+293125144+293866459+293709147+292782978+292077513+291915406
3672+291970548+291908800+291681794+291554534+290863845+289133609+287528598
3659+287005285+287398746+288071287+288147420+287477890+286933278+286920566
3645+286791772+285995511+284175371+282456509+282263068+282264936+281113880
3632+280248177+280587751+280336632+278516101+276528363+275094909+273741575
3618+272647250+272452080+272019312+270536962+268880323+266974906+264907521
3605+264296227+264480663+263171403+261029698+260068515+259574500+258669322
3591+258449008+258979486+258425925+255721683+252628049+251459542+251813612
3578+251558507+250290673+248921337+248151699+247833563+246992615+245600392
3564+244401303+242894839+240777610+239061480+238297557+237757907+236912666
3551+236393450+236429635+235853633+234390435+233331750+232955992+232318311
3537+230842080+228772368+226963880+226187663+225864425+225035576+224359118
3524+224341193+223906836+222278673+220263391+218883058+217724657+216689612
3510+216636506+216782583+215683616+214255069+214057126+214322463+213605792
3497+212037217+210751179+210308068+210020486+209334647+208383946+207337862
3483+206626975+206552334+206200159+204537944+202175771+200252652+199205118
3470+198846128+198268913+197026545+196014737+195794199+195604967+195171572
3456+195318848+195775396+194919589+192472905+190364151+190086409+190388585
3443+189765889+189294998+189433911+188863917+187940299+187338803+186437389
3429+185329348+184601080+184409060+184632539+185010263+185387472+185522008
3416+185004228+184077264+183611573+183624257+183434635+183079813+182678797
3402+182115214+182227379+183259384+183682535+182957055+182399452+182928606
3389+183997814+184781906+184911522+184268642+183636021+183634377+183673377
3375+183783088+184576966+185624123+186517968+187790625+189042179+189121783
3362+188317145+187533052+187374137+188415217+190024131+191022851+191624277
3348+192221660+192319385+191980870+192254012+193692930+195311907+196223148
3335+197005665+197784670+198045630+198085801+198211667+198602828+199426506
3321+200254241+200773428+201102312+201645390+202580480+203383878+203936950
3308+204463540+205029701+205893857+206971930+207920053+208208541+207884537
3294+208511261+210382111+211850271+212494628+212965630+213638757+214517089
3281+214973720+214852620+215027049+216008081+217447012+218741622+219336330
3267+219156967+218991153+219381575+219812196+220128409+220914077+222041799
3254+223068048+224202768+225443380+226644420+228111730+229467517+229738025
3240+229003136+228490291+229150845+230704463+232127337+232846461+233482386
3227+234618137+235687568+236469974+237333112+238030548+238429863+238947071
3213+239750023+240777721+241819080+242553230+243045990+243372713+243533063
3200+244214609+245774793+247179504+247847669+248418485+248842193+248975698
3186+249678096+250793970+251250462+251215337+251554688+252453704+253464342
3173+254162948+254600400+255083152+255710448+256390767+257080704+257778948
3159+258383580+258841883+259477236+260522246+261589642+262361287+262809416
3146+262698520+262308404+262424290+263066612+263793319+264426748+265033778
3132+265730433+266179704+266230636+266518079+267007717+266974543+266729306
3119+266915694+267387156+267934500+268470191+268629817+268319012+268361302
3105+269238407+270016408+270035030+269929152+270200705+270320271+270087886
3092+270200371+270672725+271157400+271606532+271450670+270907173+271110176
3078+271664322+271771009+271834653+271811319+271415015+271244573+271707950
3065+272359723+272843729+273248369+273232005+272557540+271866182+271832757
3051+272636712+273635362+273881770+273479528+273112578+272923542+272965135
3038+273281459+273372423+273187373+273019245+272664171+272319524+272212586
3024+272199428+272443299+272843228+272859508+272215123+271265648+270600829
3011+270238368+269804540+269076384+268033715+266896124+266099111+265715992
2997+264913320+262933665+260153262+257142926+253418958+247838274+240216857
2984+231415364+221792659+211421072+201228624+192751748+186992190+184336956
2970+185583714+191094495+199778319+209961260+220083987+229157438+236776262
2957+242699307+246809823+249446128+251118184+251626305+251008905+250151927
2943+249292803+247879672+245991929+244571801+244093231+244259826+244732180
2930+245062498+245135370+245333968+245521443+245615669+246225820+247151348
2916+247550273+247339743+247198573+247923886+248880999+248779163+248227721
2903+248360445+248768514+248797729+248741863+248591520+247692531+246310512
2889+245276262+244657914+244283410+244517831+245535382+246660149+247408405
2876+248125522+249179621+250416762+251513067+252483728+253339953+253933546
2862+254565107+255665928+256910568+257463432+257292265+257445813+258493277
2849+259895340+261157069+262139216+262698771+263111383+263678994+264237712
2835+264909807+265729318+266329294+266620110+266538513+266269664+266257092
2822+266484543+266804296+267158952+267604432+268085734+268099868+267854436
2808+268249988+268970143+269136794+269148781+269394019+269044437+268068395
2795+267762496+268373289+268923337+268934377+268798558+269079896+269614696
2781+269864393+269863752+269843847+269801167+269780510+269923214+270245616
2768+270665058+270900120+270633446+270143417+269773624+269515508+269593425
2754+270024799+270263011+270013899+269575500+269348662+269385432+269568559
2741+269805990+269788483+269467336+269315934+269470904+269546201+269270745
2727+268901426+268811493+268921497+268764158+268091031+267607554+267856164
2714+268242684+268432529+268752282+269206989+269444114+269463935+269479212
2700+269524485+269602680+269487436+269145464+268964624+269160546+269627045
2687+270026611+270232179+270356400+270486922+270495341+270099511+269626571
2673+269379745+269079924+268858745+269012684+269297256+269176101+268454301
2660+267675547+267264746+267151369+267475862+268071182+268502389+268954950
2646+269574050+270038710+270094047+270004114+270171880+270425536+270534843
2633+270528515+270558344+270693466+270768679+270986652+271414820+271465585
2619+270904274+270107093+269393935+268933262+268961000+269427778+269861048
2606+269792219+269146384+268580418+268791087+269256750+269078168+268700318
2592+268908116+269369459+269564628+269599112+269694815+269776747+269659662
2579+269201442+268730315+269011123+269733202+269890542+269681016+269743071
2565+269879363+269711374+269360120+269195253+269203867+269051573+268978925
2552+269328144+269538033+269203979+268826073+268734217+268749801+268778347
2538+268701545+268419817+268320545+268580641+268631489+268339725+268372592
2525+268894066+269314373+269184576+268608240+268006786+267644743+267598606
2511+267841752+268176615+268313799+268132986+268015121+268337718+268836722
2498+269017089+268851107+268698590+268616965+268397375+268122672+268130282
2484+268324058+268142604+267644687+267455762+267702504+267979382+268000876
2471+267837208+267712234+267831827+268026411+267941525+267869518+268145253
2457+268317256+268207112+268206638+268128275+267674627+267324153+267406865
2444+267612377+267801246+268054484+268200645+267917467+267149055+266518107
2430+266532492+266731034+266819963+267146100+267586702+267610676+267172974
2417+266730003+266636168+266684814+266603022+266607649+266621198+266338912
2403+266047593+265913057+265936279+266443396+267173978+267450828+267368143
2390+267291787+267162213+266908279+266516574+266013778+265595283+265150723
2376+264289452+263181355+262691662+263312128+263938727+262857030+260271378
2363+259329263+261651586+263180157+262266839+261675505+261758718+261993055
2349+262108774+261864262+261465783+261375516+262040252+263260806+263586023
2336+262092494+260252310+260303688+262299232+263862873+263488257+262483111
2322+262697265+263988015+264847390+264680683+264429926+264772818+265268644
2309+265605626+265891452+265995909+265863659+265917545+266191803+266299967
2295+266468653+266767359+266728442+266461014+266385160+266661480+267079473
2282+267050397+266588191+266338298+266498705+266712357+266678848+266707171
2268+266888486+266783527+266753671+267200182+267547144+267584890+267695312
2255+267736208+267369147+266816785+266503332+266603858+266914635+267104256
2241+267077048+266807056+266558557+266775722+267205535+267333018+267110585
2228+266703213+266455355+266512197+266566335+266550919+266613838+266723563
2214+266710015+266499736+266400660+266532854+266555630+266432635+266382317
2201+266267657+265967056+265738712+265717052+265787052+265808071+265734614
2187+265678246+265716299+265833439+265884344+265827195+265845622+265944837
2174+266075499+266238358+266256311+265982193+265617446+265414917+265351022
2160+265509700+265753208+265455283+264732312+264457051+264780735+265184064
2147+265392225+265319019+264981563+264576422+264385880+264610293+264976490
2133+265110858+265073280+265058588+265034252+264842846+264664514+264613527
2120+264435223+264278859+264348441+264366979+264311838+264403805+264495327
2106+264464773+264494797+264658744+264826454+264793781+264571292+264498421
2093+264709313+264787648+264487326+264311726+264477178+264623144+264645781
2079+264502770+264245378+264144183+264313232+264724060+265130066+265279321
2066+265279210+265253786+265137203+264972280+264784889+264498003+264305956
2052+264432658+264899158+265436800+265470086+265120253+265029317+265189361
2039+265379513+265540114+265638131+265810970+265980855+265942830+265755160
2025+265613013+265756442+265979628+265910269+265858696+266066689+266290656
2012+266433053+266461433+266414431+266475566+266670959+266934121+267147578
1998+267179386+267127255+267119840+267216825+267499111+267831493+267961597
1985+267839103+267652938+267652938+267870661+268150549+268415942+268630012
1971+268728447+268704946+268677375+268862481+269155360+269305647+269405197
1958+269523286+269698997+270003390+270230897+270165942+269972111+270075285
1944+270418121+270568017+270563111+270494170+270309120+270189108+270155070
1931+270123708+270213919+270355341+270365042+270334712+270443461+270706986
1917+270956210+271090300+271149790+271147365+271256449+271571268+271755147
1904+271559921+271283852+271362689+271705609+271900220+271870308+271826429
1890+271902172+272013793+271930690+271766967+271931945+272390583+272749560
1877+272880500+272883009+272834279+272789480+272675071+272477700+272592582
1863+273055792+273351794+273361607+273261165+273107979+272991897+272825330
1850+272567074+272399336+272452276+272844287+273385637+273765076+273922945
1836+273738648+273335542+273167162+273355864+273565669+273605896+273673610
1823+273829584+273917621+273989293+273999273+273745729+273475151+273516884
1809+273811324+274151651+274211950+273952830+273941233+274310078+274384120
1796+274116442+274117669+274377987+274418159+274331655+274398840+274584670
1782+274778836+274974813+275011667+274706884+274243479+274170970+274585451
1769+274854774+274821014+274738887+274735821+274825001+275029704+275447809
1755+275868980+275947705+275803774+275859669+276272783+276748566+276909334
1742+276742210+276529979+276377992+276424241+276948363+277566459+277832298
1728+277815822+277684855+277658984+277642843+277523361+277587228+277955488
1715+278300498+278495193+278514735+278400522+278451983+278680411+278708511
1701+278651613+278690140+278726882+279102223+279584752+279643043+279412637
1688+279222904+279328085+279595931+279666767+279684943+279712235+279711231
1674+279690407+279586062+279490945+279486763+279217579+278623596+278263839
1661+278277499+278213186+277910494+277481378+277258331+277143922+276825173
1647+276410832+275975499+275635618+275374240+274965029+274498780+274485092
1634+274805347+274966952+275075869+275265240+275603002+276164898+276785531
1620+277287909+277935583+278872736+279586926+280209316+281167990+282078548
1607+282605207+283184917+284105315+285026857+285573002+285807562+286139498
1593+286732310+287365237+288086062+289043119+289866087+290301419+290769731
1580+291414590+291995275+292566008+293087565+293555543+294118135+294542317
1566+294727897+294838876+294784488+294723743+295182548+295697304+295851828
1553+295914273+296093943+296474050+296884656+297019889+296886914+297027026
1539+297467767+297596699+297712446+298115999+298427500+298460981+298489471
1526+298567584+298610487+298670005+298752606+298995557+299408560+299676573
1512+299707517+299581149+299481905+299772108+300143463+300190994+300096461
1499+299998417+299957911+300005999+300068556+300202312+300306963+299931957
1485+299168731+298434191+297710634+296921816+296114767+295138948+293904595
1472+292598067+291529863+290971702+291285964+292528262+293865734+294869207
1458+296051179+297466651+298438567+299243665+300284522+301450102+302410783
1445+303019262+303413643+303693671+303810700+303691887+303425770+303249418
1431+303211393+303102225+302866941+302823563+302914527+302809680+302719525
1418+302793205+302789442+302809987+302924201+303025145+303257391+303797208
1404+304508610+305166265+305824588+306599133+307408942+308032224+308067238
1391+307454354+306385731+304476105+301602452+298736744+296933107+296869546
1377+298659495+301542515+304183198+305720438+306545051+307631431+309581842
1364+312360294+315295835+317621587+319385415+320882512+321956487+322359928
1350+322156340+321654966+321104750+320634933+320555734+321214615+322543166
1337+324039148+325260567+326057859+326550926+326940763+327149592+327024144
1323+326666895+326274438+325917050+325591276+325404079+325500591+325955605
1310+326685016+327474474+328236362+328931010+329615845+330593922+331902067
1296+333217181+334403920+335556983+336788911+338135080+339460955+340641477
1283+341741518+342804844+343796246+344794255+345835669+346791584+347577753
1269+348307080+349190597+350183979+351043661+351733290+352462450+353384745
1256+354281308+354916689+355462778+356132420+356888510+357577025+358139729
1242+358736499+359507336+360267412+360831678+361308492+361804040+362389157
1229+363034156+363560006+364000719+364486259+365024013+365664607+366461815
1215+367227049+367676069+367942298+368407794+369079081+369696174+370181853
1202+370643390+371077162+371339767+371487879+371765203+372315753+373011990
1188+373460899+373712213+374202938+374727199+374851728+374638410+374211022
1175+373309887+371401766+368172453+363906661+359586173+356403388+355011583
1161+355491464+357453835+360174915+363120408+365911015+368179116+369964911
1148+371450245+372453857+372773861+372344857+371084354+369132048+366757929
1134+364170241+362014430+361397393+363011882+366521557+370733518+374506662
1121+377311179+378978886+379761208+380258596+380765350+381308039+382070456
1107+383204674+384709327+386623107+389001602+391698123+394384162+396938926
1094+399480866+402007753+404425472+406658978+408652292+410492142+412190486
1080+413607129+414908583+416356087+417772507+418931787+419938801+421009598
1067+422269849+423539718+424581383+425611256+426809843+427864415+428665973
1053+429722552+431325277+432954151+434062861+434830157+435855124+437293261
1040+438657077+439675910+440606150+441775744+443231973+444731050+446127120
1026+447385336+448515484+449775485+451235394+452615685+453910002+455259266
1013+456532843+457673640+458860992+460143574+461388548+462589198+463858175
999+465182907+466470729+467749129+469045314+470300018+471533814+472694738
986+473798681+475079144+476472008+477725596+478784601+479756462+480768911
972+481685351+482277299+482490226+482154137+480659744+477016229+470274594
959+460524127+449985178+442442068+441249113+447226435+457830590+469335573
945+479528035+487779731+494023700+498527955+501890299+504595684+507000161
932+509321732+511483843+513515377+515386338+516911006+518249788+519757117
918+521555708+523438321+525080576+526419413+527798227+529413107+530975075
905+532294510+533562818+535063456+536720931+538285185+539794298+541245258
891+542636115+544093822+545610350+547125874+548621996+550075465+551491635
878+553035148+554588864+555866260+557214130+558801188+560231519+561566510
864+563114372+564637981+565806544+566948456+568321917+569648712+570911723
851+572230935+573663943+575289861+576914776+578430970+579920847+581393942
837+582752628+583811299+584749539+585933825+587253427+588226346+588277418
824+586867437+583612812+579341388+577236537+580069545+586687907+593862422
810+599503237+603209643+605693236+607685407+609430028+611147997+612883028
797+614328246+615541412+616904336+618586902+620449889+622048878+623241862
783+624290998+625479967+627076336+628921259+630551136+631963626+633498888
770+635038386+636408056+637858013+639488002+641428823+643611118+645424038
756+646820415+648439308+650418991+652299485+653951720+655652685+657544721
743+659566163+661549302+663343321+665001689+666721555+668501747+670210684
729+672061740+674240467+676302164+677992870+679725670+681727208+683835684
716+685901675+687941962+689988383+691984234+693997815+696056725+697984778
702+699773724+701650483+703529751+705296952+707212962+709325397+711576493
689+713891038+716037650+718045990+720115493+722462097+725102974+727624146
675+729826346+731748378+733193986+734886977+738343546+741600457+743942210
662+746076779+748369134+750886291+753337045+755684820+758073073+760490708
648+762837201+765115951+767491994+770106945+772966492+775794594+778470318
635+781106456+783801192+786569246+789261808+791910826+794522041+796931760
621+799037615+801011108+803424730+806304627+809185640+812111424+815122011
608+817908910+820423280+822955324+825549479+827984342+830213583+832459828
594+835022091+837878461+840791031+843512752+846005378+848870612+852116484
581+854959751+857391826+859705535+862055875+864838815+868085188+871299614
567+874544984+878191788+881718273+884668477+887264249+890126640+893567486
554+896861306+899569703+902035176+904761525+907834668+910912997+913912377
540+916655899+919057310+921636913+925062203+928813881+931602787+933705855
527+936196752+939228358+942248256+944919464+947555658+950307041+953213980
513+956580337+960016723+962576087+964365255+966376662+969027017+972034203
500+974377016+975793520+977792549+980710081+983277808+985367049+987750674
486+990563610+993196124+995461103+998065852+1001408792+1005145361+1008661141
473+1011108884+1011709028+1011378737+1012190525+1014677408+1017748377
461+1020475786+1022655795+1024283609+1025621053+1027174379+1029021644
449+1031449427+1034339305+1036277003+1036985311+1038236447+1040544803
438+1042114410+1042902223+1045031050+1047695901+1048667594+1048715320
426+1049389729+1050569499+1051522235+1052490694+1054335841+1056318812
415+1057955882+1060188523+1062870102+1064367450+1063823730+1063287481
403+1065137088+1069041924+1073741823
##END=
