##TITLE=павел 1-многокр
##JCAMP-DX=4.24
##DATA TYPE=INFRARED SPECTRUM
##DATE=2/2/2015
##SAMPLING PROCEDURE=Instrument type and / or accessory
##ORIGIN=Default
##XUNITS=1/CM
##YUNITS=TRANSMITTANCE
##RESOLUTION=4
##FIRSTX=3996.3347
##LASTX=399.24773
##DELTAX=-1.928733
##MAXY=1.1465775
##MINY=0.19475712
##XFACTOR=1
##YFACTOR=1.0678335e-009
##NPOINTS=1866
##FIRSTY=0.3279151
##XYDATA=(X++(Y..Y))
3996+307084490+307036988+307636002+308368562+308658203+308699369+307651520
3983+305531234+304517155+305186612+305748088+305293113+304672107+304802303
3969+305351695+305068249+303981300+303985067+305461070+306448161+306137672
3956+305416304+305068417+305000346+304991527+305742534+307084211+307713813
3942+307017285+305380915+304512773+305481751+306578329+306564514+306916170
3929+307442983+306161478+304028075+303315108+303684849+303924811+304525054
3915+305854366+306381486+305355323+303515384+301922637+301872763+302964151
3902+303207323+303055023+303564421+304311967+305224764+305456214+304393546
3888+303871979+304752792+305991149+305872814+303851941+302368430+302723239
3875+302733510+301606482+301051509+301583234+302524079+303450049+303913285
3861+304269769+304960827+305772732+305350048+302581433+301664366+303532772
3848+304770375+304755834+304198851+303356525+302837080+302767112+302740738
3834+302686483+302153418+301640615+302035362+302374263+301601431+299940948
3821+299273975+301349634+303895005+304142391+303038082+302560166+303199760
3807+304204266+304268652+303673685+302894852+302043065+301908766+302332957
3794+302058387+301040485+300768119+301498725+301757750+301625628+302445878
3780+303528864+303156724+302025203+302034804+303281896+304003739+303115139
3767+301965673+301629340+301836817+302038404+302110019+302544285+302947712
3753+302780174+302347582+301885769+301693475+301407630+300409850+299730653
3740+299586781+299410730+299742737+300573453+300885422+300574821+299811645
3726+299046739+298597765+298042205+297458820+297717622+299077634+300040640
3713+299182238+297715947+297266331+297357063+297502163+297250562+296442118
3699+296294646+296998654+296778228+295339790+294608710+294491213+293456007
3686+292931370+293410794+293571467+293363571+292964917+291759158+290890737
3672+291729547+293221542+294356774+294751410+293917456+292497718+291392181
3659+290092173+288523065+287966445+288396190+288350279+287483951+286733391
3645+286208392+285699161+284861496+283403885+282461421+282761333+283018906
3632+282445597+281106181+279244473+277791970+276524448+274811747+273087297
3618+272334196+272263893+271517770+269618385+267620760+266580028+266019221
3605+265136483+264150620+263555597+262959709+261773961+260619527+259823139
3591+258665412+256776716+254537649+252677030+251175406+249745676+248578153
3578+248254016+248851439+249177083+248472629+247049597+245331733+243848083
3564+242468338+240841961+239727214+240055620+240795631+240118221+238601805
3551+237813874+237609830+236758936+234561649+232409672+231716967+231677322
3537+231265537+230447282+229218010+227681039+226242881+224997003+224024439
3524+223370318+222372315+220711427+219388339+218967887+218391535+217290157
3510+216598680+216510389+216517366+216239642+215363170+214110509+213337286
3497+212765582+211275331+209257932+207625400+206482172+205465456+204077171
3483+202485917+201615179+202169469+203434381+203901678+202964489+201412796
3470+200143083+198828925+197350034+196305380+195755696+195448904+195129484
3456+194626171+193929586+193220289+192547455+191840154+191244112+190247030
3443+188726358+187972462+188115664+187852341+187280832+187322207+187529935
3429+187324398+186795980+185752150+184386290+183739342+184257601+184593279
3416+184122437+184389584+185108188+184578264+183747185+183847602+184156235
3402+183940498+183289056+182766988+182619614+182710723+183082919+183414131
3389+183534168+183958080+184313182+183632897+182540240+182385288+183387185
3375+184845689+185648244+185541241+185666985+186682725+187882107+188386885
3362+188400561+188936458+190016263+190285335+189767342+189984168+190812832
3348+191589432+192207913+192389099+193014013+194687152+196262191+196966995
3335+197017817+196806475+196803963+197169503+197718086+198515687+199497377
3321+200764802+202542921+203729423+203582063+203334885+203757862+204253138
3308+204751888+205563486+206421414+207140270+207598273+207887160+208413890
3294+209136681+209750026+210220058+211198776+212867352+214215350+214791995
3281+215002765+215350750+215675696+215627790+216077644+217090788+217432982
3267+217480734+218296644+219623054+220633282+220763283+220905424+222235658
3254+223489057+223717773+224214179+225340606+226201771+226647033+227216310
3240+227957158+228652515+229467839+230268538+231014871+232240417+233843547
3227+235046989+235655213+236274964+237266297+237779099+237480220+237810357
3213+238947878+239803266+240484500+241197328+242123912+243466956+244536797
3200+244961686+245283283+246087680+247351658+248651526+249807774+250777813
3186+251331195+251378334+251344647+251791250+252780768+253995458+255096725
3173+255472913+255233480+255590494+256584757+257148857+257026754+257110035
3159+258267818+259765005+260438062+260517826+260767501+261433246+262348861
3146+262873972+262760689+263196965+264570039+265436339+265179770+264712850
3132+264676735+264633727+264543358+264962609+265553139+266065271+266766824
3119+267312810+267590116+267923769+268154215+268224044+268398337+268784962
3105+269446772+270189964+270619905+270468163+269786845+269442055+270139309
3092+271219086+271814026+272087396+272516136+272506340+271400831+270247792
3078+270217427+271103514+271938361+271877184+271537139+271918796+272460318
3065+272617083+272956431+273772382+274314713+273879833+273272669+273422095
3051+273730630+273623236+273442608+273354806+273175629+273149032+273594601
3038+273942963+273714945+273456842+273563287+273601020+273111773+272410137
3024+272222588+272524481+272430985+271724605+271350873+271728958+272162750
3011+271864290+270759757+269612105+268887612+268160160+267128331+265908478
2997+264412910+262423574+259914263+256900186+253029411+247623632+240367812
2984+231508570+221704895+211555483+201506976+192844911+186913994+184187410
2970+185367785+191056758+200266568+210651380+220406967+229032707+236123249
2957+241434528+245585958+248833075+250676419+251212023+251117746+250702681
2943+249674536+247896109+246203810+245186940+244372579+243771891+243948416
2930+244355499+244325915+244635819+245429471+245808673+246066776+246737377
2916+247468095+248191249+249030253+249505044+249396728+249171502+248957522
2903+248671174+248423341+248066578+247469267+246828919+246363506+246187372
2889+246054664+245531842+244943238+245087807+246087820+247287969+248222674
2876+249122968+250210196+251373812+252413596+253281291+254066599+254795502
2862+255620496+256459557+257138224+257997797+259229540+260410069+261132916
2849+261692187+262573363+263659001+264406519+264502973+264364572+264454188
2835+264755830+265184403+265602091+265998680+266648238+267433434+267684783
2822+267174744+266550611+266664118+267521738+268166579+268131218+267709985
2808+267193331+266991576+267198857+267505132+268080982+268853312+268939495
2795+268413435+268422366+269145771+269779421+269904314+269912910+270248239
2781+270560542+270312374+269659411+269168769+269046750+268973460+268836678
2768+268786497+268704249+268639667+268891854+269243091+269251547+269325618
2754+270032194+270794086+271004549+270914681+270725401+270411535+270098199
2741+269892788+269675515+269491761+269546686+269652406+269426677+268951496
2727+268860400+269091237+268875388+268476064+268640839+269236197+269598207
2714+269461536+269197375+268994895+268937206+269281494+269715816+269891141
2700+269963342+269894686+269920027+270430904+270816413+270660094+270349716
2687+269923823+269654053+269843668+270001047+270058568+270411758+270843708
2673+270830200+270305062+269799460+269509986+268964697+268171575+267894325
2660+268388652+268754904+268426218+268197698+268585970+268897380+268786106
2646+269038517+269936270+270527330+270453203+270387422+270446421+270282037
2633+270110954+270200654+270417675+270617449+270519236+270072411+269780844
2619+269922595+270353400+270736370+270852304+270786969+270582367+270391552
2606+270236126+269799460+269217721+268971423+269257352+269823796+270138807
2592+270088319+269968868+269745623+269349090+269169159+269303486+269345936
2579+269316352+269494636+269543840+269068798+268593449+268793502+269334186
2565+269569265+269623185+269836802+269996442+269853017+269625809+269510209
2552+269415430+269410490+269675320+270064206+270275617+270251727+270118880
2538+269872805+269415430+268897743+268622838+268532217+268423622+268532273
2525+268917168+269057076+268687587+268042579+267550596+267634296+268112072
2511+268266605+268062980+268158206+268630652+269030814+269186714+269266199
2498+269309040+269203292+269147027+269130059+268856298+268455104+268052096
2484+267761031+267926951+268416031+268606790+268237273+267838535+267933984
2471+268237831+268446424+268696685+268938658+269042480+269010384+268778934
2457+268491246+268437772+268629564+268738186+268328703+267628044+267448923
2444+267902531+268308916+268145145+267540688+267153561+267372815+267803788
2430+267812691+267415516+267266900+267520650+267625867+267441192+267312113
2417+267313815+267253559+267135838+267212282+267389393+267233772+266875195
2403+266899085+267349232+267611187+267327463+266987055+267030649+267178902
2390+267198132+267125652+266967993+266707935+266098874+265202823+264757449
2376+264582012+263639408+262663677+263194090+264268397+264264657+264087992
2363+263083207+259255244+256001010+256754501+260340268+263659810+264335295
2349+263679514+263353647+263263193+263338631+263875045+263727964+262897276
2336+262767499+263291911+263683840+264014731+264571602+265168048+265400810
2322+265048597+264493400+264059274+263803821+264156202+265000705+265385963
2309+265498102+266268645+267086690+267135336+267106590+267442895+267687546
2295+267827790+267986565+267928765+267751793+267807891+267953493+267827957
2282+267613057+267659777+267721484+267584366+267526315+267566114+267676383
2268+267934180+268193065+268404505+268343607+267852489+267348981+267208151
2255+267457017+267733987+267695808+267584590+267736527+268131079+268387424
2241+268146150+267712134+267612862+267693603+267511691+267262965+267351632
2228+267494443+267366591+267301591+267425005+267338375+267113790+267191294
2214+267401785+267293832+266860543+266445701+266411401+266746255+267066121
2201+267213147+267340189+267348367+266985771+266386757+265938396+265784366
2187+265736195+265786766+265996475+266084082+266041325+266042218+266043000
2174+266164684+266370709+266445394+266421364+266236494+265967952+266070435
2160+266457367+266453906+265989052+265682553+265763769+265948388+266062425
2147+265968734+265624614+265374520+265396289+265324563+265021888+264930653
2133+265143432+265204358+265055211+265027219+265098080+265174607+265457187
2120+265755396+265620874+265182226+264828980+264662865+264555861+264407133
2106+264296138+264326504+264513327+264777460+264916559+264912986+264954348
2093+264944021+264773050+264687592+264814718+264936877+264852758+264631830
2079+264477576+264578635+264910810+265101876+264980415+264842655+264866071
2066+264944300+265050802+265180747+265182617+265038829+265007068+265150856
2052+265237737+265313343+265450935+265488696+265632121+265993796+266200659
2039+266243415+266271743+266158488+266084473+266239006+266325496+266224354
2025+266196137+266367109+266650945+266882088+266915635+266805589+266812064
2012+267101538+267427852+267426177+267186828+266982896+266889875+266987306
1998+267303182+267661200+267875403+267942301+268060580+268307520+268520551
1985+268699588+268806396+268720715+268644774+268551335+268297864+268123041
1971+268123515+268378019+268929085+269361621+269552491+269823489+270014025
1958+269845342+269685674+269869400+270155273+270194960+270131523+270288567
1944+270439193+270336962+270208161+270226749+270438970+270788504+270908625
1931+270678067+270527832+270661908+270850295+270857467+270775749+270876167
1917+271087578+271342780+271638672+271725219+271729628+271992644+272168416
1904+271831748+271469850+271587013+271747406+271727535+271925243+272191776
1890+272155019+272040090+272214159+272636229+272828746+272621326+272464420
1877+272485743+272449070+272287281+272211424+272564809+273031730+273138119
1863+273175545+273327985+273405266+273352294+273320673+273520837+273800152
1850+273843355+273736575+273720527+273847960+273914273+273845142+273898504
1836+274153621+274302963+274275501+274409353+274580408+274330928+273891108
1823+273700293+273768726+274006122+274260681+274355125+274397129+274505584
1809+274576975+274547364+274496709+274557132+274694305+274786964+274858216
1796+274864551+274824111+274950511+275135521+275087824+274853276+274618448
1782+274594586+274903177+275217407+275168454+274947693+274991789+275222263
1769+275189721+274999157+275029410+275207917+275131084+274996645+275288854
1755+275629597+275678661+275815248+276166932+276514289+276628074+276390623
1742+276266428+276570247+276695335+276480993+276682274+277355554+277820186
1728+278052781+278299637+278575575+278553778+278285068+278159310+278044129
1715+277946670+278221380+278574403+278715539+278896921+279128427+279174365
1701+279330629+279569894+279440479+279389657+279549548+279573327+279513210
1688+279469309+279724343+280343089+280476383+280059197+279598277+279480836
1674+279801931+280046777+279878653+279573634+279392085+279097476+278605437
1661+278278705+278155514+277809162+277200519+277169735+277535177+277386198
1647+277069569+276695084+276059174+275382461+274828213+274483452+274525678
1634+274656963+274572956+274666871+275247772+276050439+276800776+277388878
1620+277774833+278279961+279175873+280038461+280686399+281341929+282024615
1607+282830938+283859251+284861775+285522971+285796285+286002729+286580086
1593+287410411+288074760+288691245+289453165+290160327+290764895+291340884
1580+291725779+292051786+292722526+293404961+293881342+294496683+294941415
1566+294811275+294561962+294676390+295484639+296820566+297391950+297357147
1553+297237166+297127818+297150731+297241324+297336606+297506573+297847623
1539+298228945+298212702+298171927+298530448+298803260+298708620+298665137
1526+298857320+299257007+299926519+300485623+300659162+300721986+300603093
1512+300221603+299834586+299713405+300109910+300490312+300384843+300126376
1499+300067349+300225482+300233715+300035114+299981947+300091769+299881613
1485+299307941+298733487+298219400+297642100+296809486+295512520+294036656
1472+292861151+292015476+291589833+291898230+292900447+294034563+295062848
1458+296418172+298049015+299026086+299581422+300263355+301233281+302343061
1445+303175814+303594786+303696347+303604414+303563332+303696794+303851215
1431+303886660+303696375+303369671+303163589+303072354+302972858+303031802
1418+303310140+303515161+303554932+303497271+303420633+303471288+303840917
1404+304564796+305322753+305972087+306779694+307744318+308424603+308462616
1391+307874347+306617960+304441466+301536291+298634716+296719060+296681355
1377+298681715+301908069+304680703+305880266+306291507+307343961+309504157
1364+312372324+315416403+318072712+319983540+321200155+322011865+322563126
1350+322812718+322782660+322437423+321787978+321309224+321598921+322689052
1337+324110828+325520100+326641490+327133947+327048377+326838222+326845813
1323+326958063+326795995+326341578+326000333+326048532+326444340+326979219
1310+327478150+327995363+328663536+329378289+330050760+330950160+332202248
1296+333486599+334626967+335835600+337194525+338477787+339644194+340879844
1283+342215101+343531827+344629215+345414997+346145379+347057757+348026456
1269+348870624+349632571+350466162+351413231+352335544+353140332+353862119
1256+354571374+355353221+356165154+356879656+357459552+357997752+358643654
1242+359373227+360039976+360599610+361103063+361632835+362177259+362632345
1229+363062509+363613435+364224730+364811017+365404058+366040108+366709955
1215+367386808+368125898+368884859+369480636+369860591+370079845+370316459
1202+370804813+371452027+371953721+372327955+372797973+373323754+373745293
1188+374044117+374257845+374410033+374582819+374798864+374812093+374312072
1175+373115886+371070481+368018392+364104804+360063671+356820265+355089982
1161+355205414+357003405+359995433+363335851+366259167+368699403+370681427
1148+372022183+372781116+373129813+373021525+372050761+369996955+367323733
1134+364637924+362561903+361971596+363446567+366592374+370380455+374030692
1121+377049122+379035556+379996887+380484962+381046354+381747432+382548452
1107+383584524+385045233+386980872+389285358+391901812+394681787+397379708
1094+399839314+402129734+404517138+406888522+408907721+410646601+412193354
1080+413533216+414869115+416277969+417709206+419203713+420538272+421465665
1067+422365735+423635769+425079593+426510690+427748824+428685957+429743658
1053+431096331+432407000+433525041+434655696+435889532+437013377+438088354
1040+439303490+440520106+441640909+442747004+443763093+444696124+445934452
1026+447496723+448969544+450234722+451430378+452746964+454103348+455275672
1013+456386316+457575749+458863086+460306966+461780038+463162239+464566488
999+465926445+467164941+468450576+469626723+470587244+471741008+473121395
986+474327126+475320468+476478084+477935555+479199114+480089025+481050998
972+482074873+482756972+482929953+482477434+480998808+477556772+470968707
959+461241978+450622324+442877201+441509317+447384109+458028742+469835763
945+480211770+488249939+494235391+498688518+502093155+504947982+507592262
932+509974364+512036012+514002156+515852198+517388652+518756982+520266197
918+522024752+523980960+525850594+527253029+528430739+529873865+531520337
905+533095864+534498187+535907376+537477266+538974982+540247360+541458450
891+542810704+544369820+546010487+547584787+549119176+550672208+552186782
878+553763035+555359605+556547809+557448549+558572841+559972987+561548570
864+563176065+564688796+566113893+567569634+569021747+570392421+571780790
851+573355982+575156010+576846635+578197772+579381064+580402149+581442211
837+582702030+583960509+585211732+586567391+587917859+588860686+588779861
824+587119992+583603439+579503921+577970648+581088211+587548286+594481923
810+600057947+603767352+606120540+608054867+609853053+611453029+613064670
797+614583598+615847826+617272644+619081492+620847080+622297742+623696995
783+625118241+626378394+627573911+628920694+630498622+632188465+633849115
770+635449705+637050573+638753757+640439135+642004280+643637969+645441849
756+647296970+649169227+651061803+652863673+654580420+656296554+658031331
743+659843193+661733926+663548802+665305124+667227227+669232053+671053627
729+672758206+674664234+676766239+678630068+680232667+682146006+684485351
716+686735331+688709847+690640211+692660834+694713496+696686728+698447070
702+700083941+702044001+704327694+706474299+708424422+710351270+712317693
689+714228018+716158326+718458208+721048623+723556371+725893149+728087868
675+730287667+732370024+733713124+735003420+738428040+742087990+744873490
662+747270328+749275600+751243362+753471908+755878681+758297567+760553407
648+762617233+764855491+767443004+770156666+773008478+775990180+778874311
635+781465899+783999436+786857332+789764628+792273102+794424172+796661090
621+799084944+801465873+804149896+807339911+810503469+813319670+815984658
608+818632511+821087511+823378015+825543709+827668711+830313661+833382551
594+836237601+838923633+841638300+844304963+846982511+850051680+853381855
581+856269559+858646414+860858046+863331578+866498094+870160165+873507309
567+876185527+878839910+882015469+885552060+888784274+891554145+894292591
554+896895286+899200247+901469986+904200059+907292393+910407444+913765920
540+916942818+919492430+921825858+924538906+927746672+930897280+933903486
527+937107233+940371487+943212303+945532446+947839305+950562568+953526631
513+956416567+959399832+962382873+965156261+967926188+970690645+973422169
500+975353705+975988359+977047344+979785678+982903241+985030588+986939574
486+989643189+992523971+995267440+998306858+1001271033+1003726814+1005930856
473+1008348904+1010780907+1012265897+1013068229+1014928765+1018140661
461+1021308573+1023966417+1026167890+1027766080+1029360250+1031293907
449+1033560465+1035965117+1037272828+1037543659+1039011457+1041435422
438+1042555025+1043249963+1045599913+1048300402+1048992438+1048375534
426+1048870865+1050548652+1051829012+1053056009+1055561916+1058069050
415+1059775416+1062620809+1066335070+1068395658+1069025065+1069353277
403+1069082670+1069727260+1073741823
##END=
