##TITLE=павел 1-многокр
##JCAMP-DX=4.24
##DATA TYPE=INFRARED SPECTRUM
##DATE=2/2/2015
##SAMPLING PROCEDURE=Instrument type and / or accessory
##ORIGIN=Default
##XUNITS=1/CM
##YUNITS=TRANSMITTANCE
##RESOLUTION=4
##FIRSTX=3996.3347
##LASTX=399.24773
##DELTAX=-1.928733
##MAXY=1.1551703
##MINY=0.19439976
##XFACTOR=1
##YFACTOR=1.0758362e-009
##NPOINTS=1866
##FIRSTY=0.32724088
##XYDATA=(X++(Y..Y))
3996+304173521+304419538+305295322+305947389+306274018+306263907+306078694
3983+305709017+304440148+302765396+302071749+302591652+303428959+304123547
3969+304730183+304545636+303362475+302420844+302665726+303415440+303757721
3956+304089363+304598019+304129171+302152721+300940169+302203082+303587467
3942+303128286+302220645+302193110+302736863+303217651+303182830+303192858
3929+304337708+305770875+305912153+304767331+303014876+301533397+301346578
3915+301994102+302412894+302863626+303542978+303710240+303163633+302494336
3902+302029366+301042166+299055439+297800365+298700555+300681021+302375607
3888+303287459+303210698+303032688+302719744+301465861+300696811+301197073
3875+301339459+300403064+299883300+300631186+301509353+301391759+300487969
3861+300129151+300595146+301069729+300658777+299828284+300593373+301517718
3848+301313974+300875237+300247603+299200540+299444563+301281674+301935541
3834+300792243+299480381+298794657+298771914+299822550+301559215+301511652
3821+299316083+298326279+298655983+298592574+298595704+299084775+299734182
3807+299860501+299128987+298827815+299126466+298424841+297113007+297128520
3794+298843024+300643319+301572401+301407937+300025076+298692272+299021145
3780+300549494+301291785+300993384+300781217+300289293+299089069+298376086
3767+298772579+299011394+298842165+299018402+298685208+297838981+298136579
3753+299529939+300668167+301149759+301531514+301558855+300898921+300283864
3740+300016184+299439299+298398331+297777622+296920869+295605073+295121820
3726+295464876+296249716+296859372+296435455+295711309+295201573+294599535
3713+294161324+294084009+294167086+294601336+295278555+295132153+294176893
3699+293883256+293938438+293220026+292071548+291114210+289941327+288660546
3686+288389874+288957950+289383362+289564946+290144074+290402447+289328956
3672+288430235+288454308+288678607+288870607+289034683+289064130+289082911
3659+288498270+286392011+284118767+283604100+284752551+285927318+285174113
3645+283629198+282712111+281839567+280634495+280015310+280195259+280018219
3632+279356152+279242603+279062931+277463056+275534752+274639161+274182030
3618+273122224+271823659+270263896+268431439+267141960+266015144+264548458
3605+263643892+263292387+262775809+262160142+261412616+260016237+258006490
3591+255982477+254364069+253585933+253432688+252923395+251656604+249683035
3578+247475970+246007622+245517997+245023663+244091783+243175499+242547672
3564+242746956+243131371+241608451+238641145+236807607+236289505+235541120
3551+234261254+233272032+232786562+232140036+231122835+230114167+229294339
3537+228845394+228695197+227908584+226019325+224358686+223693254+222950769
3524+221878913+220915038+219838986+218786382+218086129+217471099+216707645
3510+215876765+214911560+213687872+212232488+210929574+210232077+209783243
3497+209083502+208389356+208194157+208474386+208327000+206984888+205202322
3483+204021363+203591228+203600314+203083998+201625346+200230532+199292807
3470+198213222+196831940+195381903+194216194+193800464+193850105+193798691
3456+193641595+192683759+190731340+189042862+187894758+187091344+186723467
3443+186504320+186708910+187360797+187664669+187576786+187616427+187441394
3429+186055043+183742352+182315085+182396694+183048165+183504784+183220469
3416+182713711+183161035+184096447+184326120+183628000+182592710+181755099
3402+181409633+181849519+182574150+183074038+183292382+182662075+181349160
3389+180696429+181269588+182230637+182917151+183209513+183002541+183091601
3375+183866386+184314791+184400887+184933643+185777030+186331089+186448169
3362+186613395+187266404+188012863+188268133+188155859+188382970+189602461
3348+191324223+192117997+191918185+191935582+192368848+192911770+193554820
3335+194009666+194760336+196424007+197830553+197820788+197211728+197745094
3321+199538201+200709796+200519293+200042605+200253386+201313773+202732812
3308+204119385+204839473+204477788+204235067+205168567+206796656+208218729
3294+208852401+208833745+208924550+209443400+210201065+211336939+212855274
3281+214093977+214684587+215296971+216371667+217124996+217146631+217067294
3267+217017016+216718061+216824130+217802327+218815774+219588204+220746170
3254+222252829+223603265+224378825+224654650+225121296+225841148+226321299
3240+226669355+227343417+228592493+229785141+230447485+231436694+232583122
3227+232890249+232900332+233490320+234639961+235626220+235948582+236085954
3213+236640567+237824115+239329860+240525542+241267251+241855105+242782608
3200+244337524+245557112+245088845+243805848+243955963+245690107+247505140
3186+248854676+249914786+250326320+249788135+249439760+250491311+252022458
3173+252779901+252922370+253010295+253673331+255107246+256404510+256933110
3159+257046188+257047435+257397527+258620522+259813489+259928450+259858005
3146+260465168+261200865+261713122+262032743+262295049+262765809+263266403
3132+263785142+264417153+264679348+264379174+263919800+263672536+263897805
3119+264715305+265599870+265867827+265759847+265913646+266487677+267154398
3105+267455763+267260246+266813281+266495600+266689954+267539145+268618591
3092+269360715+269415481+268912892+268652525+268632885+268487922+268959458
3078+269925577+270286390+270100595+269840783+269488862+269310824+269850257
3065+270792746+271192036+270995743+270829063+270819783+270762524+270712689
3051+270876072+271149210+270998624+270436477+270241652+270427474+270561798
3038+270787954+271048127+271180762+271072781+270501852+269833719+269464069
3024+269403708+269743218+270237247+270482904+270319050+269771030+269243288
3011+268718898+267855081+267252101+267292047+267073842+265943591+264415075
2997+262914344+260909362+258142394+254879401+250789712+245524230+239156698
2984+231342896+221597687+210623167+200365258+192137415+186266877+183711091
2970+185282364+190417634+198232406+207839467+218281439+228364219+236045981
2957+240471330+243229130+245771411+247896479+248865064+248781571+248114490
2943+246893351+245608083+244886153+244447222+243835295+243057380+242404344
2930+242224422+242593684+243299547+244019870+244583596+245197186+245551544
2916+245161201+245155107+246433755+247820328+248267015+247966537+247444224
2903+246915817+246515253+246650519+246937452+246444364+245397717+244480187
2889+243837345+243635206+243860420+244105329+244090343+244072503+244850252
2876+246326522+247320537+247983157+249283440+250927388+252391941+253376925
2862+253549976+253675741+254518616+255494514+256205225+256980812+257890309
2849+258740414+259487691+260253417+261047898+261670656+262139588+262638631
2835+262958501+263074127+263528792+264182715+264342941+264141523+263922404
2822+263760848+264077671+264905088+265549260+265594164+265288117+265081547
2808+265266205+265936971+266566737+266480613+266030629+265947220+266213210
2795+266414988+266620007+266915832+266861953+266749651+267252517+267735327
2781+267596792+267430278+267586043+267891591+268153897+268118744+267941316
2768+267895941+267718207+267228527+266780566+266567762+266419781+266464629
2754+266913367+267405318+267457120+267260855+267257669+267296396+267154730
2741+267026694+267052761+267145395+267129688+266998909+266887687+266832783
2727+267063232+267712556+268173427+267863447+267084756+266518426+266373408
2714+266464629+266686214+266793225+266738847+266925805+267350774+267693692
2700+267767322+267654826+267714163+267762807+267438976+267167972+267278085
2687+267586985+268149770+268762556+268870425+268534323+268083979+267708346
2673+267491581+267234178+266857604+266315484+265614635+265238393+265192381
2660+264908911+264773201+265476349+266464629+267065753+267349029+267326175
2646+267124730+267120491+267425624+267835163+268061956+268165975+268369581
2633+268442076+268099464+267726213+267811174+268102982+268206641+268090433
2619+267859319+267938047+268376036+268430802+268041124+267846327+267833861
2606+267671447+267494019+267673940+268113093+268122179+267509587+267030849
2592+267143705+267466151+267746546+268082704+268213372+267840676+267300662
2579+266979269+266895084+266930126+266957274+267165894+267597318+267922562
2565+268172817+268315785+268125088+267825939+267663691+267624105+267720645
2552+267732862+267293266+266748321+266760260+267124619+267213818+266940348
2538+266727573+266868629+267104120+267140880+267011818+266666214+266067694
2525+265568041+265503635+265576546+265401777+265307564+265575299+265924505
2511+266133014+266177143+266119164+266017804+265980130+266107751+266075063
2498+265647877+265301082+265363188+265536129+265665191+265811039+266043760
2484+266496791+266855609+266751008+266375763+266008828+265823089+265799820
2471+265669401+265398397+265344351+265491585+265285929+264904035+265105703
2457+265694277+265869351+265520007+265191162+265110412+265010188+264978913
2444+265243823+265496405+265431528+265201079+265043125+264979688+265101880
2430+265419173+265611090+265734860+266008856+266116144+265790900+265277092
2417+264906141+264697687+264673365+264995478+265395876+265348839+264884811
2403+264489260+264577240+265222215+265756994+265476654+264832815+264653530
2390+264845059+264672617+263806556+262713176+262129200+262372059+263166318
2376+263791154+263290171+261748996+260859721+261345745+262308678+263206845
2363+263236403+262327820+262019529+262229202+262001191+261579684+261308154
2349+261230284+261234107+261170782+261066347+260736975+260491013+261172582
2336+261513145+260356439+259353339+259470683+259981111+260779359+261779634
2322+262385605+262395661+262217013+262330479+262918915+263494442+263449261
2309+263253716+263530316+263847443+263775391+263518266+263366295+263692453
2295+264431752+264791041+264564193+264364714+264538043+264927443+265280056
2282+265448121+265390835+265203157+265018526+264838272+264575080+264340004
2268+264452057+264972430+265408120+265214514+264690512+264539483+264853508
2255+265291774+265508234+265391610+265138751+265029468+265172546+265406154
2241+265445351+265107919+264641646+264402277+264282773+264149972+264265543
2228+264823923+265360751+265362551+265101437+264840322+264445049+264210139
2214+264427541+264683697+264689875+264597490+264443442+264257592+264006118
2201+263684697+263773258+264331278+264551284+264119805+263529983+263280143
2187+263466879+263733091+263744310+263502725+263259921+263260143+263490315
2174+263748493+263777663+263637770+263565635+263547269+263538820+263489899
2160+263367375+263194795+263051024+263065789+262967060+262595389+262390342
2147+262462228+262666582+263058836+263360893+263319369+263059584+262694311
2133+262543559+262799521+263112217+263208923+262990053+262612065+262521481
2120+262581898+262422337+262238731+262192414+262290866+262545111+262663396
2106+262503974+262336989+262315880+262396215+262576053+262709658+262611068
2093+262471618+262474472+262524611+262549377+262448460+262281974+262352502
2079+262557244+262534002+262398320+262427185+262485885+262335659+262117122
2066+262106955+262324385+262602813+262724118+262630348+262515221+262560596
2052+262682566+262781709+263009998+263221028+263143879+263018530+263126233
2039+263469677+263860214+264107948+264216982+264209114+264071881+263860130
2025+263667799+263545025+263645804+264015259+264274823+264210666+264090524
2012+264165955+264244849+264192937+264415823+264929161+265292217+265341360
1998+265089525+264874284+265028138+265424797+265869905+266217920+266433881
1985+266447094+266182766+265994590+266079246+266318061+266635022+266698763
1971+266452801+266348283+266514354+266576959+266392744+266505212+267180243
1958+267791616+267822254+267539339+267490528+267719509+267965859+268199577
1944+268287252+268040072+267668151+267458035+267483548+267778347+268273319
1931+268709479+268880121+268803997+268627344+268453933+268366811+268512549
1917+268848236+269121263+269249022+269226446+269153646+269332404+269711417
1904+269897709+269797319+269646346+269684601+269880673+269969900+269968875
1890+270004831+269880562+269738038+269923112+270131400+270096496+270062783
1877+270199185+270431019+270534734+270484456+270447197+270430964+270510994
1863+270699752+270820337+270918761+271080621+271200679+271254836+271207328
1850+270960424+270656482+270641496+271002198+271225140+271096604+271111702
1836+271400989+271479938+271362512+271587891+272063499+272224888+272060812
1823+271829560+271692298+271757951+271896016+271868425+271679639+271529081
1809+271639001+271946294+272166770+272270845+272339268+272308602+272213254
1796+272178350+272232479+272295887+272351623+272479604+272640799+272733267
1782+272824239+272987512+272880390+272311594+271898204+272185137+272663570
1769+272813989+272777922+272699139+272821773+273306938+273905458+274401842
1755+274543868+274353752+274250730+274272282+274229621+274207709+274223111
1742+274273777+274476968+274698636+274723041+274684785+274770466+275031858
1728+275431674+275650461+275574891+275440927+275497576+275876977+276241667
1715+276246349+276202691+276362197+276621871+276743121+276584834+276292140
1701+276396436+276964567+277319285+277620844+277843094+277747108+277583669
1688+277400977+277269838+277527628+277925146+278019635+277762593+277382555
1674+277125457+276947669+276841655+276879883+276949719+276846946+276522589
1661+276175599+275878611+275511649+275222943+275385551+275400732+274945845
1647+274547773+274302061+273971831+273594923+273184581+272689776+272225221
1634+271987791+272034717+272435448+272962774+273352646+273866648+274496027
1620+274964377+275561317+276571648+277520592+278232106+279055978+280037859
1607+280966498+281746989+282446951+283171901+283835851+284280683+284657479
1593+285209571+285837316+286448522+287178984+287919585+288454530+288823791
1580+289078202+289422061+290138617+290792346+291135402+291569430+292148697
1566+292571561+292700705+292452638+292156176+292592586+293351276+293840125
1553+294252989+294628372+294871204+294948796+295022842+295246505+295672914
1539+296159963+296334123+296351907+296426230+296454098+296458032+296578423
1526+296722941+296824468+297037271+297251681+297408001+297692689+297878345
1512+297862832+297897598+298053613+298256637+298327138+298316556+298344202
1499+298337110+298256416+298137576+298021562+297937155+297862915+297647591
1485+297126359+296475040+295893197+295318861+294683526+293916969+292908522
1472+291643420+290401754+289612288+289722568+290839217+292132879+293031739
1458+294025005+295486539+296795713+297801584+298581826+299209931+299918591
1445+300678472+301266299+301488992+301399211+301298433+301270898+301216741
1431+301328461+301590573+301678526+301674952+301594950+301290483+301076738
1418+301095048+300982054+300732989+300642710+300866095+301356994+302093190
1404+302979086+303758829+304359841+304798745+305115955+305507627+305843203
1391+305622256+304526632+302450042+299663322+296884525+295151405+295332740
1377+297252456+299940171+302276796+303557577+304207261+305179004+306988413
1364+309656958+312705485+315362395+317344690+318743756+319579290+319894174
1350+319922540+319773838+319393690+318996090+318927473+319383302+320438288
1337+321784333+322953421+323840563+324524625+324977933+325057354+324763856
1323+324367474+324104781+323990623+323871478+323705020+323730228+324123174
1310+324741888+325368968+326042587+326908232+327908812+328944157+330026844
1296+331117592+332177924+333362941+334696161+335937024+337059075+338182095
1283+339322679+340481129+341603624+342708666+343831825+344850438+345709989
1269+346462280+347167146+347897913+348633860+349327451+350087914+350991095
1256+351887101+352699892+353500134+354256220+354931778+355554702+356155632
1242+356774706+357353917+357827863+358314081+358923653+359524250+359962378
1229+360401697+360976060+361496295+361934451+362378783+362823282+363450113
1215+364270993+364997521+365543352+366019154+366525954+367030343+367471213
1202+367981919+368580134+369021613+369317383+369766757+370369820+370842380
1188+371116570+371371286+371704064+372069780+372263608+372002105+371369402
1175+370481291+368806289+365820312+361855003+357727417+354315418+352612854
1161+353081148+355195358+358103216+361070744+363707045+366043503+368005687
1148+369377412+370227655+370659024+370477689+369422981+367432487+364710450
1134+361801649+359670958+359311669+360999994+364195367+368077628+371845924
1121+374852954+376810733+377715826+377886218+377962840+378440027+379417060
1107+380666732+382170954+384275412+386800020+389273269+391789345+394481547
1094+397118900+399511067+401595054+403437567+405293819+407238717+409028929
1080+410598222+412097706+413459652+414633339+415813342+417025478+418103428
1067+419091127+420246198+421614377+423043278+424445170+425595089+426387159
1053+427248455+428507297+429881986+431089745+432183513+433246975+434338305
1040+435468473+436723242+438120009+439296687+440204273+441296406+442710099
1026+444160995+445424047+446619008+448016136+449618088+451144139+452360624
1013+453281063+454116846+455112828+456319175+457669625+459249388+461022924
999+462589613+463764601+464876763+466122003+467375497+468588936+469755725
986+470848384+471890129+472967275+474156115+475300133+476304923+477339077
972+478334394+479023719+479319461+479092862+477793494+474354125+467701544
959+458033540+447618065+440135712+438945404+444786828+455181417+466599411
945+476621275+484515162+490494485+494898199+498298397+501221575+503801475
932+506115163+508268182+510286184+512066396+513569149+515006860+516538533
918+518096911+519706759+521415279+522969336+524377959+525954731+527576712
905+529026943+530348694+531725682+533347109+535030421+536535113+537902462
891+539248646+540756164+542341301+543578397+544531773+545723438+547286913
878+549097098+550944736+552439234+553602311+554750706+555948909+557277142
864+558847099+560490466+561904906+563202280+564675947+566120970+567407596
851+568878160+570666073+572402849+573794907+575048347+576346496+577589520
837+578696307+579773787+581032157+582426375+583713445+584607540+584594077
824+583088941+579893734+575946597+574082892+576960529+583555158+590481375
810+595760956+599309579+601749420+603752131+605611071+607252166+608667991
797+610043262+611592000+613197969+614544098+615649611+616813408+618392064
783+620236710+621859244+623241441+624590672+626099076+627735407+629277662
770+630740636+632263279+633915842+635692508+637548401+639338142+641077799
756+642924218+644682047+646195216+647748774+649615082+651598291+653410194
743+655124088+656833993+658514701+660239510+662153244+664292468+666425043
729+668292016+670082201+672059869+673976761+675646942+677428539+679573580
716+681782778+683732191+685541379+687566528+689818054+691990520+693900929
702+695568340+697249769+699137130+701164440+703217179+705139389+706988467
689+709010015+711235945+713465199+715683538+718185486+720828934+723113425
675+725165555+727114746+728592790+730481703+734298421+737564932+739705264
662+741499991+743400539+745828967+748508038+750885163+752946546+755089205
648+757485610+759947889+762350887+764904858+767765209+770589603+773294104
635+776151740+778997741+781441350+783706948+786251667+788848354+791313016
621+793690695+795988759+798650490+801866140+805226116+808214447+810619329
608+812859719+815292746+817835692+820218412+822446614+824957371+827707247
594+830369199+833023783+835729337+838338158+840856782+843749820+846971620
581+849849312+852527553+855368734+858049523+860520445+863420021+866738887
567+869988888+873227087+876279520+879137045+881996731+884721565+887389279
554+890177717+893076849+895749328+898397374+901426150+904520744+907491070
540+910265379+913011156+915846188+918660498+921654038+924505025+926846415
527+929324318+932570551+936022717+938896143+941373215+944071677+947184555
513+950515721+953742064+956221796+958022507+960231871+963216989+966326210
500+968547209+970044090+972213342+975077349+977522841+979364772+981370142
486+983958796+986784132+990058011+993759713+996739734+999064226+1001614541
473+1003818254+1004998340+1005736198+1006589073+1007880740+1010184068
461+1013486203+1016820028+1019136431+1020666886+1022561782+1025037303
449+1027692330+1029915988+1030966209+1031667612+1033650045+1036297759
438+1037893478+1038858489+1040820312+1043302371+1044114358+1043476115
426+1044236356+1046241948+1047081193+1047870577+1050360945+1052781728
415+1054629531+1056628918+1057398910+1056675567+1057065827+1059956206
403+1064300029+1069189573+1073741823
##END=
