##TITLE=павел 1-многокр
##JCAMP-DX=4.24
##DATA TYPE=INFRARED SPECTRUM
##DATE=2/2/2015
##SAMPLING PROCEDURE=Instrument type and / or accessory
##ORIGIN=Default
##XUNITS=1/CM
##YUNITS=TRANSMITTANCE
##RESOLUTION=4
##FIRSTX=3996.3347
##LASTX=399.24773
##DELTAX=-1.928733
##MAXY=1.1443559
##MINY=0.18177061
##XFACTOR=1
##YFACTOR=1.0657645e-009
##NPOINTS=1866
##FIRSTY=0.33329299
##XYDATA=(X++(Y..Y))
3996+312726684+312966805+314193696+315257841+315681010+316072860+316767077
3983+316375031+314436250+313218978+313967137+315029744+314873876+314405546
3969+314727152+314363965+313372245+313932994+314913668+314918589+315055610
3956+315493096+315872307+315955861+315237903+313970716+312895023+312615502
3942+312922791+312987414+313000613+313354768+313415840+312754424+312446491
3929+313752770+315389492+314838642+312595368+310982751+310375583+310257047
3915+310441884+311083307+312526718+313892251+313924773+313272053+313301610
3902+313841498+313959951+313364779+312820249+313304518+313857745+312715387
3888+310837873+310123606+310905656+312094209+312963897+313080784+312255949
3875+311790919+313195601+314873373+314312149+312718575+311814632+311334641
3861+310709829+310087197+309740144+308916960+308090420+309401173+310972153
3848+311498227+311943739+312324991+312388495+313015629+313438323+312295825
3834+310762120+310052187+310454747+311293172+311545010+311188729+310633097
3821+310119775+309464818+308171486+307109299+307702764+309198159+310327626
3807+310936332+311052268+310589866+309927750+309778846+309937062+309722584
3794+309534922+309774288+310134567+310266890+310023860+310092287+310835244
3780+311245690+310807197+310414452+310701160+311547862+312363860+312030481
3767+310377317+309012678+309594288+311390149+312125025+311807389+312339532
3753+313355663+312522971+310168794+308721888+307867804+307234658+307202025
3740+307302357+307601677+308297237+308766294+309038573+309349776+308800716
3726+307074233+306090678+306953263+307416448+306467316+305725673+305594134
3713+305730762+306498859+307430150+307354873+306434236+305643657+305182541
3699+305094233+305143477+304543803+303434889+302310092+301152774+300578631
3686+301217229+301783711+300457270+297713508+295811694+295899080+297422829
3672+299020319+299602068+298739371+297449479+296559238+296498949+297525707
3659+298611355+298459822+297514689+296563460+295746680+295142812+293955545
3645+292532714+292065783+292153616+291321371+289538905+288364473+288308099
3632+288372554+287227987+285244884+284111558+283135694+281843676+281172724
3618+281421150+281595334+280528980+277892570+274782880+273093951+273372885
3605+273196632+270633961+268027107+267887934+267790957+265598464+263544614
3591+263431642+263320096+261446106+259397680+258247017+257217687+255907633
3578+254659518+253974584+253447615+252683797+252032643+250903847+248819265
3564+247347694+246694135+245353154+243602342+242580842+241954687+241470753
3551+241480625+241360270+240403114+238748300+236903727+235554049+234867857
3537+234546334+234261472+233531657+232225713+230528339+228854287+227596468
3524+226385964+225255574+224859935+224464631+222760294+220335636+218701473
3510+218070159+217724015+216943447+215572614+214442127+213845404+212890987
3497+211222387+209490227+208326030+207657329+207394837+207409713+206875851
3483+205479866+203805296+202358208+201251587+200140352+198901507+197995286
3470+197391375+196498241+195157888+193886298+193395472+193455942+193177498
3456+192688489+192426431+191906886+190829277+189754143+188978147+188038663
3443+186803439+185844003+185305485+184908406+184857596+185081135+184966779
3429+184438734+183669882+182798684+182171649+181875461+181864919+181893344
3416+181391863+180375648+179372925+178896388+178779417+178126348+177316026
3402+177200063+177173106+176971784+176948672+176840021+176842440+177501829
3389+178175340+178146146+178102006+178569105+178698394+178194914+178428240
3375+179748892+180672143+180560639+179974151+179670035+179998199+180432875
3362+180811512+181603434+182344210+182446179+182927386+184409107+185585300
3348+185551800+184970484+185112888+186540779+188370308+189793501+190939467
3335+191628105+191767447+191918770+192231302+192653115+193078479+192887518
3321+192350077+192923325+194736174+196293941+197013409+197414529+198150510
3308+199541476+200662386+200703618+200434471+200740543+201449260+202349344
3294+203681251+204783425+204778071+204524625+205379408+206991102+208084161
3281+208444398+208952492+210135732+211231881+211755732+212203327+212212024
3267+211636049+211967596+214046068+216510421+217921464+218670728+219366329
3254+219652380+219454232+219383834+219691613+220187752+221019298+222381755
3240+224189053+225977545+227211903+228163229+229401935+230888437+232260290
3227+233326714+234023783+234486898+234947664+235370637+235673452+235852641
3213+236468589+238219401+240275069+241387982+241609088+241742501+242563756
3200+243897859+244990693+246072986+247460778+248438768+248778214+249118248
3186+249560153+250020485+250859413+251917965+252769980+253621771+254562429
3173+255463631+256377221+257142382+257940259+259222238+260693221+261886276
3159+262636533+262726239+262335871+262331956+263194037+264065207+264207261
3146+264336088+265114950+266159297+266903876+267382217+267876804+268262279
3132+268573399+268907812+269005125+268988151+269015303+269052131+269553849
3119+270934818+272719661+273907124+274000829+273294923+272663231+272726820
3105+272934979+272937859+273472350+274528637+275145424+275420388+276083342
3092+276699263+276613807+276220307+276184989+276526505+276679381+276313592
3078+275700804+275426008+275929432+276955043+277892598+278450857+278548086
3065+278449403+278727051+279399681+280040377+280387793+280391708+280208996
3051+279900700+279430609+278950758+278889350+279518833+280066802+279962667
3038+279911858+279849080+279034256+278081406+277817544+278016112+278153523
3024+277963177+277590314+277279558+277231684+277314316+277102214+276922941
3011+276775938+276038181+274980189+273636551+271848492+270336710+269054788
2997+266932539+263618661+259588306+255216995+250185721+243402264+234407147
2984+224030529+212791144+200895824+189610705+180392146+173771996+170554200
2970+172214704+179168122+189992768+202484910+214776624+225286250+233298820
2957+239670083+244974111+248776425+250986618+251719034+251197769+250098811
2943+248681545+246761639+244746657+243165890+242099397+241671922+241828237
2930+242287506+242960164+243740537+244493673+245017874+245081267+245088090
2916+245616652+246339672+246928133+247789515+248739989+249076331+248922729
2903+248603863+248114281+247719746+247454486+246670367+244993014+243223047
2889+242411300+242395696+242558695+242900882+243682876+244948776+246231314
2876+247251221+248444975+249980078+251563082+253173770+255136320+257255465
2862+258528272+258945597+259780861+261196757+262220494+262935377+264351943
2849+266412840+267944532+268393595+268226458+267977584+267917994+268342478
2835+269187865+269988483+270790835+271813929+272553112+272581662+272435218
2822+272589436+272906848+273491869+274071800+273952173+273549949+273632105
2808+274164163+274777007+275088407+275067155+275009271+274961454+274817079
2795+274716802+274778881+274821609+274917859+275441276+276262475+276750911
2781+276787794+276868189+276999169+276964998+276957252+277022966+277188621
2768+277479859+277544930+277200421+276901326+277139014+277688242+278146924
2754+278301058+277860384+277219101+277133309+277357240+277370299+277361350
2741+277623506+278134229+278451473+278145023+277641794+277393648+277130849
2727+276835640+276834941+276908288+276490572+275813412+275734723+276178921
2714+276470103+276642916+276876382+277153107+277549991+277824059+277662431
2700+277182972+276795428+276915615+277493757+278018908+278254555+278340235
2687+278249242+278064684+278138227+278462630+278721431+278649257+278240014
2673+277722972+277239346+276960580+276735839+276104510+275622954+276082140
2660+276682652+276502121+276061139+276033540+276463532+277040247+277343761
2646+277508773+277895142+278432402+278908002+279129527+279158442+279175303
2633+279197283+279557283+280366793+280820246+280505910+279906768+279168536
2619+278521800+278421300+278443727+278307070+278208304+278138787+278298709
2606+278451305+278226396+278107300+278347002+278446551+278141975+277842599
2592+277856497+277883426+277677476+277584134+277821235+277970084+277972601
2579+278232212+278683764+278811724+278422670+278107580+278306259+278612010
2565+278551665+278359194+278534328+278956966+279258075+279320601+279288331
2552+279308493+279192445+279038954+279129695+279282683+279152625+278662903
2538+278211995+278110963+278167309+278161577+278084062+277902469+277672750
2525+277747692+277969581+277759352+277315099+277133114+277151066+277159847
2511+277234592+277411684+277602170+277816817+277943687+278012560+278209534
2498+278388947+278488272+278410926+277921120+277564420+277962198+278614723
2484+278860408+278762705+278559327+278257827+277771432+277333331+277449938
2471+278016531+278567073+278910770+278830292+278502086+278321415+278177796
2457+277940107+277652952+277410845+277333499+277459306+277711954+277804429
2444+277597137+277427791+277670037+278104028+278178942+277783708+277312778
2430+277045197+276816317+276718865+277013179+277300922+277209230+277035689
2417+277121005+277291050+277246421+277143935+277198911+277255789+277225141
2403+277162140+276967403+276844252+277105514+277406455+277373011+277184007
2390+277066002+276974450+276751554+276292788+275808519+275692527+275569768
2376+274734223+273589545+273009417+273362063+273968336+273196101+270142002
2363+265658753+263506472+265998116+269688073+271900476+273118055+273606798
2349+273567118+273625226+273799353+272958245+272138304+272716530+272756349
2336+271916722+271549536+271527333+271680097+272373392+273530318+274607326
2322+274733524+274310355+274789898+275940701+276449914+276063293+275863299
2309+276340829+276620406+276500835+276437442+276289991+276107363+276328776
2295+276864526+277221562+277216528+277155428+277356988+277636453+277648366
2282+277438138+277339567+277608714+278166414+278540927+278360844+278027884
2268+277938094+277896568+277908453+277965246+277974418+278035099+278053443
2255+278021257+278051737+278040244+277881133+277719672+277741036+277842795
2241+277869528+277839272+277750628+277582316+277564923+277880266+278287020
2228+278539977+278577923+278345324+277817516+277272846+277151010+277276090
2214+277192172+277083115+277285262+277544091+277493253+277321167+277319433
2201+277294658+277089463+276890895+276799399+276769814+276719033+276748394
2187+276980881+277063848+276693194+276166337+276025179+276334816+276666769
2174+276932728+277185237+277158728+276867658+276605865+276411967+276209065
2160+275977809+275797809+275753934+275695687+275747475+276221397+276682540
2147+276543311+276019726+275674602+275658831+275634782+275444744+275495385
2133+275982674+276452962+276388534+275683187+274976694+275041652+275570551
2120+275747167+275460907+275278138+275582239+275869619+275676364+275482271
2106+275577905+275756423+276032309+276203221+275870038+275206860+274939614
2093+275263933+275450057+275239213+275079319+275037038+274936119+274833549
2079+274841631+275000239+275348913+275633217+275541665+275376737+275544685
2066+275912011+276053030+275840676+275516917+275215081+275100515+275374472
2052+275813412+276139828+276411408+276627900+276600720+276338759+276173915
2039+276345498+276622475+276669705+276611010+276759244+277061919+277259368
2025+277203525+276964327+276973723+277399996+277678762+277573340+277550075
2012+277767965+277991224+278153579+278242559+278192784+278188533+278363947
1998+278417553+278250193+278200362+278426082+278854704+279217472+279271665
1985+279303655+279523922+279691367+279713765+279696568+279662397+279511479
1971+279306004+279273539+279418640+279669975+280058274+280562816+281045938
1958+281310164+281260081+280997030+280806265+280842449+280900501+280860597
1944+280903745+281038388+281083661+281199681+281624192+282109020+282306609
1931+282221936+281994035+281823207+281856511+281969567+282045068+282076471
1917+282076834+282191708+282380600+282340556+282111593+282094311+282270424
1904+282331972+282365863+282442539+282459205+282633612+282970710+283097272
1890+283023393+283090337+283386133+283613951+283662747+283785981+283977949
1877+283965338+283727901+283528019+283423772+283311275+283416529+283706565
1863+283765791+283702007+283929517+284303694+284432689+284366919+284276066
1850+284103980+283880022+283978704+284560985+284862066+284582656+284420804
1836+284657598+284852866+284710057+284532993+284676865+284759161+284613779
1823+284734637+285010132+285066450+285178387+285355031+285223548+285055768
1809+285126207+285059011+284678403+284346366+284473292+284846434+284997632
1796+285117511+285397536+285533186+285438138+285274916+285071819+284946823
1782+284982951+285067345+285090750+284976995+284715091+284505002+284573708
1769+284861590+285218598+285463669+285487354+285416635+285522532+285964017
1755+286419931+286438051+286271977+286334782+286386794+286324380+286472502
1742+286930933+287334611+287237159+286922236+287078271+287419396+287432930
1728+287410560+287615167+288148456+288553728+288284665+287877463+288112104
1715+288528030+288705597+288829894+288886744+288899048+288935176+288782385
1701+288631159+288776652+288919936+289283515+289838140+290059554+289933551
1688+289628219+289440166+289645389+289847648+289791162+289584429+289360079
1674+289357954+289577885+289790211+289662279+289118420+288661611+288638094
1661+288647881+288255723+287474847+286673810+286678647+286930262+286515090
1647+285990778+285839887+285724902+285359841+284843666+284376427+284300590
1634+284646357+285029706+285519400+286125197+286536566+286742516+287092924
1620+287745980+288577665+289373054+289993001+290747591+291739171+292656284
1607+293448485+294287581+295054364+295479881+295699478+296135677+296839514
1593+297502721+298085896+298824547+299614232+300234822+300818333+301410652
1580+301821181+302233389+302982387+303546016+303634547+303864350+304438297
1566+304806966+304842451+304659795+304479655+304989259+305852766+306378673
1553+306720524+306978095+307073338+306933074+306711408+306649470+306997781
1539+307732182+308102528+308010557+307900381+308053117+308314518+308406909
1526+308289743+308132840+308120872+308295615+308432439+308482242+308537470
1512+308480173+308158986+307851697+308163600+308660285+308613977+308178756
1499+307791268+307714733+307653856+307307838+306719462+306152981+305720052
1485+305187043+304470903+303526050+302234032+300526116+298396904+295951008
1472+293494681+291669235+290985168+291691689+293349076+294919524+296231787
1458+298025188+300462192+302493923+304119599+305612142+306769880+307576510
1445+308250035+308724237+308718756+308418094+308204622+308052222+307925296
1431+307867440+307643734+307095317+306523495+306103514+305652325+305360556
1418+305378005+305193419+304843710+304701097+304734513+304958583+305499562
1404+306267994+307076581+307819735+308530926+309305622+310040918+310283304
1391+309561878+307406073+303414756+298259101+293368538+290256639+290300290
1377+293471387+298060561+301800013+303533851+304178266+305403172+308170143
1364+312522552+317510734+321696928+324571558+326306879+327178384+327482317
1350+327320298+326600885+325289237+323818366+323056030+323594268+325258869
1337+327242867+328970805+330256951+330898122+330947253+330571258+329764628
1323+328697687+327644840+326732788+326077859+325839136+326020730+326419096
1310+326879176+327409529+328086633+328972511+330077370+331396820+332897668
1296+334547084+336294345+337961071+339551598+341308394+343124416+344754482
1283+346320764+347937380+349482886+350798225+351908369+353081263+354368666
1269+355550089+356689343+357928370+359044778+359876939+360668385+361589776
1256+362428956+363109807+363843565+364633864+365375228+366160550+367047267
1242+367792630+368143430+368344263+368830489+369596069+370343501+370954639
1229+371464970+371862105+372220819+372705423+373446088+374284708+374782176
1215+375043717+375487942+376095110+376795647+377451136+377867286+378209333
1202+378573640+378793124+378926341+379209917+379640245+380070573+380355771
1188+380397939+380371402+380428028+380423749+380091265+379197921+377701463
1175+375376816+371615720+366032926+358961307+351673896+345971195+343147430
1161+343519174+346577188+351111246+355779864+360016979+363756823+366663555
1148+368452369+369246695+369265263+368444875+366374833+362767508+357957620
1134+352992339+349314770+348183877+350166142+354793010+360730995+366391667
1121+370543411+372823457+373739675+374171149+374633187+375077748+375719758
1107+377148349+379432366+382156889+385250444+388875638+392812007+396751397
1094+400530334+404039675+407390801+410548727+413307953+415773675+418015915
1080+419866164+421489855+423360658+425435844+427194682+428430829+429358372
1067+430316256+431448743+432733378+434186241+435623248+436792759+437706321
1053+438681262+440043104+441537548+442706667+443605632+444620394+445939396
1040+447350174+448662968+449921150+451077070+452037834+453018005+454341258
1026+455788723+456951187+458107387+459650543+461260699+462520279+463576986
1013+464784974+466131659+467344513+468455244+469766249+471291089+472647423
999+473735644+474938850+476271302+477381279+478264137+479232507+480490465
986+481808545+482935746+484013285+485043398+485789348+486290339+486683112
972+486858722+486665775+485743600+483367388+478892920+471349868+459287495
959+442921062+425868129+413819570+411455354+419647519+435074804+452749221
945+468860293+481796241+491505780+498565290+503774410+507892458+511440781
932+514601700+517427450+519951308+522064665+523864049+525502644+527064396
918+528934136+531216838+533418727+535137241+536500006+537820714+539192651
905+540627617+542072314+543554259+545168973+546740457+548155513+549533434
891+550944743+552382002+553824407+555223300+556581032+558002296+559448783
878+560935145+562459650+563670351+564717353+566009930+567276557+568421935
864+569783246+571341195+572810947+574170245+575594753+577075187+578524359
851+579910333+581254586+582576525+583810491+584978407+586167911+587436943
837+588623707+589486207+590188702+590991362+591835239+592125330+590773024
824+586744962+579687074+571589733+567469392+571223246+581120251+592087636
810+600860291+606785050+610323305+612619822+614614222+616360309+617930841
797+619586997+621203949+622616097+623870755+625041188+626276832+627586522
783+628718646+629792438+631005375+632193145+633499927+635157314+637026830
770+638792994+640240935+641447385+642615637+644067773+645908822+647799032
756+649575877+651384937+653195618+654805915+656284671+657862474+659523105
743+661154933+662792465+664460030+666073346+667606911+669216984+671062172
729+673073239+675121832+677021773+678587999+680006019+681601439+683437679
716+685411107+687429947+689443363+691518018+693587864+695412527+697009904
702+698583345+700386532+702441165+704468227+706382429+708327446+710442536
689+712540737+714549007+716712642+718896018+721026377+723292916+725590943
675+727809050+729734716+730959510+732308070+735788162+739411762+742093389
662+744329617+746329945+748424343+750442848+752307331+754553848+757306894
648+760027782+762546215+765023095+767334376+769495046+771892399+774867249
635+778009656+780838762+783538957+786225003+788928665+791564824+793984938
621+796179333+798112270+800319303+803324354+806631242+809793782+812906101
608+815786771+818193463+820472307+822757302+824937267+827420131+830217918
594+832752235+835146231+838095579+841502855+844674008+847629732+850459956
581+852797132+854845501+857299731+860493255+863896727+867008878+870257825
567+873887577+877261744+880153153+883141594+886058840+888572743+891396368
554+894804427+897937159+900413423+903170775+906353393+909113430+911645789
540+914393466+917297905+920307654+923662806+927256317+930211202+932529138
527+935149190+938308264+941547200+944520597+947118166+949470889+952017006
513+955183461+958684470+961599256+964000634+966407047+968407431+970216211
500+972054968+973355934+975009573+977937110+980753465+982310463+983819811
486+986489974+989850607+993720284+998062653+1001596994+1004026001+1006215306
473+1008214572+1009858592+1011154524+1012236258+1013926921+1016546302
461+1019197673+1021540664+1023729633+1025517720+1027336232+1029452496
449+1031430175+1033247008+1034644280+1035672435+1037769461+1040376091
438+1041195528+1041159400+1042786530+1045381527+1046359572+1045847508
426+1046369975+1048488141+1051009874+1053460692+1055858491+1057276120
415+1057883148+1059991695+1063205464+1064383392+1064455985+1066526278
403+1069180221+1070677825+1073741823
##END=
