##TITLE=павел 1-многокр
##JCAMP-DX=4.24
##DATA TYPE=INFRARED SPECTRUM
##DATE=2/2/2015
##SAMPLING PROCEDURE=Instrument type and / or accessory
##ORIGIN=Default
##XUNITS=1/CM
##YUNITS=TRANSMITTANCE
##RESOLUTION=4
##FIRSTX=3996.3347
##LASTX=399.24773
##DELTAX=-1.928733
##MAXY=1.1476414
##MINY=0.19551727
##XFACTOR=1
##YFACTOR=1.0688244e-009
##NPOINTS=1866
##FIRSTY=0.32731056
##XYDATA=(X++(Y..Y))
3996+306234189+306270967+307430186+308314198+307614300+306469412+306929152
3983+307652890+306524482+304906555+304284423+304532975+305486109+306593298
3969+307147310+306990021+306142620+305074161+304500296+304568303+305697046
3956+307609113+308623507+308117035+306558360+305098448+305052970+305809387
3942+306239041+306433303+306535886+306434837+306165931+305770797+305895714
3929+306612454+306632279+305978499+305501305+304662437+303429327+303492789
3915+305527097+307710162+308849584+309295466+308759326+306761518+304657808
3902+304078143+304176292+303893388+303419010+303284362+303820195+304284284
3888+304396430+304864618+305507244+305394930+304174535+303073564+303160476
3875+303871082+304813090+305413668+304519870+303323008+303340323+303170403
3861+302475942+303126096+304504924+304486438+303026358+303214291+305202815
3848+306249581+305357065+303810798+303124674+303646454+304490509+304585786
3834+303875571+302982832+302929491+303423611+303182922+302462223+302051363
3821+302165267+302284635+301241800+299651338+299502525+300941553+302919035
3807+304169321+304084723+303560518+303541446+303573734+303239051+303416668
3794+304081991+304170074+303543955+302553207+301792216+302282460+303490001
3780+303696198+302718443+301889724+301750559+301593659+301381384+301754323
3767+301628653+300281640+299377190+299681146+300040812+299995418+300267893
3753+301162584+302006694+301972342+301415513+300573438+299655744+299356584
3740+299755148+300427665+300429198+299969626+300022437+300156611+299846717
3726+298832518+297455308+296874555+297484446+298430692+298869910+298912571
3713+298914467+298710585+298290969+298309874+298595873+297929100+296288783
3699+294926044+294183819+293736153+293361402+293336948+293936494+294508101
3686+294345849+293639872+292969642+292726667+292822864+292672545+292217407
3672+292010959+291504822+290725930+290540088+290556512+290370809+290218538
3659+290006681+289544488+289313754+289502691+289423614+288693323+288136411
3645+287961332+287116915+285618189+284635471+284289551+284077944+283852592
3632+283152527+281427918+279442685+278424583+277492110+275908145+274305889
3618+272896584+271524058+270164442+268272506+266695316+266457165+266003449
3605+264710139+263568960+262325478+260521653+258881085+258148173+257909938
3591+257641255+257465590+256872346+255041084+252551024+250674396+249945555
3578+249693379+248878964+247335095+245702836+244399962+243633172+243382641
3564+243094300+242640444+241957694+240468978+238425943+237070760+237050099
3551+237610971+237210316+235131032+232657075+231498636+231327907+231088571
3537+230748228+230259322+229288733+228200979+227258622+225801289+223654319
3524+221963923+221404347+221144852+220508792+219755609+218891367+217783007
3510+216693176+215613535+214456895+213027125+211433344+211135370+212259414
3497+212354371+210550630+208860722+208820737+209511936+208808929+206352148
3483+203469979+201211838+200330629+200693279+200990766+200158311+198689559
3470+197903655+197518197+196397233+195370585+195248373+194706280+193722642
3456+193558730+193572504+193243077+193051003+192611758+191603708+190735298
3443+190485505+190233970+189351869+188075986+187074851+186899660+187383505
3429+187396847+186144121+184458410+183336666+183018434+183622274+184450784
3416+184503720+183932378+183654229+183837227+183858083+183631002+183218734
3402+182927409+183507925+184415317+184513633+183852785+183256265+183467466
3389+184211197+184408053+184047118+184050938+184294930+184301678+184498701
3375+185258981+186510131+187751257+187942606+186901752+186218946+186864277
3362+187487551+187377203+187883368+189282356+190199242+190506473+191382078
3348+192892055+193699624+193213981+192529935+192559240+193433673+195209796
3335+197002663+197551169+197139235+197136823+197983429+198950393+199640476
3321+200368760+201406951+202453174+203070649+203524853+204386112+205420651
3308+205888825+205881617+206020141+206569581+207296192+207838145+208435377
3294+209175078+209864855+210457123+210722781+211150594+212050945+212821304
3281+213649270+215018506+216513691+217176197+216740103+216378555+217035261
3267+218154775+218831418+219077725+219540337+220345884+220961436+221274830
3254+221917581+223290986+224708892+225115625+224860451+225267742+226566977
3240+228149060+229926424+231895178+233247280+233578631+233888651+234686991
3227+235270532+235630840+236252470+236909734+237514829+238089197+238363568
3213+238656454+239485730+240688587+241817525+242814240+243687907+244054461
3200+243885404+243824284+244296348+245123645+246263959+247866188+249461975
3186+250447454+250897825+251350398+252049627+252639219+253133812+254250760
3173+255977014+257036327+256778825+256292569+256570983+257368306+258228728
3159+258992227+259565312+260001435+260494522+260946399+261121227+261342983
3146+261920975+262725965+263571804+263960971+263720478+263479594+263725553
3132+264374006+265150388+265991821+266453290+266058881+265676043+266114898
3119+266721443+267016727+267582729+268454110+268762917+268446581+268171094
3105+268196078+268571415+269285533+269977958+270275612+270536739+271305844
3092+272040847+271868389+271006349+270431257+270465748+270537408+270459642
3078+270601679+271335818+272503430+273360451+273734477+273595367+272867586
3065+272186007+271947438+272167799+272794504+273623306+274327303+274405599
3051+273882872+273380359+273479791+274045821+274313055+274026275+273659220
3038+273618036+273559258+273179237+272964285+273024736+273123080+273633567
3024+274242343+273890484+273067118+272711663+272579719+272450675+272196658
3011+271802779+271374938+270468091+269157047+268220141+267554038+266384418
2997+264627521+262633309+260317408+257103191+252440048+246182177+238374638
2984+229441171+220092997+210605337+201186437+192807471+186742594+183755654
2970+184755757+190503560+199755732+210167597+220375831+229443792+236398411
2957+241395484+245465800+248951851+251306705+252106286+251550572+250301429
2943+249068403+247751838+246021876+244461863+243646472+243458456+243711636
2930+244399209+245173054+245477428+245499957+245839129+246533730+247065743
2916+247236667+247361110+247681879+248413230+249299026+249493400+248918112
2903+248483635+248402216+247997713+247452790+247303587+247115932+246366653
2889+245292255+244509125+244162034+244087474+244515315+245468923+246559661
2876+247744756+249028446+250284086+251827063+253423101+254225108+254620520
2862+255167702+255500823+255825663+256443362+257266866+258567314+260029262
2849+260955544+261605866+262417827+263216794+263860619+264319048+264455091
2835+264550647+264925900+265317604+265506346+265612219+265975370+266604835
2822+266832976+266798680+267421648+268393965+268688580+268338199+268247969
2808+268691313+269028282+269053126+269040746+268986373+268883540+268870435
2795+268959076+268892379+268665995+268680466+268896868+268874004+268720785
2781+269107443+269982308+270521403+270383214+270035036+270125935+270333944
2768+269777199+268778197+268518297+269055162+269342415+269181445+269118875
2754+269415469+270005507+270440458+270503865+270290307+269951915+269851285
2741+269947900+269811858+269530516+269639288+270045520+270174452+270092140
2727+270109093+269946562+269353819+268793561+268636940+268677399+268857330
2714+269358504+269973302+270206629+270188505+270352961+270587905+270546694
2700+270046635+269636974+270053299+270640688+270373455+269875738+270179331
2687+270695758+270704123+270602990+270642417+270862806+271149920+270892307
2673+270028204+269274519+269055552+269195916+269402308+269437246+269095286
2660+268366277+267457812+266749466+266766781+267684448+268734643+269105519
2646+269074178+269135967+269180162+269104794+269167392+269425228+269557534
2633+269591552+269839574+270142609+270302910+270588379+270944225+270827896
2619+270225367+269817351+270015740+270420354+270612387+270750771+270907838
2606+270856700+270555644+270251828+270085839+269888342+269630756+269514427
2592+269622475+269818076+269843673+269746639+269825855+269978711+269901029
2579+269788687+270011558+270283113+270034060+269434876+269070107+268971261
2565+269022566+269479489+270203590+270615537+270575804+270365843+270063142
2552+269571476+269176286+269132008+269268775+269578391+269961312+270130731
2538+270118685+269898184+269481943+269209328+269100444+269000901+269070274
2525+269236291+269178907+268853036+268391149+267979704+267793415+267952685
2511+268457205+269076297+269551651+269783389+269855551+269691709+269033914
2498+268277218+268159523+268553709+268875788+269075962+269246385+269295264
2484+269351895+269370605+268984059+268389365+268086078+267988515+267872827
2471+267883729+268173186+268553318+268687465+268578274+268450959+268351276
2457+268348544+268604624+269009126+269240223+269110092+268774879+268688859
2444+268955423+269129610+268967803+268630862+268274792+267950008+267670618
2430+267457311+267397808+267537726+267804123+267918918+267562040+267105396
2417+267225461+267726607+267827628+267434948+267131216+266909293+266616881
2403+266712548+267281088+267910637+268249558+268195911+267983691+267852193
2390+267742975+267437904+266957419+266459452+266189904+266449971+266714249
2376+265873262+263900381+262104112+261404660+261601544+262333731+262822190
2363+262512435+261497846+260250237+259756592+260259578+261542934+262777382
2349+263707428+264612631+264945028+264103092+263389643+263918170+264218836
2336+262992222+261929033+262676333+264299418+265095402+265288243+265403596
2322+265076748+264918538+265164190+265439510+265854496+266083028+266180089
2309+266627421+267047873+267150650+267276069+267481569+267619898+267789205
2295+267697385+267158179+266909153+267220916+267587776+267866804+268063019
2282+268070464+267924857+267774845+267782123+267909047+267882753+267560060
2268+267152937+266975543+267053979+267184919+267373103+267583371+267547011
2255+267472451+267659130+267867641+267882447+267793192+267925108+268237150
2241+268195520+267747436+267320404+267224318+267318675+267339225+267375668
2228+267274173+266840644+266589388+266875080+267247991+267413171+267562737
2214+267636962+267487229+267248521+267025426+266786550+266588245+266639466
2201+266949807+267241773+267179203+266739372+266423399+266412218+266348922
2187+266079403+265731810+265670495+266098531+266563735+266642255+266610579
2174+266726378+266638881+266304114+266151983+266111385+265965249+265895317
2160+265925571+265853465+265740844+265872258+266226961+266314208+265882993
2147+265359735+265147014+265214687+265419908+265572624+265640910+265847498
2133+266096830+266067803+265714634+265090606+264481580+264351588+264541808
2120+264600028+264640263+264838820+264901836+264651472+264401499+264434401
2106+264538266+264487017+264578139+264924979+265107587+265115004+265288187
2093+265472328+265302519+264899940+264728458+264911038+265114558+265041559
2079+264779875+264708577+264963681+265215802+265107699+264689561+264493904
2066+264859537+265218144+265045184+264841859+265003805+265163103+265166253
2052+265156606+265125265+265182007+265461286+265681676+265497897+265259607
2039+265545968+266150756+266576394+266796393+266883138+266755572+266581051
2025+266710541+267040483+267272110+267431742+267569513+267608075+267469858
2012+267340424+267459681+267605036+267617779+267638440+267675525+267601997
1998+267418720+267425524+267666602+267841709+267887382+267912059+268096507
1985+268380498+268436013+268437742+268660892+268767183+268637860+268782045
1971+269256284+269481803+269329226+269139202+269081428+269309373+269778482
1958+270075773+270091415+270074630+270139235+270152368+270077195+270113862
1944+270263623+270435579+270718120+271083251+271300853+271260254+271199580
1931+271264967+271301828+271297981+271389884+271501250+271426662+271316495
1917+271409988+271554702+271628871+271709789+271905418+272169166+272160522
1904+271939826+272063376+272470305+272546649+272267454+272147779+272346782
1890+272567534+272580221+272489377+272503040+272670507+272903806+273072751
1877+273174664+273229371+273072416+272836886+272857659+272999362+273163985
1863+273399376+273518270+273535139+273596036+273743065+273985259+274087395
1850+273842971+273492785+273373305+273467132+273597877+273737767+273805663
1836+273713732+273567986+273597849+273967135+274394307+274442572+274154427
1823+273853064+273755584+273895893+274246246+274698680+274924563+274719481
1809+274455956+274503721+274693661+274734650+274628833+274686244+274916644
1796+274948040+274785146+274808847+275059992+275212987+275188701+275151086
1782+275197512+275253585+275155771+274981361+275078144+275409732+275393782
1769+275086007+275061330+275309993+275541480+275631766+275615148+275833418
1755+276244167+276297061+276138601+276343933+276633668+276568059+276350262
1742+276357066+276617775+276738370+276662276+276804453+277156089+277442422
1728+277557051+277329997+277000612+277045337+277532095+278188411+278615639
1715+278728064+278825963+278968976+278875678+278565254+278450403+278634572
1701+279270533+280038997+279995108+279601815+279519726+279618266+279730635
1688+279699072+279695614+280031161+280285345+280263708+280193330+280159006
1674+279996224+279617708+279392802+279378470+279201634+279008877+278900913
1661+278672131+278356771+277935315+277528052+277615717+277595641+277041823
1647+276536077+276198103+275707190+275158448+274805613+274746974+274840300
1634+274811719+274722604+274802267+275065931+275409258+275992464+276825672
1620+277525570+278201405+279208828+280236271+281105253+281920476+282514892
1607+282995711+283684986+284569136+285444587+286098004+286578461+287098121
1593+287539681+287927258+288555942+289370720+290183768+290927777+291445849
1580+291632667+291856263+292526298+293096260+293362963+293943577+294740174
1566+295185330+295353243+295291677+295197153+295696570+296279665+296485527
1553+296518987+296547205+296898869+297373442+297470448+297388471+297908383
1539+298895758+299138342+298915415+298964211+299112829+298994548+298834024
1526+298980913+299521960+300121395+300281779+300165952+300028655+299821789
1512+299694111+299678079+299765437+300215250+300578959+300492326+300197014
1499+299890438+299792233+299827003+299770065+299696063+299579511+299272628
1485+298925871+298616925+298131505+297349518+296307297+295049093+293674475
1472+292341655+291284628+290823940+291430011+292919006+294164858+294877387
1458+295832585+297385181+298575295+299302017+300190378+301431100+302586722
1445+303276108+303600670+303653146+303570416+303609983+303760246+303912516
1431+304051458+304059294+303889150+303655098+303383375+303072254+302933116
1418+302976614+302899963+302832764+303030512+303342275+303578837+303997978
1404+304791397+305581079+306158597+306727333+307407015+308085220+308319161
1391+307732329+306324698+304059991+301018204+297987125+296271802+296677810
1377+298851674+301812404+304317772+305534124+306001810+306842184+308670379
1364+311554234+314900868+317678237+319509137+320694734+321646585+322411674
1350+322597377+322044981+321235418+320697048+320605424+321122491+322346846
1337+323896709+325278604+326250086+326771586+327041915+327157742+327028865
1323+326708710+326237705+325675662+325348396+325490434+325983298+326592771
1310+327136439+327612100+328244716+329098780+329970188+330857880+331986065
1296+333309880+334544913+335671286+336833628+338062862+339315825+340481095
1283+341601250+342817741+344072433+345209569+346151047+346965629+347760191
1269+348650086+349676915+350643099+351455450+352219061+352981418+353718847
1256+354390471+355118252+355968163+356709607+357297665+357914415+358598615
1242+359319453+359979869+360504269+361046125+361692348+362232168+362503110
1229+362747869+363294437+364070317+364786973+365301363+365741306+366338844
1215+367110458+367904936+368589610+369114875+369513885+369813742+370065193
1202+370439777+371007787+371553017+371959164+372377581+372912242+373518258
1188+374034349+374364152+374617583+374838391+374889975+374704356+374273141
1175+373309272+371337730+368239201+364266866+359886766+356153921+354346192
1161+354824391+356963623+359888439+362953341+365859838+368421474+370406763
1148+371705650+372408531+372647965+372386699+371302123+369178087+366396144
1134+363697406+361855214+361629861+363336680+366472238+370228533+373899952
1121+376781214+378607959+379647977+380159440+380475302+381009852+381885833
1107+383149224+384946245+387129812+389417356+391782387+394205611+396679276
1094+399273229+401887202+404300360+406336927+408135537+410032771+411924651
1080+413559001+415093892+416620417+418024982+419305437+420350112+421196509
1067+422271744+423640533+425011275+426291759+427385592+428216207+428954110
1053+429902141+431208807+432595554+433801198+434965855+436164306+437336407
1040+438571302+439873478+441142139+442464253+443841212+444985319+445899165
1026+447041181+448562325+450171803+451717540+453161280+454421130+455502416
1013+456462967+457432078+458658663+460197736+461742999+463115052+464444247
999+465771491+467013356+468158216+469252244+470395179+471732071+473251151
986+474703089+475859799+476779780+477692622+478683203+479666145+480551550
972+481328211+481930545+482173520+481786389+480170888+476409713+469661347
959+459957968+449286900+441486582+440220040+446210343+456812707+468588120
945+479247059+487739802+493977291+498483953+502009123+505056654+507694244
932+509900034+511869597+513792428+515502509+516962310+518473193+520062093
918+521670679+523456157+525334040+526934317+528237079+529641727+531255164
905+532817185+534183466+535479927+536922217+538561921+540198892+541567291
891+542813004+544298402+545952996+547488193+548851295+550184394+551568408
878+553072153+554677003+556084941+557311693+558682937+560184897+561682508
864+563176382+564629993+565965267+567353799+568964950+570578388+572029155
851+573326619+574609696+576005031+577259834+578357933+579668279+581187750
837+582571597+583753625+585001680+586378835+587647692+588473427+588410411
824+586817885+583324892+579128013+577278738+580204698+586843426+593914067
810+599378910+603139471+605850395+608018486+609737379+611130762+612627536
797+614422103+616119247+617411915+618630024+620071812+621615765+623177507
783+624625207+625891665+627167492+628629802+630329957+632000723+633516458
770+634983787+636341479+637763471+639442211+641318142+643325515+645345044
756+647221031+648921186+650520515+652028107+653654929+655637040+657706536
743+659602264+661372294+663032353+664655271+666467628+668527533+670617105
729+672602562+674650700+676826933+678763427+680234604+681673102+683515294
716+685649034+687799782+689779216+691726974+693817774+695911083+697932620
702+699802026+701540046+703394507+705424577+707464796+709291485+711078691
689+713263067+715792191+718290421+720585438+722738919+724874945+727164998
675+729651294+731687052+732589745+733613340+737457718+741352677+743838527
662+745866198+747903183+750227812+752802609+755449791+758010145+760373252
648+762565212+764689695+766935692+769471899+772356814+775370048+778213919
635+780911514+783571634+786118381+788590345+791071175+793478450+795868716
621+798176335+800454008+803291466+806633221+809666140+812203797+814854660
608+817865551+820608541+822851862+824982646+827207062+829768363+832615134
594+835396045+838221289+841301833+844225674+846512046+848812193+851654057
581+854419185+856934201+859540116+862411312+865503232+868581992+871456367
567+874282560+877420544+880522614+883414109+886601223+889922679+892856111
554+895618339+898572126+901397482+904090505+906854685+909578714+912430169
540+915378714+918299654+921113355+924006914+927296806+930423915+933153576
527+936062470+939174355+942019676+944636577+947434942+950421241+953556548
513+956845659+959626179+961522911+963583262+966397465+969386329+972456723
500+975018638+976541065+978021332+980026809+982224457+984295180+986364565
486+988999089+991982264+994961760+998134430+1001178503+1003930916+1006667827
473+1008791306+1009627469+1009972664+1010945567+1013174222+1016789121
461+1020711405+1023488802+1024886647+1025849512+1027066115+1028438641
449+1030035795+1032323450+1034999352+1037006837+1038413604+1039868441
438+1041070768+1042420318+1044789170+1046572696+1045964059+1045417324
426+1047878302+1051621130+1053870083+1054997683+1056861847+1059601434
415+1062020475+1064331441+1066687243+1067241005+1064713665+1061837003
403+1062311465+1066779258+1073741823
##END=
