##TITLE=павел 1-многокр
##JCAMP-DX=4.24
##DATA TYPE=INFRARED SPECTRUM
##DATE=2/2/2015
##SAMPLING PROCEDURE=Instrument type and / or accessory
##ORIGIN=Default
##XUNITS=1/CM
##YUNITS=TRANSMITTANCE
##RESOLUTION=4
##FIRSTX=3996.3347
##LASTX=399.24773
##DELTAX=-1.928733
##MAXY=1.1512059
##MINY=0.19413824
##XFACTOR=1
##YFACTOR=1.072144e-009
##NPOINTS=1866
##FIRSTY=0.32957667
##XYDATA=(X++(Y..Y))
3996+307399620+307671613+307030088+305911734+305473487+305913818+306408826
3983+306320321+305915764+305929635+305940392+305220757+304398023+304410393
3969+305722242+307329238+307426444+306173469+305332807+305779364+306618387
3956+307109921+307266556+306648908+305410249+304484944+304148657+303914662
3942+303581044+303824656+304123445+303144187+302057271+302224192+302702188
3929+303061213+303646644+304548599+305772137+306980887+307555339+306557456
3915+304877632+305007416+306486018+306839651+306023338+305196212+303973231
3902+302352725+301871059+302902020+303818763+303622322+303163256+303727033
3888+305450666+306951228+306686518+305547705+304852920+304956686+305195935
3875+303889312+301806459+301205823+301317400+301170410+301478066+302386748
3861+303260406+303670967+304234160+305314238+305904701+305043524+303144743
3848+301534327+301101362+301012634+301336107+302880283+303742516+302730068
3834+301745362+301449130+301566349+301702638+301379609+300935803+300371581
3821+299640021+299526304+300269038+301541527+302226193+302003790+302145749
3807+303327091+304019707+303119920+302079036+302513836+302906467+301910336
3794+300634846+300313374+301168158+302196561+301597982+299676713+298650395
3780+299150545+300103924+300521462+300484242+300799932+301199374+300986950
3767+300937499+301031897+300669870+300448551+300504145+300163438+299536311
3753+299288446+299608444+300528551+302084151+302926009+301417246+299231073
3740+298188187+298379152+299003360+298637275+298203364+298721305+298584766
3726+297036449+295938637+296574214+297528455+297435835+297154002+297652512
3713+298101044+297246066+295926878+295235513+294641687+293915548+294162913
3699+295561349+296380358+295705087+294532751+294203301+294256366+292916053
3686+290995062+290162961+290023253+289658252+289373389+289773331+290522848
3672+291067223+291046626+290683848+290904555+291392836+291049906+290069730
3659+289654888+289442353+288408057+287583071+287941791+287908045+286061717
3645+284511009+284299641+284187203+283171225+281584270+280773461+281303187
3632+282009424+281901182+280575852+278175197+275858323+274741914+274563124
3618+274337469+274388698+274589893+273156126+270272361+268101392+266846305
3605+265443921+263508254+261507041+260038668+258661913+256980087+255176149
3591+253755976+253537742+254385715+254756805+254124702+253035813+251393903
3578+249308882+247490768+246216556+245307652+244499289+244097790+244092703
3564+243625270+242712724+241527463+240139812+239058289+238170371+237199785
3551+236724680+236588197+235632149+234149210+233019181+231554866+229704077
3537+228909056+229346358+229402758+228014593+225723903+224118476+223939714
3524+223781925+222489868+221168151+220513630+219241573+217216149+216089011
3510+216125870+216338822+216219073+215340648+213729551+212753879+212862050
3497+212358064+210403995+208026092+206695022+206857814+206834548+205832010
3483+205051180+204367751+202929871+201212520+199864577+198812616+198113787
3470+197834872+197496236+196761897+195605474+194253695+193285195+193109295
3456+193147266+192244380+190915366+190777257+191509637+191346997+189985406
3443+188803605+188466262+188343010+187694452+186439517+185377730+185186487
3429+185586471+185796254+185474018+185119357+184986780+184611201+183691734
3416+182708918+182379524+182362679+182143417+182260220+182695506+182545111
3402+182049227+182083223+182471838+183087318+183905562+183858349+182477953
3389+181074778+181173568+182261888+182816520+183393793+184660930+185301135
3375+184910074+184591744+184715913+184821291+184859956+185599883+187135414
3362+187973338+187540846+187157443+187610144+188575921+189642017+190562846
3348+191361674+192246979+192935023+192976648+192983778+193723858+194966798
3335+196204526+197113556+197579641+197797360+198170757+198680302+199049974
3321+199520340+200033791+200468438+201281860+202164843+202419797+202527871
3308+203502710+205144758+206139819+206266671+206485836+207036952+207608846
3294+208491204+209993851+211258306+211534052+211785086+212785039+213634750
3281+213755347+213916944+214295108+214342710+214637997+215786469+217000070
3267+217603694+218073129+218829358+219562697+220411060+221693861+222674523
3254+222800068+222762403+223216327+224193361+225279735+225766793+225972226
3240+226630514+227372817+228255050+229986869+231889152+232744978+232937444
3227+233182155+233421042+234150322+235620197+236932017+237685370+238345881
3213+238778540+238791466+239272992+240303036+241025061+241762653+242885204
3200+243630913+244000251+244890948+245845912+246378474+247555146+249402280
3186+250454394+250455339+250604470+251343702+252088632+252655106+253248932
3173+254060769+255006282+255607307+256033824+256956182+257881486+258078566
3159+258086405+258439065+258983774+259363536+259561867+260198139+261236910
3146+261862147+262112764+262584617+263334467+264156478+264452766+263822498
3132+263158596+263302445+264389472+265942404+266481665+265693177+265144799
3119+265617708+266506126+267094309+267032350+266790377+267202689+268014026
3105+268520181+268718957+268604545+268240933+268121906+268187785+268220558
3092+268651883+269397341+269911862+270251291+270398476+270236781+270144912
3078+270408621+271039862+271689866+271717051+271534036+272000024+272622092
3065+272642828+272104624+271386824+271230216+271981483+272770416+272754238
3051+272388848+272463121+272858032+273112624+273246939+273628369+274202653
3038+274259081+273631927+272910513+272490501+272568972+273023702+273327495
3024+273146648+272649611+272233129+271919997+271304684+270318504+269535937
3011+269151672+268838845+268610910+268320960+267543869+266244890+264664829
2997+262895693+260836412+258470364+255546349+251610441+246376861+239397439
2984+230346214+219765267+209044669+199429082+191191988+184695343+181782251
2970+184128174+190913226+199917905+209613603+219497916+228798355+236073481
2957+241124268+244912046+247699412+249258236+249803529+249971061+249995912
2943+249288535+247537912+245404691+243684533+242862911+242988804+243716138
2930+244563695+245085193+245465038+245741646+245631903+245616559+245939393
2916+246401323+247007379+247584416+247996978+248189222+248031085+247824443
2903+248047541+248138075+247558454+247038178+246693913+246030984+245375226
2889+244871212+244246643+243800307+243936151+244551631+245251058+245716906
2876+246470370+248080647+249830714+250977005+251894026+253141107+254297377
2862+254804170+255230353+255958800+256639686+257491718+258927235+260467519
2849+261419203+262076795+262867673+263442347+263757426+264036006+264092406
2835+264022747+264131795+264450848+264893987+265431635+265997247+266328809
2822+266592185+266863400+266537397+265930034+265891258+266309601+266735395
2808+266968389+267089500+267121383+267065595+267274211+267713569+267950844
2795+267938196+268008550+268368993+268628700+268704836+269044181+269293575
2781+269177384+269147752+269130185+269007183+269181470+269421914+268894633
2768+267967800+267979475+268728769+269009435+268973938+269247043+269576548
2754+269619939+269352282+269060387+269211796+269586416+269499217+268951617
2741+268612272+268723960+268798095+268787754+268999344+268978775+268572467
2727+268400237+268504531+268765127+269002986+268463169+267591819+267673375
2714+268426422+269001540+269366069+269538133+269358814+268967295+268730770
2700+268695746+268681709+268818247+268999817+268747393+268449104+268817942
2687+269427445+269693351+269687847+269538605+269494964+269553504+269297022
2673+268883626+268770548+268864863+268719818+268062893+267293252+267161188
2660+267654973+268030538+268081156+268189647+268325936+268206103+268000545
2646+268243323+268926433+269269142+269238565+269682065+270295460+270062828
2633+269345611+269124875+269423025+269823774+270320088+270805228+270842671
2619+270742074+270935735+270680615+269691405+269038316+269120206+269209573
2606+269161984+269371101+269649570+269658438+269531406+269575408+269642621
2592+269334103+268881513+268793981+269005182+268993729+268525323+268049134
2579+268115096+268683404+269197147+269326070+269245403+268979775+268499472
2565+268463169+269318815+270245926+270481561+270161618+269636645+269364513
2552+269305945+268975356+268741166+269142026+269777909+269913419+269258579
2538+268423559+268137445+268222587+268358486+268391342+268153289+268016750
2525+268197292+268202823+267821227+267359798+267127665+267275628+267584369
2511+267625981+267381285+267025595+266783734+267156908+268006910+268427978
2498+268143477+267682437+267462507+267535141+267776946+267966549+268030705
2484+268129161+268260113+268254053+268030649+267671012+267475294+267529470
2471+267512848+267388901+267461562+267630873+267512486+267345510+267591568
2457+267948982+268065478+268133220+268214553+268092608+267791595+267615863
2444+267621117+267646245+267587677+267436740+267461090+267760268+267974999
2430+267924965+267821060+267739615+267471875+267093169+266917104+266962857
2417+266965971+266669961+266317134+266298955+266345515+266167087+266070909
2403+266263125+266548600+266861927+267238464+267382869+267108041+266879911
2390+267012308+267036491+266737118+266475327+266067907+265084896+264100106
2376+263824611+263949391+264216826+264225165+263280764+262639321+263109646
2363+263060250+262342950+262152847+262604103+262844379+262789369+263320708
2349+264224192+264343413+262926492+261212949+260924362+261588041+262479795
2336+263112787+263282654+263932463+265186216+265393220+264873778+264687539
2322+264206402+263453271+263147561+263369630+264130599+265169621+265792439
2309+266065461+266452339+266617286+266388573+266192938+266240137+266411672
2295+266484083+266488364+266659315+266989292+267339339+267595905+267525523
2282+267074017+266786069+267081439+267553848+267675015+267430346+267145956
2268+267065317+267109597+267124358+267068903+266880912+266687251+266825568
2255+267206470+267449943+267432348+267118520+266736118+266830071+267270347
2241+267256949+266861510+266988653+267587566+267717461+267252696+266938229
2228+267035658+267141119+267134114+267162217+266961690+266368614+265977539
2214+266198441+266485695+266360192+266105016+266057428+266210116+266328142
2201+266183793+265966837+265913078+265856122+265795553+265963057+266255008
2187+266368475+266119637+265551635+265137544+265351580+265866657+266056538
2174+265948992+265869520+265875413+265816456+265530787+265245284+265360002
2160+265612037+265460822+264924980+264407457+264336769+264741465+265087370
2147+264993500+264697435+264656934+264970873+265258822+265195194+265066439
2133+265166980+265052540+264633502+264583801+264762813+264467054+263926792
2120+263686793+263661721+263780469+264187778+264570208+264622244+264542911
2106+264451543+264367818+264430667+264640673+264713612+264428583+264057660
2093+263879927+263884013+264014297+264080315+264077757+264230057+264456991
2079+264488763+264316255+264170015+264034867+263802429+263756508+264032004
2066+264280369+264363816+264509750+264677838+264645371+264581938+264696517
2052+264833417+264845092+264674057+264465831+264569402+264838615+265005119
2039+265271775+265599501+265723003+265669049+265562475+265534956+265710244
2025+266041667+266256065+266270185+266389823+266602581+266584013+266434854
2012+266473881+266567168+266334091+266088810+266420984+266987736+267189097
1998+267023788+266604054+266189352+266293146+266890808+267442466+267784757
1985+267971831+267880323+267705453+267837822+268047939+267912151+267715737
1971+268012803+268622307+268952840+268974383+268962375+269031200+269187029
1958+269377744+269724011+270219241+270395890+269986831+269445680+269226723
1944+269247543+269417494+269671947+269829083+269860633+269887762+269986747
1931+270055989+270094711+270154224+270143300+270067720+270080395+270471915
1917+271142349+271499818+271463710+271290146+271150216+271199278+271278638
1904+271169257+271068354+271190800+271436941+271634188+271669129+271681082
1890+271869934+271943068+271736759+271672604+271875494+271992936+271804167
1877+271517942+271530506+271773507+271836773+271777454+272004694+272368445
1863+272492947+272573725+272871013+273127801+273170220+273222728+273393373
1850+273493442+273405743+273303450+273393790+273476347+273290358+273078768
1836+273089108+273146314+273193124+273387175+273695137+273977387+274102056
1823+273992620+273836818+273868006+273991369+273918874+273659918+273566632
1809+273837763+274147782+274130520+273913287+273848465+273962182+273934969
1796+273710231+273647549+274035955+274605153+274956340+275066944+274974519
1782+274689406+274410991+274286517+274139360+273908312+273895886+274148839
1769+274388921+274468503+274314703+274194704+274409185+274719204+274857577
1755+274847626+274785500+274813769+275148472+275695405+276096042+276187133
1742+276079531+276087814+276264325+276321364+276292372+276360669+276458458
1728+276690396+277086252+277373256+277382707+277235577+277128837+277273743
1715+277804914+278471235+278729190+278432375+278151514+278250777+278424675
1701+278616085+278856584+278954679+279124379+279388089+279534718+279440625
1688+279104755+278993206+279328075+279540249+279559791+279489242+279337804
1674+279221863+279109063+279064255+278925048+278335891+277794907+277903454
1661+278125969+277828236+277198496+276560584+276409313+276569535+276377236
1647+275929288+275459242+275146721+274911531+274521484+274178109+274307059
1634+274494827+274357566+274272507+274430644+274709141+275192197+275897961
1620+276456957+276957691+277915741+279027646+279928406+280868359+281759724
1607+282445447+283166054+283965967+284626506+285144863+285670642+286354586
1593+287120919+287637414+288007141+288596520+289291388+289924241+290505336
1580+290889517+291247180+291907775+292512358+292934093+293415898+293758967
1566+293941232+294225483+294335865+294175922+294630763+295489688+295890214
1553+296037205+296199261+296353061+296306057+296198482+296290685+296692128
1539+297437114+297800198+297720337+297814986+297994415+297962504+298018570
1526+298193469+298357276+298729199+299095924+299159718+299153241+299118078
1512+298859150+298475552+298584182+299449779+299887637+299670570+299389682
1499+299188905+299214172+299469543+299512989+299308348+299240830+299297924
1485+299105153+298526754+297671164+296622163+295404074+294151766+292915914
1472+291672835+290600401+289991120+290314621+291581772+292861988+293861288
1458+295290245+296986498+297814374+298348353+299344234+300625228+301715952
1445+302402843+302691653+302650958+302510250+302536713+302653904+302715225
1431+302856544+302946134+302749860+302546914+302402398+302038758+301729517
1418+301799093+301964290+302134741+302373656+302572265+302680451+302857350
1404+303204729+303623045+304288559+305377143+306494580+307199538+307190949
1391+306416748+305020564+302806343+299757324+296738355+294986008+295330940
1377+297600143+300754095+303449870+304961440+305752791+306727073+308476390
1364+311129386+314246173+316995791+318974710+320288533+321110127+321527164
1350+321557046+321214421+320679080+320231910+320047728+320333814+321367554
1337+322914537+324353390+325383350+325966891+326139177+326038524+325882972
1323+325818372+325700652+325329007+324851873+324583243+324714723+325276666
1310+325938816+326331420+326688778+327422283+328486962+329645427+330784212
1296+331933893+333169996+334420663+335632137+336907961+338174306+339371381
1283+340677254+341941459+342862677+343663062+344607991+345539883+346449566
1269+347520971+348545983+349278516+349952953+350835339+351855126+352847032
1256+353675992+354304759+354873345+355459916+356068669+356800840+357603977
1242+358246754+358732839+359205498+359724356+360424255+361219581+361722761
1229+361930460+362255628+362891900+363666907+364403748+365042410+365574138
1215+366101140+366614494+367013908+367468916+368121227+368780710+369303181
1202+369716549+369975200+370165136+370573584+371205103+371884599+372460190
1188+372737548+372913725+373308970+373718808+373807703+373585661+373165982
1175+372240539+370292390+367119286+362874833+358315551+354718877+353077023
1161+353524971+355553230+358500623+361753810+364880048+367500827+369319942
1148+370529693+371409466+371826114+371567797+370447775+368300907+365393958
1134+362503188+360573497+360303894+361864831+364919993+368778819+372591698
1121+375616894+377497718+378335963+378650457+379045035+379706852+380533200
1107+381461812+382779248+384902767+387637541+390497374+393225977+395763726
1094+398286576+400899767+403388427+405500966+407272576+408952317+410699689
1080+412441695+414010082+415348310+416529429+417726199+418907874+419894054
1067+420891547+422053209+423268964+424600187+425932689+427140383+428375818
1053+429585040+430670927+431747920+432907747+434030605+435009946+436128856
1040+437430615+438570957+439696427+441027928+442324044+443537880+444904406
1026+446273238+447304921+448364930+450007201+451813585+453087102+453955172
1013+454903715+456081777+457501200+459102582+460559781+461686974+462690777
999+463922932+465484314+466965335+468076935+469070508+470170100+471387717
986+472661039+473822062+474980860+476413737+477785127+478683413+479430094
972+480346726+481099411+481182079+480435454+478748124+475316981+468695694
959+458623613+447582502+439632188+438184107+444112137+454998308+467007086
945+477545461+485902778+492243704+496899080+500366915+503194420+505754407
932+508141052+510388212+512575553+514499435+515970171+517291359+518855827
918+520606367+522211139+523608380+524967206+526399638+527960380+529586168
905+531170927+532705540+534274900+535925649+537532089+538905981+540046100
891+541287845+542772646+544181284+545448936+546750944+548034718+549347957
878+550944724+552693429+554264624+555682712+556975548+558346159+560100702
864+561859526+563180659+564279082+565592154+567058498+568331598+569612092
851+571149318+572800290+574399392+575849614+577140337+578295355+579524314
837+580959414+582304619+583328658+584220384+585247147+586178400+586365029
824+584979630+581478661+577085966+575090591+578011549+584689985+591904848
810+597623401+601409844+603796656+605671838+607514386+609279436+610814716
797+612236474+613780538+615497611+617195281+618519138+619492531+620678071
783+622210071+623705991+625042579+626402461+628033474+629880303+631645853
770+633255240+634818763+636293390+637644488+639241978+641251864+643242347
756+644932734+646617785+648497025+650151165+651525334+653165243+655074726
743+656950852+658883796+660828581+662581678+664370244+666357447+668268153
729+670134662+672362142+674730997+676612572+678053677+679556490+681388142
716+683431384+685492860+687538437+689567224+691586172+693662269+695746261
702+697638121+699425409+701267178+703053910+704902518+706952486+709162510
689+711573394+714105417+716460096+718454192+720472028+722868958+725333657
675+727711463+729836261+731270861+732877412+736181523+739258144+741705887
662+743951491+745769299+747587330+749867068+752494768+755131975+757546973
648+759835718+762152926+764473637+766859782+769479977+772113681+774633418
635+777493167+780833247+783935997+786363059+788692887+791293569+793878684
621+796205733+798431211+801064860+804075380+806919841+809538590+812249014
608+815021592+817403400+819412285+821518293+823928510+826591067+829296321
594+832163575+835298069+838119236+840401976+842591763+845237087+848435903
581+851542378+854336359+857185879+859992870+862719916+865724098+868891114
567+872143690+875445132+878345576+881184088+884201057+886848548+889173429
554+891779614+894976707+898301388+901414534+904379967+907335448+910463438
540+913326467+915861937+918582201+921595723+924747896+927657679+930322461
527+933247866+936362457+939008615+941209243+943464353+946067481+949325282
513+953026500+956360798+958671725+960409256+962537278+965209898+968455469
500+971304210+972667595+974011854+976685253+979783611+982141125+983931915
486+986057825+988512628+991045930+993961162+997179046+1000310538+1003049982
473+1005173780+1006488241+1007217966+1008127594+1009925722+1012859522
461+1016247079+1019111276+1021124775+1022418445+1023620162+1025663126
449+1028644514+1031162250+1032329276+1033304504+1035321895+1037853418
438+1039512228+1040496351+1042308155+1044452744+1045276090+1045138773
426+1045601981+1047003947+1048521438+1049971549+1052115471+1054534027
415+1057048983+1061261109+1066000487+1067366651+1065780446+1065267315
403+1066883540+1069664902+1073741823
##END=
