##TITLE=павел 1-многокр
##JCAMP-DX=4.24
##DATA TYPE=INFRARED SPECTRUM
##DATE=2/2/2015
##SAMPLING PROCEDURE=Instrument type and / or accessory
##ORIGIN=Default
##XUNITS=1/CM
##YUNITS=TRANSMITTANCE
##RESOLUTION=4
##FIRSTX=3996.3347
##LASTX=399.24773
##DELTAX=-1.928733
##MAXY=1.1515846
##MINY=0.19288047
##XFACTOR=1
##YFACTOR=1.0724968e-009
##NPOINTS=1866
##FIRSTY=0.32751077
##XYDATA=(X++(Y..Y))
3996+305372274+305858227+306550338+306652819+306219107+305839276+306038209
3983+307453274+309072969+308430710+306199406+305826382+307037902+307168588
3969+306847750+306957095+306258955+304967600+304319478+304015340+303386086
3956+302516911+302029235+302254150+302557676+303128715+304231946+304957208
3942+305408065+305659739+305440826+305689027+306642871+307308778+307046517
3929+305964043+304813461+304498903+304372052+303196767+301862897+301518357
3915+301746772+302519384+304142858+305618974+305658183+304387224+302800486
3902+302082366+302791593+303711008+304016063+304253454+303856755+302532361
3888+302037099+302755275+303547033+304266181+305006225+304927641+303892685
3875+302960960+303257178+304280186+304333010+303676329+303567762+303940925
3861+304318116+304471977+304435131+304384585+304134355+303651931+303357575
3848+303550145+304275767+304909691+305173675+305474005+305248563+304461001
3834+304001863+303290051+302242507+301786814+301769975+301427296+300904330
3821+301469645+302786425+302667465+301535724+301928949+303173703+302959432
3807+301473313+301078003+301682444+301338903+300806822+301593523+302227418
3794+301631342+301390755+302511770+303081281+301454278+299358661+298885241
3780+299647154+300249732+300275103+300151919+299949124+299401315+298924532
3767+299449444+300612113+301424434+301747634+301531222+301016092+300939926
3753+301322036+301489179+301567124+301849587+301309865+300079671+299749913
3740+299839724+299381447+298515663+298264072+299010202+300094621+300774422
3726+300440468+299041880+297429132+296528224+296622953+297481651+298458698
3713+298678221+298373195+298649489+299199159+298922059+297860621+297466145
3699+297816188+297531030+296656743+295972079+295329736+294135333+292788292
3686+291926843+291577522+291474596+290894609+290313872+290919618+291980473
3672+292453838+292325903+291607728+290610035+289718796+289492909+289910115
3659+290087541+289836839+289560462+288809997+287587222+286703821+285910757
3645+285085570+284600979+284552072+284977976+284872994+283440672+281984285
3632+281290813+280281672+279121559+278776323+278334775+276886308+274978065
3618+273699465+272693241+271493364+270379685+269363846+268479110+267562863
3605+265983099+263414229+261258590+261349623+262198763+261474474+259834660
3591+258605717+257351820+255544919+253605636+251685750+250186709+249444970
3578+248672580+247575073+246346324+245050302+244560041+245000395+244955267
3564+243982917+242686255+241571742+240855539+239895721+238333741+237135809
3551+236930541+237008124+236603673+235295618+233394043+231816419+231016380
3537+231103662+231381706+230841637+229486190+227641636+226103456+225027526
3524+223403635+221884685+220921754+219191186+217312912+216897776+217220545
3510+217145573+216913518+216484391+214925078+212390539+211070939+211849400
3497+212515890+211655511+210228385+209083333+208353681+207600076+206396614
3483+205127434+204142218+203433060+202604177+201090701+199431089+198256888
3470+197105500+196377891+196727934+196827025+195734478+194550204+194091830
3456+194016553+193554275+192111366+190335351+189343938+188950171+188412630
3443+187868712+187640615+187323654+186802647+186726480+187097378+187232079
3429+186888886+186042067+184895042+184433542+184932111+185041984+183956662
3416+182693332+182738973+183766607+183989882+183359488+182898378+182201418
3402+181167003+180898629+181317850+181489689+181508001+181415093+180684885
3389+179842470+180063981+181432085+183039512+184125140+184636213+184950354
3375+185076997+184729427+184201681+184060116+184228427+184541859+185347942
3362+186473403+187230009+187832171+189006400+190586900+191576965+191555027
3348+191147394+190813176+191054221+192491406+194074046+194338030+193876906
3335+194070031+194896940+195557984+196251442+197088717+197176859+197003964
3321+198135677+200170967+201500821+201836164+202121017+202720706+202924918
3308+202889336+203446745+204226276+204772779+205123516+205401158+206237126
3294+207843553+209405602+210079776+210067146+210145494+210722369+211867782
3281+212927108+213285029+213543552+214158455+214683783+215035104+215826514
3267+217162024+218228117+218586107+218850563+219753236+220864803+221245969
3254+221529585+222751428+224214150+225091550+225541462+225882946+226339041
3240+226867259+227638940+229121919+230777391+231619556+231815821+232026717
3227+232746949+234167211+235431889+235793103+235757673+236088820+237158011
3213+238787293+240354025+241374671+241799379+241855872+241919506+242534589
3200+243529753+244151478+244739523+245828943+246686002+246973690+247488347
3186+248484734+249524776+250420821+251256901+251962349+252374581+252957819
3173+254113736+255141079+255424514+255496179+256052991+256946397+257954927
3159+259067634+259576011+259249394+259236889+259956287+260608856+261059824
3146+261666987+262283960+262791949+263323335+263804453+264143464+264361792
3132+264231718+264102894+264882786+266039786+266255698+265584567+265383077
3119+266403695+267441431+267323444+266876866+267459771+268750319+269233382
3105+268784498+268415504+268429982+268650283+268920909+269258503+269619661
3092+269848632+270029225+270224517+270429258+270703746+271180307+271621354
3078+271384880+271036143+271619854+272258668+271980012+271765240+272319328
3065+273042145+273582200+273545632+272413974+271223155+271349173+272241717
3051+272813284+272976010+272969535+272914376+273042950+273462407+273695186
3038+273393688+272978788+272741620+272514843+272258418+272160243+272270644
3024+272234826+271828235+271270117+270891147+271013330+271297432+270865665
3011+269673263+268459437+267720198+267338671+266943835+266301631+265388691
2997+264403530+262987797+260312166+256402061+251672023+246042437+239209640
2984+230760469+220697910+210029146+200029207+191532380+185255492+182237098
2970+183701362+189712376+198586187+208558463+218541743+227464947+234554823
2957+239928205+243996449+247002478+249144194+250051744+249670078+248977495
2943+248070668+246372473+244412599+242987113+242372753+242644601+243383173
2930+243865180+244048913+244444472+244836085+244863873+245208303+246187573
2916+247066529+247331430+247484401+248101374+248395925+247828609+247195853
2903+246951237+247076838+247410931+247491293+247145112+246676638+246311090
2889+245865290+245147809+244331404+243913614+244346826+245496713+246612337
2876+247254624+248040908+249585492+251397146+252572014+252933839+253174398
2862+253850614+254825548+255898852+256873148+257424652+257882790+258951508
2849+260557949+261970069+262579817+262581984+263000468+264052514+264616829
2835+264501593+264564171+265035063+265808592+266364848+266181977+265942668
2822+266363709+267130874+267690215+267918658+267956422+267743706+267354844
2808+267284596+267613465+268006718+268254085+268127900+267897790+268174195
2795+268835239+269318385+269393607+269203844+269085579+269169220+269031337
2781+268677210+268620328+268646226+268480333+268305214+268328028+268540299
2768+268654924+268908432+269405305+269483139+269212653+269189200+269430648
2754+269904319+270322108+270109615+269678154+269645642+269728422+269725171
2741+269662037+269332335+268797697+268505286+268652812+269041535+269362207
2727+269213320+268464438+267805923+267945890+268405306+268531740+268706303
2714+269195758+269375378+269097722+269182058+269587038+269510510+269157272
2700+269089303+269223907+269235772+269126233+269092331+269188755+269540410
2687+270038978+270287040+270269728+270423728+270802115+270728171+270107197
2673+269543188+269173527+268864555+268635695+268643809+268674459+268296822
2660+267892871+267841769+267920798+268205901+268689909+268994880+269159800
2646+269531879+270019555+270290013+270391578+270450821+270455851+270370042
2633+270082077+269895177+270112838+270193423+269916601+270055345+270669261
2619+270734062+270020638+269437095+269462354+269573811+269535658+269757238
2606+269916101+269535547+269127316+269110588+269306409+269574561+269932273
2592+270282066+270344561+269936136+269322414+269029059+269213903+269628275
2579+269796863+269513483+269189339+269035533+268961451+268930940+268807618
2565+268667678+268752181+268972094+269093943+269123676+269076909+268940138
2552+268794113+268552303+268182198+267928523+268100529+268667039+269096611
2538+269157105+269015026+268756460+268680238+268773717+268589039+268487113
2525+268839685+268871557+268359401+268247971+268666178+268750097+268367042
2511+268110589+268210597+268456074+268568865+268489058+268264728+268009691
2498+268122454+268600015+268856802+268741566+268473192+268160106+268257447
2484+269100168+269836239+269407890+268207096+267515513+267772439+268261865
2471+268316191+268075965+267919020+267915101+268079244+268337115+268221712
2457+267675237+267512762+268001688+268485279+268620773+268417588+267895011
2444+267350759+267123788+267168693+267278205+267364458+267389078+267438763
2430+267488920+267442542+267547108+267728201+267562724+267211014+267001856
2417+266902959+267008052+267344423+267484113+267316219+267147714+267003273
2403+266796587+266537883+266306244+266205791+266277539+266621190+267103614
2390+267304298+267124205+266719893+266199149+265844911+265901236+265864751
2376+264820319+263223326+262841689+263552084+263610021+263431957+263627083
2363+262788864+260891152+258953454+258162752+259714367+261896542+262841994
2349+263231746+263654565+263357014+261938974+261122541+261224439+261358376
2336+261969402+263357986+265165582+266565309+266560474+265631111+264831545
2322+264388108+263980655+263634086+263959036+264879257+265584483+265709556
2309+265588874+265877756+266611187+267049873+266932025+266584149+266111729
2295+265790974+266216294+267183421+267897845+268103614+268016027+267843576
2282+267554610+267165442+266958729+266907127+266683630+266393914+266550860
2268+267219684+267710694+267545190+267112062+266911962+267050484+267383160
2255+267544357+267438430+267300741+267226103+267225631+267098140+266750293
2241+266655620+266927106+267049928+266983238+267143295+267517069+267643504
2228+267356622+267107394+267114479+266990852+266637835+266439430+266562530
2214+266720643+266651201+266466357+266409670+266447128+266308911+266074215
2201+266071909+266181643+266015055+265686020+265673904+265920799+266001106
2187+265918604+265984794+266218851+266258171+266009776+265887898+266163525
2174+266552332+266515291+265956451+265447545+265376825+265576869+265888398
2160+265994965+265673154+265478667+265697746+265808620+265681157+265582288
2147+265369434+265049818+264940223+265011110+265248612+265695662+266080190
2133+266063184+265534604+264955284+264802285+264793587+264586290+264450463
2120+264652731+264887399+264872616+264786751+264766522+264690633+264509568
2106+264356263+264263229+264202707+264298686+264585707+264813789+264739818
2093+264600851+264708890+264801673+264705528+264721061+264843911+264802868
2079+264755546+264870726+264916242+264844994+264836241+264942113+265072299
2066+265092834+265059405+265064629+265041149+265013861+265101059+265240415
2052+265363876+265490199+265365377+265002468+264929664+265114258+265178754
2039+265255392+265519766+265892261+266221407+266278678+266059043+265959035
2025+266131903+266200900+266195426+266522544+266866807+266812176+266643587
2012+266644393+266725756+266761741+266964926+267433900+267812509+267994519
1998+268094916+268104642+268208513+268580063+268827847+268553776+268125983
1985+268022390+268207957+268466856+268617216+268531991+268373322+268474887
1971+268722031+268741122+268624830+268696189+268959839+269346757+269799920
1958+270030892+270024501+269997686+269848299+269696911+269864082+270141960
1944+270214792+270173805+270128205+270101029+270182419+270298516+270371320
1931+270510204+270815258+271270978+271581062+271450154+271151991+271115116
1917+271223572+271142098+270924520+270947028+271433092+271936579+271993016
1904+271932328+272022277+271993933+271739314+271458740+271392744+271633609
1890+272039533+272348728+272419448+272348200+272291096+272346727+272501283
1877+272635248+272676763+272576838+272466909+272629857+272852937+272876835
1863+272947833+273157742+273384212+273565389+273659173+273631024+273477413
1850+273379211+273470632+273543325+273521345+273640249+273844656+273899481
1836+273766017+273498698+273201230+273133122+273386908+273722445+274037726
1823+274233796+274146571+273922712+273781383+273770963+273894646+274066375
1809+274125785+273970674+273722029+273681514+273904983+274070404+274056566
1796+274045590+274088244+274240771+274385518+274333555+274332193+274490250
1782+274667925+274821119+274786746+274634163+274641277+274793248+274878696
1769+274891784+274915542+274841599+274689739+274681819+274792804+274896591
1755+275029861+275255026+275610404+276072320+276438842+276474327+276253691
1742+276144013+276319521+276497724+276495862+276610904+276946830+277171772
1728+277264250+277334665+277379042+277336387+277249356+277364092+277803861
1715+278163880+278177468+278063594+278101524+278383181+278799526+279060120
1701+279128506+279096244+278905064+278808196+278892810+278961446+279066789
1688+279285812+279730084+280190500+280109832+279723859+279422334+279324410
1674+279296650+279302013+279414275+279333969+278918458+278487941+278256858
1661+278078183+277765876+277327134+276879750+276762153+276654475+276185111
1647+275781104+275601178+275352728+275037781+274729920+274485443+274536461
1634+274792776+274969645+275160075+275446734+275806391+276175524+276594509
1620+277220234+278117002+279245159+280257857+281018687+281594228+282043612
1607+282636854+283369479+283957636+284455315+285085515+285825754+286492661
1593+287064645+287677505+288422746+289345356+290213697+290661581+290787182
1580+290895193+291293336+292242401+292979667+293058167+293226645+293836892
1566+294365333+294493435+294252292+294312675+295471788+296519526+296712624
1553+296514580+296450891+296602612+296566766+296466424+296680835+297179626
1539+297687336+297770811+297708677+297983749+298231672+298131163+298173901
1526+298489181+298661382+298684446+298807740+299059025+299341016+299483595
1512+299452473+299330234+299370388+299860620+300173650+300065944+299874903
1499+299693893+299665883+299646598+299450111+299250650+298953682+298576073
1485+298400455+298200382+297607363+296620730+295412238+294226533+293179350
1472+291956659+290618426+289784042+290062115+291425634+292866737+293925841
1458+294988502+296236452+297404345+298532947+299667495+300825079+301915861
1445+302554397+302703395+302631841+302542003+302673801+302897215+302808044
1431+302565651+302440356+302351518+302285439+302308141+302351740+302391838
1418+302351157+302152641+301887517+301799041+302079865+302540753+303006532
1404+303526053+304049742+304587019+305178121+305874455+306766888+307299135
1391+306802567+305291606+302851754+299668440+296514080+294570073+294784067
1377+297056025+300277937+303023955+304522079+305216801+306121516+308001889
1364+310964679+314326642+317158690+319175084+320416337+321023306+321277370
1350+321301017+321127899+320775050+320309076+320137987+320692520+321919296
1337+323372931+324602263+325350978+325757374+326083492+326267336+326223542
1323+325997211+325676595+325399968+325169329+324987124+324987819+325210149
1310+325561526+326002991+326571779+327306572+328299763+329530846+330766486
1296+331896754+333066426+334437059+335893723+337188023+338373784+339537232
1283+340566603+341548485+342663998+343819248+344801852+345680197+346682891
1269+347758418+348739494+349593274+350373250+351165702+351980357+352747856
1256+353476452+354281576+355084004+355740268+356354101+356965543+357534804
1242+358143357+358849334+359506210+359995969+360585404+361331201+361841385
1229+362112371+362486090+363057712+363752574+364512765+365284349+365967928
1215+366486865+366881591+367221130+367658677+368304104+368925078+369359151
1202+369791974+370314746+370812925+371217349+371555665+371943333+372435594
1188+372864999+373138681+373369736+373615908+373738452+373529710+372930883
1175+371833960+369876477+366684409+362417676+357967544+354430963+352724431
1161+353181012+355301360+358231333+361301579+364262730+366974541+369103587
1148+370477999+371269145+371583731+371266728+370013026+367631167+364671572
1134+362064438+360247477+359657792+360940532+364100255+368325556+372441374
1121+375393938+376935077+377663618+378216011+378817367+379440758+380192279
1107+381374622+383168575+385452509+387908728+390375173+392956521+395714126
1094+398453364+400959406+403210551+405248425+407132771+408905243+410555672
1080+412099312+413623167+415223244+416872811+418421119+419616494+420390885
1067+421100474+422021306+423140515+424537991+426126203+427501087+428618268
1053+429775130+430994958+432119030+433252967+434562161+435823644+436825755
1040+437777932+438930042+440197499+441405795+442610674+443817776+444967802
1026+446077647+447162593+448435163+449977303+451464367+452679110+453794540
1013+455078642+456451721+457776504+459108484+460331619+461471003+462770527
999+464191067+465613468+467004331+468256671+469416145+470674766+471963675
986+473183559+474452961+475707469+476807755+477758709+478536434+479196227
972+479902259+480576947+480806141+480242215+478461518+474463465+467236137
959+457064553+446294975+438677478+437487966+443417549+454119185+466170697
945+477046341+485702962+492161846+496807466+500271882+503237673+506016342
932+508561871+510771279+512628726+514189011+515622861+517100505+518704806
918+520439931+522257865+523994435+525407612+526665454+528071016+529625021
905+531260166+532749425+534063788+535575722+537371481+539129615+540512336
891+541585278+542766982+544136031+545432332+546767313+548431747+550165205
878+551644905+553039352+554406123+555681472+556988054+558337707+559692085
864+561160503+562823936+564404284+565646787+566794701+567995523+569213406
851+570573063+572214711+573999243+575498951+576740343+578106002+579613212
837+581000879+582089494+583100080+584311017+585560801+586395491+586308682
824+584698990+581094690+576578062+574485252+577475608+584308238+591650941
810+597502996+601489044+604062750+605963769+607691892+609525608+611402452
797+612913052+614110984+615429960+616904880+618392139+619826934+621209377
783+622518793+623748848+625070380+626571421+628238189+629962755+631634802
770+633292567+634813615+636105470+637456791+639144621+641050086+642961331
756+644768093+646471708+648196441+649819304+651369307+653262267+655353799
743+657147113+658759194+660486372+662214995+663868814+665650734+667644120
729+669694526+671837298+674137239+676240164+677983625+679748651+681772436
716+683862745+685838736+687741255+689649832+691529954+693399628+695262967
702+697032383+698954798+701172987+703326208+705220891+706986694+708965519
689+711323647+713744909+715951149+717978491+720154887+722680019+725219324
675+727495144+729332696+730407528+731566779+734921878+738530512+741252216
662+743599229+745684369+747873381+750333046+752956214+755479346+757568043
648+759467228+761636566+764043934+766628977+769466056+772387220+775138045
635+777592930+780092109+782860885+785501059+787964225+790522370+793234459
621+795775264+797926595+800337409+803278303+806241149+809165370+812084367
608+814638788+816782727+819041375+821438017+823733678+826311719+829264061
594+832316995+835246663+837815311+840144151+842524620+845397378+848610759
581+851186077+853189688+855546649+858449640+861664966+865151223+868618473
567+871786504+874777805+877608548+880404556+883435649+886799140+890053924
554+892788466+895468655+898271165+901008041+903653717+906486072+909794042
540+912788844+915091897+917487427+920488732+923895404+927081331+929783639
527+932381686+935309242+938176832+940571473+943038473+945915288+949060089
513+952418967+955638683+958340435+961005730+963864983+966318645+968647374
500+970965543+972756300+974599965+976924692+979406809+981863361+984001243
486+985672179+987485388+990471576+994341527+997437532+999427583+1001660944
473+1004350803+1006321180+1007862736+1010015067+1012296334+1014056747
461+1015702451+1017641817+1019938646+1022629171+1025271791+1027394890
449+1029119400+1030373186+1031076550+1031916965+1033647255+1036017554
438+1037918240+1039040755+1040569084+1042668174+1043628410+1043540600
426+1044246521+1046017604+1048234292+1050393515+1052151705+1053903781
415+1056237734+1059014291+1060871627+1060960992+1060451587+1061204080
403+1064214610+1069120823+1073741823
##END=
