##TITLE=павел 10-многокр
##JCAMP-DX=4.24
##DATA TYPE=INFRARED SPECTRUM
##DATE=3/2/2015
##SAMPLING PROCEDURE=Instrument type and / or accessory
##ORIGIN=Default
##XUNITS=1/CM
##YUNITS=TRANSMITTANCE
##RESOLUTION=4
##FIRSTX=3996.3347
##LASTX=399.24773
##DELTAX=-1.928733
##MAXY=0.86720937
##MINY=0.3231898
##XFACTOR=1
##YFACTOR=8.0765167e-010
##NPOINTS=1866
##FIRSTY=0.66806144
##XYDATA=(X++(Y..Y))
3996+827165301+824260904+822737452+825976162+831352266+834938501+835711112
3983+835500192+835547941+834295408+833222209+835753842+838339423+836497967
3969+833312540+831912408+830415081+830391686+834355629+836754274+835384105
3956+834532453+833886483+832214545+832510040+835385950+836178856+835132668
3942+835344327+834101167+831719052+830896699+831136918+833981463+838484662
3929+838189388+832635057+828950743+829674277+829772357+828472445+829984827
3915+832031447+831243116+831297802+831406067+826571728+821351268+824293671
3902+832968854+839764574+841821305+837635815+830832272+829722911+832266500
3888+830410653+831416915+838211897+839947155+840176894+839566495+833354385
3875+829026166+825620742+823627110+829843574+833416746+830765631+830045712
3861+831809309+829845862+819130775+812687966+834263158+859300009+855513776
3848+840633568+828085217+822283213+823298110+824776028+826300587+829746454
3834+831784956+832758598+833189073+833105310+833141694+828649860+825929816
3821+835014072+838087323+833472391+836904679+838038393+830239732+823340840
3807+826610842+830174936+823140621+821995910+829048970+830385635+830286300
3794+830345561+828146766+825362442+822652139+821796429+822468082+822221516
3780+824130869+826712759+823569177+818599711+817094635+820123679+824661711
3767+825285247+824093747+822435832+820031134+821063300+822663209+817916618
3753+810849462+813850315+823539952+821206103+818422812+830022982+832676975
3740+822510074+820178144+829245942+836331622+835055326+828907127+825148053
3726+827831788+828663292+823357962+820286039+820276298+816507040+806750983
3713+799929064+804513073+809679217+806946774+801860925+802012141+806707072
3699+806324050+799516374+791112628+783064006+777246357+778100739+782209993
3686+779050397+770413663+762211243+754052807+746370012+749270940+759588098
3672+760388606+761509996+766872373+762430945+752244266+744970544+740649262
3659+739160127+742301643+742669461+732467948+723588413+729529161+736705983
3645+730674536+720966744+716869298+716097276+714074494+711119249+705041750
3632+694929240+693614567+704266777+703277563+690373791+680315449+678418643
3618+680841052+677940198+669839105+663237995+660469465+661862586+662953202
3605+658472733+651535834+646779576+643212751+638449998+634613286+632859210
3591+629767287+626010796+625252428+623997829+619475369+614808224+610694615
3578+606588276+602344705+596793622+589508018+582802998+581484673+584699583
3564+584539289+580124687+575090609+570476674+566116721+561437657+557161873
3551+554410021+553486673+554140061+552797566+547449137+541499422+537658246
3537+536048374+534759348+531578423+527958536+526626668+525989664+523831458
3524+520867874+516544969+511814725+509592646+507946501+503423487+497979745
3510+495784714+496876694+497955317+496633376+492644489+488526268+487344842
3497+487935979+487159346+483490308+477529376+473451191+473048428+472058365
3483+469062530+467241849+467992431+469878831+470463696+467082994+460153475
3470+453798562+450870402+451335416+452651121+452046294+449187431+444951352
3456+441241170+438830311+436722400+435355330+435616729+436871476+437492835
3443+437119887+435713370+432437354+429157205+427980613+427491983+426391220
3429+424550797+421865328+419506867+419255283+420739658+420615969+418274740
3416+417016488+416242658+414111538+412513990+412653841+413768884+414528581
3402+414266702+412864577+409901878+406778001+405503992+405896054+406257674
3389+405627201+405181523+405859966+406020703+403700654+400935739+402301370
3375+406840915+408554144+406657375+404976544+404082679+402930994+401371159
3362+400159880+401451305+404752598+407430614+408765396+408640379+407946660
3348+407549136+405690226+402477088+401665879+404464151+407529247+408428130
3335+408050939+408222229+410165197+412938488+414225263+413056789+411208432
3321+411629203+413623425+414552898+414925366+416037864+417560024+418829199
3308+419859557+422021858+425416581+427323793+427299993+427238665+427542499
3294+428710531+430305053+431095967+432556061+435928756+438747840+437907885
3281+435591010+436549708+439949044+442214666+443184766+444613422+447421510
3267+450469558+451742607+451379696+451252944+452515292+455139913+458838766
3254+463122041+466292376+466815728+465898247+466307283+468580174+470819744
3240+472485999+474012071+475003905+476408871+479317917+482784153+486083638
3227+489107258+491605239+493623556+494923173+496247255+499611646+504577644
3213+508190041+509568808+510491049+511870628+513490869+515950215+519840985
3200+523994999+526804046+528396944+529472025+530606588+533223423+537411754
3186+540869614+543063686+545339713+546968957+548152229+550540911+553111105
3173+555533809+558818608+562389012+565707020+568229465+569650299+570962462
3159+573434760+577403794+581606812+584936075+586999373+587647706+588080505
3146+589366543+591970316+595915070+599202046+600524393+601695893+605424783
3132+610913690+614025391+615150397+617700591+620630855+621746193+622181982
3119+624534207+628763534+632447111+634581257+635222948+634945903+634998817
3105+636073049+638835750+643290683+647292485+648955345+649379621+650803960
3092+653536182+656021764+657722262+659543201+661500597+663513122+665488967
3078+667156256+669685011+672438782+672803427+671686465+671663587+672833906
3065+675024658+678093112+680424747+681243557+680657733+679616121+680556554
3051+682909148+683760652+684017549+685546832+686500253+686056125+686217526
3038+686688295+685691332+684178802+683842644+683786260+683436227+683499179
3024+682636605+680362681+679005279+679322323+678855686+675750849+671632148
3011+667834551+663512900+658473102+653097146+647118465+639958985+631062329
2997+620365913+609039024+597238561+582526433+563123358+539895454+514885836
2984+488895415+462697396+439575617+422669674+413322616+412576573+420371728
2970+434598881+453635022+477361961+503718465+528679155+549776455+566573210
2957+579327869+588593526+594541321+596946572+596753696+594881945+591216265
2943+586173626+580154798+573539260+567849359+564958320+564605298+563888405
2930+562085768+561872671+564197037+567745338+571109324+572707240+572817313
2916+573911470+575704440+574774671+570666192+566527085+563431215+560253906
2903+557323753+555087578+553073098+551737504+551736876+552197056+551706766
2889+550643383+550289475+550722717+552018017+554314671+557011321+560217227
2876+564290836+569265986+575879789+584233278+592560863+599717612+606690636
2862+613660745+619739720+625343793+630575397+635211509+639832197+644556648
2849+649412536+653925181+657844843+661892180+665099378+666802754+668594395
2835+671398276+674757059+677241387+678486318+680407773+683586927+687116409
2822+690907955+694157587+696062880+697548621+698915839+699918116+701210205
2808+703309001+706409189+709448787+711349505+713502618+716797490+720342323
2795+723258601+724435046+724059035+724851720+727627262+729076029+728249691
2781+728291905+729884360+731078221+731175637+731177261+732332968+733682621
2768+734029702+734579069+734994932+734004315+733248973+733615390+734084979
2754+734655452+735383562+735724370+735633006+735581125+735526144+735427916
2741+736079570+737203985+737621250+737351954+736895133+736697496+737478300
2727+738645889+738718065+738528030+739625066+740946011+741747922+743394841
2714+745854667+747579814+748396263+749091163+749750197+749944586+749858756
2700+750237940+750991585+751782721+753357833+755637144+757430114+759262492
2687+761374278+762190431+762417735+763432041+764044064+763901114+763772776
2673+763673293+764152550+765542498+766609498+766153488+764805606+763807535
2660+763274110+763529310+764727009+765749655+766336733+766889716+767640335
2646+769021944+770230344+770333295+770420010+771462656+772458291+772832752
2633+773089871+772679469+771787671+771983240+772797844+772567219+771624720
2619+771441180+772410468+773826394+774400188+772897695+770343553+769630277
2606+771041996+772295045+772964632+773491195+773122269+772092243+771512249
2592+771895197+772762051+772901754+772376816+771953278+771792541+772234455
2579+772625890+771876083+770921185+771036313+771570846+771462877+770655727
2565+769889979+770343480+771243544+770865909+770290344+770378756+770226285
2552+769752785+769124674+768897591+769473231+769396184+767927639+766939310
2538+767395246+768008154+768321730+768376342+767744098+767177684+767192813
2525+766907354+766173783+765536373+765336892+765855779+766492082+766609424
2511+766559092+766671416+766917465+767010896+766938867+766910011+766959088
2498+767377681+767782105+767467644+767252959+767862768+768919805+770691668
2484+772570393+772787734+771885898+771500294+771607894+771533430+771425460
2471+771997410+772838213+773178283+773801966+775018927+775688514+775829693
2457+776314780+777432849+778804421+779029290+778188561+778154982+778705382
2444+778144428+776501420+775551099+776060613+776705772+776644223+776578320
2430+777005105+777133738+776280980+774958190+773656875+773137176+773415181
2417+772236374+769827913+769219728+770209606+771281624+772653049+773575327
2403+773137103+772487220+772815778+773501453+773514811+773249721+773229869
2390+772984410+772514969+772131800+772138811+772942123+773712299+774375244
2376+777118388+781507713+784385394+786665739+793351201+806637331+821365585
2363+831456251+836754865+836863056+837052131+842630964+843453243+830644673
2349+810560757+795350811+796479802+812092106+825063774+830322241+827176961
2336+820491203+819171439+821325511+819911800+815910884+814655768+816511394
2322+816378628+811265915+805252180+801660706+799921979+798627823+796220322
2309+793077108+790404886+787611780+784750040+783010649+781969037+780536875
2295+779013128+778003913+777538826+776897062+775361728+773695694+772785815
2282+772097852+771190186+770609381+770235953+769429615+768512060+767880480
2268+767865499+768646302+769170872+768489773+767270081+766423005+765604712
2255+764876306+764945457+765455783+765996368+766098286+764838004+762853376
2241+762251095+763227099+763668644+762826882+761512431+760653990+760966312
2228+761422248+760854062+760284991+760893176+762047481+762548508+761909401
2214+759994662+757458158+756318096+757723542+759766029+760227722+759341753
2201+758204201+757414689+756798903+755944964+755020103+754435829+754546824
2187+755170138+755662384+755739505+755697734+755769836+755907104+756355882
2174+756869972+756572337+755756700+755940978+757113217+757160153+755557957
2160+753948085+753262705+753167872+752884111+752205004+751552539+751424348
2147+752050024+752577546+751914528+750610925+750317128+750922878+750921476
2133+750497864+750318309+750127167+749844439+749792410+750469820+751254313
2120+751143540+750769152+751040662+751719696+752094378+752207366+752432529
2106+752193122+751167525+750463768+750806348+751513203+751791651+751530768
2093+751509882+751939915+751888698+751559624+751660582+751978955+752084267
2079+751884934+751682353+751530989+751423537+751396009+751285235+751131436
2066+751017342+750978228+751244129+751876742+752243970+752298730+752887654
2052+753976129+755040914+755573676+755237075+754687486+754329409+753695394
2039+753179975+753629417+754478780+754896562+755134567+755326004+754912945
2025+754283358+754488300+754651989+753885872+753571041+754318487+754951690
2012+754988738+755029402+755142980+754734423+754100703+754073840+754268081
1998+754052807+753729563+753873104+755086892+756324000+755721350+754164909
1985+753459972+753626612+753517610+752309726+750554026+749463041+749560162
1971+749989235+749977943+750570335+751975191+752107145+750773359+750189749
1958+751063614+752144119+752244266+751542428+751081400+751214314+751442356
1944+751528037+751582723+750696755+748671020+747031776+745845958+744090332
1931+742260241+741115677+740204470+739842333+740719593+741342760+741643864
1917+742970787+743633658+743117648+743462147+744895784+745945293+745755923
1904+745242792+745688396+746262338+745911271+746221305+747776417+748654784
1890+748807402+748501649+747494059+747080853+747174579+746748901+746085365
1877+745755554+745481239+744403539+744236308+747287271+749847613+748452868
1863+746260050+745531054+745342274+744954308+744486785+744466859+744611359
1850+743908267+741764674+741275528+745652750+748470137+746075402+743595060
1836+742981340+742175445+740999885+741560765+742369096+741642830+741434050
1823+740657527+738786920+738487735+739309793+738576443+736977641+737137492
1809+738003534+737585015+736439639+735877432+737134540+738951347+738196447
1796+734943641+733743949+736958453+738452902+735915586+734029629+733443141
1782+732168394+731195194+730423985+727603942+724986996+727661948+731784930
1769+732144926+730970769+728503858+726787936+727192064+726785500+727010074
1755+726766829+724334604+725286845+729369900+729568275+726624469+723964424
1742+723480149+724800356+722160163+718266773+723627822+730090409+728186961
1728+724543311+721652788+719569490+716922434+713147124+714296263+721037297
1715+723202144+719797310+715341048+711630756+710637852+709778526+704931936
1701+704081465+709210783+709356021+708471824+705809860+698986539+693002471
1688+686993901+685085656+692883431+695182152+687647178+679892133+677126849
1674+677052090+674270201+673027853+674916098+672288968+667936026+667481640
1661+666875668+662628777+655957115+654120234+667082161+673616924+666265048
1647+664582999+669350107+668596978+664377393+660322160+659648514+667731452
1634+675350853+674024152+671754435+672803427+674751746+678519528+682769961
1620+682297494+683060881+691225073+696355719+695219273+695076913+697053349
1607+698772667+699742250+700831685+702215877+703363097+704683156+706559372
1593+707717072+707374492+706770735+707138259+708007696+708267767+707287261
1580+704789871+705056289+711427290+713498411+710010700+711048918+714399066
1566+713468375+709637272+703903017+704213198+717095790+721479506+716071742
1553+711835994+709461186+707544970+704496664+701208729+699798117+704928098
1539+714661203+712595764+704242792+701999200+702343034+699572806+697804190
1526+697427515+696595126+699073623+701779867+699945126+697375191+694356700
1512+689667820+684488172+683996516+692684024+694951453+686149482+677482491
1499+674165922+675288566+673566445+666392722+660528652+659081657+657294739
1485+652805341+648173656+645128081+641984425+637548827+633448207+631595238
1472+629683155+623172082+615602680+613139829+613811777+610353290+603867235
1458+602955326+609416695+611156271+608270324+607605239+610998671+615753011
1445+618148520+618334828+616855951+615155932+617059417+618468812+614722616
1431+611232248+610430670+609361714+607796344+605816624+603636979+605178328
1418+608513532+607437270+604840250+604440624+605095746+605357588+606913586
1404+609984549+611396563+612033088+613483773+613963842+613401191+610689744
1391+604563464+597465127+590354651+581881716+574107335+571426995+575325957
1377+583616642+594249000+604784421+612386885+618822129+626394261+634236685
1364+642396081+649959246+654003926+655141256+656024051+656528769+655182363
1350+652541727+649629803+646491830+643273783+640910857+640909602+643060501
1337+644943507+645589773+645833534+646231759+646608065+646470501+646021134
1323+645687337+645235017+644628750+643998056+643503006+643653927+644194807
1310+644712808+645979510+648309375+650912520+653311387+655878961+659090513
1296+662605456+666036563+669044206+671109792+672709627+674276843+675364506
1283+675668710+675100229+674054041+673357296+673627920+675403916+678872734
1269+683338073+687881345+692064031+695861111+699200337+701668502+703453575
1256+705268906+707162760+708741932+709787455+710680582+711861603+712874138
1242+713364465+713840843+714503936+715022528+715350569+715558168+715652041
1229+715853220+716519338+717402355+717507815+716795202+716463103+716864058
1215+717124572+717099553+717440657+717615563+716966861+716497862+716830848
1202+716931880+716267607+715465106+714845260+714289178+713390590+712007505
1188+710945155+710438223+709685390+708291162+706368304+703727521+699929259
1175+694742969+687666735+678090898+666589546+655235573+646736845+642871574
1161+643718059+648067089+653842304+659283868+663611423+666543938+668391814
1148+669264130+668571960+666151174+662085609+656186780+648452251+639578325
1134+631180039+625197447+623226251+625748290+631508154+638261660+643964108
1121+647024370+646616035+643422785+638703279+633070425+626859127+620288866
1107+613338867+605344525+594828846+581089917+564843008+546972795+529244278
1094+515332879+508275944+508505905+515082143+526588550+541427800+557952049
1080+574433642+589684400+602697727+612670572+619831306+624294948+624994571
1067+620580744+610615981+594618331+570873717+538540930+500157618+462273821
1053+432709270+415974100+413570289+425744954+450361699+483751707+522195129
1040+561369982+597604388+629072682+654878012+675423325+692127351+705713846
1026+716235282+724424197+731960500+739348021+745279544+749221346+752171204
1013+755211835+758900946+762699134+765093278+765971645+766885141+768227266
999+769368140+770391819+771306938+771971063+772985444+774516423+775753606
986+776185188+776121720+776175520+776464742+776815808+777052042+776654777
972+775386156+773177619+769957432+766113488+760805649+751508037+736053813
959+714119659+689328636+669702649+662952906+670683598+688053521+708573372
945+727989104+744777631+758227448+767619155+773988532+779066780+783194558
932+786488471+788940253+790044374+790203339+790289316+790457358+790956172
918+792025238+793053640+793447289+793123233+792448997+791822362+790761857
905+788831619+786103457+782507776+778270257+773124557+765516373+754149559
891+738578288+718446550+694481053+669674088+649144790+640024593+648373728
878+673090509+705283445+735439134+758994303+775528590+786361461+793199395
864+797345844+799966923+802030296+803676034+804736466+805246792+805114690
851+804557427+804231305+804172118+804008134+803793229+803674927+803817066
837+804145550+803570574+801386982+798929960+797075368+794209864+789128812
824+781868669+771901618+760886460+754248524+756181123+764843465+773919087
810+779238070+781267790+781694206+781992874+783377066+785745748+788015392
797+789760391+791344655+792629512+793229210+793356367+793419835+793440942
783+793117551+792390178+791737713+791358234+790728130+790051827+790048949
770+790339647+790406510+790270349+789878029+789355304+789048370+788961802
756+788640846+788050373+787689344+787936204+788842173+789522018+789236707
743+788925271+789628142+790970268+791736090+791378898+790701341+790477874
729+790586656+790731746+790867464+791223697+792143687+792967073+792766411
716+792353057+792558959+793235040+793993851+794325361+794712515+795762614
702+796787548+797230790+797787611+799225750+800971783+802651175+804208501
689+804863992+805206424+806821240+809502909+811600155+812911137+813950241
675+814179463+813159327+812388708+817783409+825828562+822486089+817351016
662+816862017+819731728+822845790+824594775+825749818+827627731+829356716
648+829385203+828914212+830144530+832268493+833604198+834406329+835845207
635+837781865+839217200+840140290+840806998+841800050+843838847+846246275
621+848139244+850171842+853038526+855732741+857524825+859263035+861533564
608+863587342+865357212+868209728+871544747+873459560+874427373+875562932
594+877198191+879631818+882037327+884065719+886726945+889402045+890969039
581+892106813+893543033+895405670+897963354+900852105+903236729+904950069
567+906702301+909341682+912442091+915251212+918133690+921042810+923304483
554+925084316+927032782+929268477+931561515+933878686+936575926+939446227
540+941303329+942683609+945473542+949354828+952762688+955511146+958149567
527+960140247+960850276+961496837+963857550+967499946+970193791+971938938
513+973918105+975575061+976555789+977217553+978355400+980491761+982339195
500+983381767+984698210+986288304+987601352+988063192+987852641+989206132
486+992087208+993861875+995565399+999165729+1002904212+1004815779+1005566693
473+1006769558+1008473451+1009808787+1010273210+1009916830+1009963177
461+1012541747+1018148992+1022119208+1020927117+1017886929+1015891378
449+1016466723+1019044555+1019545878+1016944651+1013938042+1011839540
438+1011329804+1012550972+1014120032+1015593596+1017501693+1019903881
426+1022953516+1026135179+1028957953+1034758702+1045672459+1054133474
415+1057783841+1062017300+1067535396+1071963466+1073671713+1071836235
403+1068859145+1069432940+1073741823
##END=
