##TITLE=павел 10-многокр
##JCAMP-DX=4.24
##DATA TYPE=INFRARED SPECTRUM
##DATE=3/2/2015
##SAMPLING PROCEDURE=Instrument type and / or accessory
##ORIGIN=Default
##XUNITS=1/CM
##YUNITS=TRANSMITTANCE
##RESOLUTION=4
##FIRSTX=3996.3347
##LASTX=399.24773
##DELTAX=-1.928733
##MAXY=0.85811108
##MINY=0.28039306
##XFACTOR=1
##YFACTOR=7.9917822e-010
##NPOINTS=1866
##FIRSTY=0.69669926
##XYDATA=(X++(Y..Y))
3996+871769576+874104006+873779050+872819920+874715656+878127280+880226327
3983+878748253+874676649+871970725+872298440+874772861+876251010+874382496
3969+870729972+868447451+868945513+870807686+872196411+871804555+871543964
3956+873764879+876104306+877177995+876712227+874172771+872927542+875991537
3942+879321792+877917479+874809257+872765549+871038295+871797395+875372503
3929+876226099+872724305+871247574+872651513+870489070+866730415+867583861
3915+870742949+872587074+875125188+876866986+873774873+870553211+874847518
3902+882131237+883127583+879181800+874616611+872090429+874517714+875594013
3888+870583342+872309478+880591632+879175163+876243999+878285618+876477815
3875+873355049+870191114+869024048+873252274+872605123+868369662+870065517
3861+873069771+869053657+857711163+852579147+872459314+894215602+890287645
3848+876687615+867349523+866064170+865934919+862646878+865562827+872692310
3834+873897934+873209017+873517564+872109150+869237204+864029860+862303650
3821+870028449+872196784+870678286+876105276+874483108+864436110+859595935
3807+866531727+871868472+866157249+866292168+872659568+872398306+871770620
3794+872252646+868222734+861672608+858704302+859716833+859169100+856184237
3780+857300214+863290599+865344226+860934317+856268291+858982420+866784189
3767+869119737+866581474+862234587+856959447+856062817+856866666+851583173
3753+844126796+847781856+859431033+858184537+854813860+866271435+870447080
3740+859656571+851487708+854414023+862772773+867192975+864509947+859512477
3726+857518442+856348840+855740845+858257628+857369650+847822429+834217030
3713+828241934+835251488+840854268+836482695+828864250+826211875+828740294
3699+828558611+822796075+812749376+800507865+791907841+793988840+799837145
3686+795601013+785581387+777187434+768342631+759540339+763758795+775217041
3672+772387981+768139543+769963680+763941075+754279072+749938748+747317847
3659+742201269+739125192+736345431+727806863+723690659+732606614+739202012
3645+731501974+718247410+710246208+707628664+704699663+700933400+694843074
3632+685487903+684481190+694633722+693559362+679967909+667472073+662577378
3618+663232062+660821708+654414407+647888967+642445495+640234424+639930650
3605+636829886+629947271+623188948+620570285+618707738+614505093+609676851
3591+603111585+596390366+593768832+591109707+585447746+580817296+578517622
3578+577254532+575710825+572476036+565988671+556133723+548071923+546926598
3564+547746930+544499388+539033354+534776003+531261531+527384625+524550903
3551+522543517+519469342+516294070+513051263+507465264+501402086+498138695
3537+497109682+496501760+494509403+489637456+484596616+483361457+484005290
3524+482489328+478370066+473055136+468237746+465354949+464194148+462487069
3510+458888206+454564700+450182461+447494511+448354819+448896623+445822187
3497+441620549+438667905+436309945+433225216+430573289+430056135+430384372
3483+430129002+429726555+428024062+422585288+415536355+411509277+410481494
3470+410165227+409512967+407793618+404697031+401024145+399124680+399149702
3456+398461344+396949074+395097975+392016043+389204659+388793673+389875528
3443+390216481+388506605+386066939+385888650+387492209+387796804+385786882
3429+382812275+380312645+377739663+375105338+374634909+376077296+375851572
3416+373809990+372356342+369676446+365693409+364765306+366244014+365573891
3402+362612820+361177369+362556510+364884936+365957170+364627104+362890229
3389+362326834+361824596+360546850+358853344+358611287+360270261+361441354
3375+360906635+359642836+358851517+358522198+357297816+354783419+352329843
3362+350851732+351071713+353330068+356592452+359515934+360497774+359733864
3348+359216299+359317880+359669425+360128964+360754972+362334739+364715597
3335+365816731+364511987+362564304+362218652+364205005+366704784+367549766
3321+368389377+370887105+372424100+370940767+369104101+369378154+370877186
3308+373129948+375775759+377088447+377279937+378395317+380418328+381961476
3294+382794375+383240527+384429930+386913301+388731508+388973976+389066122
3281+390058367+391935345+393793305+395176026+396904250+398852119+400037867
3267+400781081+401719850+403221119+405305773+407032617+408588294+410794442
3254+412932944+414792731+416999736+419500448+421525920+422734341+425246314
3240+429785214+432468391+432069562+432815982+436659550+441272137+445025497
3227+447393228+448370146+449455842+451649759+455238254+459667891+462470884
3213+463216522+464543977+467186619+469959407+472670739+474802341+476016170
3200+478328374+482567564+486378279+488765811+491239411+494408530+497625382
3186+500385752+502691281+504951874+507911491+512371519+517428916+520726689
3173+522028712+523646330+526954135+530729870+532970437+533765337+534993038
3159+537461269+541339293+545897137+549209976+551541870+553959757+556111236
3146+558293555+561874667+567300352+572206309+574644184+577018105+581302567
3132+585247007+588278447+591850833+594006190+594062463+594838455+597055903
3119+599699141+602737181+606184791+609236181+611828405+614344443+616540932
3105+618677420+621140467+624115336+627247164+629340021+630609041+632249854
3092+633734566+634538267+636438925+640258365+643951910+646124720+647278883
3078+648526423+650614209+652820729+654929100+658385398+662267562+663612134
3065+663196561+664042698+666391821+669124670+671320302+672466261+673551509
3051+674899139+675426288+675680390+676919278+677767877+676755570+675427257
3038+675248259+676002735+677052557+677692325+677377065+675664355+673457685
3024+672010860+670436425+668500639+667675608+667584245+665931424+661224900
3011+654623536+648222201+641929608+635548038+629289305+621390505+610831947
2997+598287930+583379352+565384218+544901350+523004548+499878479+474474365
2984+446402401+418420457+394050652+375387595+365197958+365242521+373973214
2970+390029391+412753647+439029183+466046552+492995007+517613060+537245278
2957+551423769+561150509+567145519+569154657+567874487+565326192+562019133
2943+556571484+549426190+543486558+540446094+539395004+537929982+534995164
2930+532654469+532921884+535676959+539738978+543314944+544836239+544822591
2916+546175329+549154487+549432716+545786829+540941694+535573961+529963312
2903+525915202+524294936+523489185+521666167+519977397+519798176+520003986
2889+520300749+521725050+523308733+524008092+525406811+528829062+533302143
2876+537851819+544282316+554056826+564317018+572965297+581628045+591037847
2862+600278385+608538537+615313530+620793547+625422915+629900657+635441087
2849+641947060+647343546+651020534+655012185+659577300+662669860+664797174
2835+668461110+672639888+675072916+677981034+683096120+688146916+691568682
2822+693586286+695228069+697552430+700542737+703385148+705904095+708828695
2808+711797746+714416484+717347424+720864880+725006666+728897258+730900616
2795+731828347+734474456+738475132+741556206+743707536+745253853+746779362
2781+748567774+749319639+749459034+750027128+750784587+751856560+752660782
2768+752584410+752704711+753334560+754247896+755912128+756574793+754848881
2754+753215825+753394002+754530340+755695243+756105073+755112083+753406532
2741+752702399+753244166+754271613+755241856+755424508+755394526+755756326
2727+756060473+757320841+760258866+763346504+765207633+766015063+766822417
2714+768202565+769846212+771449436+772530061+772854196+773755748+775648575
2700+777225322+778423787+779480322+780695940+782849209+785670066+789255392
2687+793175071+795872120+797298360+797318199+796054474+795980712+797406281
2673+798075956+798349077+798800748+798595796+798378388+797743766+795913886
2660+794873685+795735261+797625777+800292918+803194100+804942759+806064852
2646+808002578+809233486+808153756+806665539+806692910+807539346+807962378
2633+807761527+807702309+808800609+810063439+809388021+807886826+808703205
2619+811741916+813665248+813212682+812037636+811142348+811007205+811489380
2606+811614157+811445973+811217005+810988336+811034278+810898986+810791811
2592+811841409+813387428+813784580+813278463+812767425+812406073+812271004
2579+811962680+811081713+809849835+808803145+808650102+809113110+809022045
2565+808673372+809343420+810466781+810982071+810815752+809244375+806651144
2552+805066715+804844683+805085212+805520922+805910392+805444102+804186941
2538+803793892+804721324+805370489+805337748+805905022+807024504+807166509
2525+806328799+806108483+806694253+807160020+807580814+807956038+807571118
2511+806557692+806343566+807712377+809122955+809061648+808013467+807268239
2498+807807619+809204399+810532562+811848718+813096781+814072915+814576645
2484+814203658+813958953+814775183+815218427+814528987+814236176+815490429
2471+817388253+818264373+818556288+819836868+821609991+822366331+821975221
2457+821480292+822197626+824350522+825653999+824571584+823075461+822872149
2444+823562857+823912648+822892361+821467762+821500578+822718211+823497821
2430+823635575+823281010+821908395+819642208+816848052+814702242+814311131
2417+814485505+814423080+814771752+815145112+815052481+815321500+816251319
2403+817065982+817610732+818692401+820784662+822579189+822412498+820737898
2390+819488270+819654738+820008557+819491030+818805990+818644519+820232603
2376+825030862+830627751+832676754+832582407+837506264+851475252+871157925
2363+888938001+894351044+890490434+894339409+901680034+900363729+886651453
2349+863987497+846556020+850660365+869143529+877175011+878910768+877972148
2336+873607883+872065221+871881673+868447004+863962065+861946922+862278441
2322+862295147+860848323+857940205+853075120+848556246+846488224+845075932
2309+843180196+840928925+837284456+832720235+829675184+829222544+829674140
2295+829003048+826978657+824274075+821688824+820127889+819412196+818223128
2282+816154809+814406149+814182104+815176138+816223798+816536149+816137357
2268+816180465+816603198+815327317+812528015+810781742+810729684+810610128
2255+809559411+808621239+808584395+809008694+808877951+808244299+808121835
2241+808276295+808247208+808463422+808744673+808529428+807851548+807140181
2228+806708647+806436943+806308140+806439330+806328948+805653231+804721548
2214+803647486+802674932+802166653+802194099+802389430+801695963+800443500
2201+800273303+800601839+800360266+800441114+800946410+800802764+800131671
2187+799930895+800126376+799981239+799654717+799351987+799030313+799098854
2174+799579911+799908521+799793291+799635176+799479523+798479745+797243169
2160+797407921+798156207+797781579+796714230+795869062+795156949+794601012
2147+794443419+794198565+793601384+793546417+794256441+794406501+793513600
2133+792905754+793331023+794221910+794920001+794978697+794652325+794578637
2120+794788661+795194688+796035754+797154490+797853029+797730192+796989066
2106+796462142+796616005+797002044+797716170+798567305+798781580+798996079
2093+799540456+799208117+797912098+797063276+797476388+798591992+799130551
2079+798919558+799047392+799375629+799124585+798806267+798875181+799016291
2066+798927762+798766515+798931566+799099451+798976091+799122571+800016516
2052+801426720+802018308+801195291+800506373+800717218+801224602+801689773
2039+802080659+802636149+803132569+803462373+803967893+804028230+803394279
2025+803247725+803905989+804003095+803387865+803668146+804509659+804390327
2012+803757943+803434032+803328497+803259061+803378095+803840506+804162926
1998+804077902+803624813+803100574+803434777+803999217+803582152+802548664
1985+801139503+800137414+800491830+800976243+800577077+800166128+799985490
1971+799243991+798349301+798894498+800584088+801027257+800026212+799515770
1958+800109595+801405166+802712820+802763237+801432762+800330135+800112205
1944+800026137+799381670+797377119+794672462+792718999+790920146+788153809
1931+785001061+782798344+781724656+781844584+783236665+784444602+785817813
1917+788108463+789004944+788439833+788939983+790876814+792132185+791739061
1904+791675666+792912391+793739212+793397625+793518150+794823268+796016139
1890+796963858+797330430+796354519+795426192+794997045+794449908+794207590
1877+794481531+794503980+793386288+793210348+796466542+799251077+797932161
1863+795424327+794131367+793853845+794246074+794862722+795286350+795204608
1850+794051712+791479067+790480632+793786721+795961246+794419926+792851681
1836+791849219+790292162+789018742+789984360+791249353+790581094+790219892
1823+789417683+787725110+787815205+788668354+787700050+786151644+786084296
1809+786219887+784785593+782108233+780079144+781110842+783824300+783620466
1796+780097118+778664465+782238902+784260160+781832278+779682813+778968015
1782+778019401+777331900+775936836+771760221+768250820+770956446+774714580
1769+773538042+770761264+767921911+767747016+770117543+769307653+767613588
1755+766705547+765343373+767823388+772548184+772456672+769407742+767104563
1742+766776698+767887753+765120074+761417877+766577041+771671617+768655429
1728+764565553+761004019+758435326+755941066+752163541+752819568+759348886
1715+761733435+757860072+752039734+746970815+745167263+743966262+738948879
1701+737474385+741288604+740373254+738890183+735564180+728311786+722316627
1688+715677524+711787156+717432821+719177602+711731666+703620083+700370303
1674+699873509+696450027+694441150+695534081+691994921+686598883+685863799
1661+685972242+682016614+675127063+673282043+686243050+692325545+684776835
1647+683902132+690141846+690523484+687349853+684647732+685323076+694474712
1634+702722110+701647974+700134175+702805493+706229050+710693106+715077956
1620+714552224+715670961+724611901+729849750+728626523+729592664+733058211
1607+735013463+735913002+737689481+739685530+740880713+741444482+742038083
1593+742949182+743650480+744257134+745382732+746659135+747177110+745820008
1580+742393095+742349092+749324412+751537646+747193145+747124082+749872742
1566+748997219+745582165+740107741+740710665+754511992+759034745+753012140
1553+748679349+746380644+744179195+741089991+738489974+737814555+742580073
1539+751181291+748150933+739061946+736655843+736908901+733309330+730723110
1526+730242053+729121005+730642113+733236164+732119964+729539487+726130623
1512+721196250+714891276+711820569+718354585+720986599+712934681+703854197
1499+699317423+698911918+695533782+686841276+679315388+675792562+672624823
1485+668089988+663238402+658967141+654861304+650082063+645160966+641970479
1472+639077875+631891038+623467588+619940362+619380994+614591236+606994979
1458+605271156+610876174+612389414+610617522+611552152+615925814+621364849
1445+624767224+625774907+624577635+623039485+625405314+627378354+623301008
1431+618479740+616567372+614966982+612885275+610345483+607056585+606994234
1418+609990172+610016798+608261053+607782458+608430281+609407721+611376436
1404+614332622+616234697+617881924+619809693+620264683+619653033+616183608
1391+608184905+598628734+588865336+578106151+569549273+567702015+572773918
1377+581955499+593553177+605963094+616638151+626270582+636787523+647641428
1364+658395765+667920835+673511086+675095813+675210968+675067546+673782789
1350+670934934+666797251+661967741+657666275+655185738+655239959+656825880
1337+657807757+657789932+657844154+658262337+658740485+659167320+659498541
1323+659743842+659602733+658702523+657248166+656281727+656631816+657474523
1310+658247122+659664338+661698797+664250410+667878099+672388173+677219174
1296+682001697+686367678+690364922+693724711+695962184+697428474+698269167
1283+698017004+696695105+695400429+695431530+696909007+699574136+703468755
1269+708275592+713677596+719375842+724632113+729015844+732714087+735785988
1256+738386826+740760635+742587606+743664651+744399213+745563519+747374157
1242+748963956+750068521+751078218+751932187+752663989+753181666+753175028
1229+752743345+752304726+752272506+752560021+752746105+752994613+753631771
1215+754325686+754926223+755485293+755494914+754990662+754566363+754052639
1202+753370434+752884157+752202697+750970521+749596414+748343803+747317623
1188+746402199+745229241+743856328+742182997+739505115+735451262+730098482
1175+723060214+713340782+700278194+684860665+670048075+659078716+653816106
1161+654483246+659722736+667232066+674773617+680653844+684132442+685757220
1148+686495064+686256848+684067630+679217088+671590066+661469008+649686105
1134+638301695+630057429+627195553+630535950+638118894+646647766+653687601
1121+657168586+656298657+652261734+646405597+639247848+630751046+621342959
1107+611864652+601656855+588678097+571735246+551315587+529508433+509587208
1094+494604458+486447044+486116420+493926541+508398327+526406812+545687598
1080+565108561+583043805+598246052+610948668+620452034+624618619+623102246
1067+616991224+606084104+587787695+558432204+517813239+471548870+428055499
1053+394559789+375634313+373174473+386638353+414051307+452428996+497727933
1040+545412836+591059513+631206521+664375187+691060776+712290363+729152031
1026+743147720+755131474+765193164+773497171+780249714+785973914+791358243
1013+796499806+801022857+804513239+806579993+807606843+808938214+811075075
999+813321124+814828286+815379823+816166220+817957839+819543610+819798309
986+819343282+819347160+819812107+820048533+819600442+818365059+816744980
972+814848722+812146750+808370045+803193056+795438871+783144854+763338225
959+734484972+701529314+675529360+666400249+675973872+698468526+725861679
945+751620283+772801914+789227423+801097141+809309634+815560760+820985587
932+825413619+827990517+828918620+829536610+830320173+830771322+830947187
918+830993205+830707107+830216131+829470157+828319723+826883266+824935695
905+822177712+818501768+814019514+808587677+800937982+789887478+774568324
891+753578146+726630474+695692046+664407779+638726591+627624253+638418342
878+669462752+710229875+748865507+778963689+800213264+814679643+823817705
864+828564727+830743503+832321219+834185929+835883872+836341659+835651026
851+834763048+834341881+834673250+835148863+834771177+833590314+832000888
837+830075319+828391173+826742604+824006175+820350890+816374678+811189111
824+802468040+788865177+773936312+765242538+767427877+777581901+788314311
810+794569464+796284859+795969674+796105638+797731236+800648677+803967743
797+806626159+808515257+809595658+809643167+809195523+808677250+808186796
783+807694627+806809706+805547921+804506900+803823576+803113327+802092741
770+800925303+800276287+800238772+800289338+800153598+799698944+799070214
756+798375479+797460353+796316930+795558352+795900536+796519719+796477655
743+796084456+795460798+794935290+794922984+795082069+795157248+794847134
729+794054547+793450354+793340793+793528069+793878458+793816629+792922236
716+792099592+792270386+792861675+792881589+792775682+793708708+795254429
702+796095644+796208860+796529266+797567901+798658296+799301569+799890994
689+800567009+801743546+803897114+806152337+807251160+807586482+808144359
675+808737289+808038079+806767866+811373032+819338359+816768473+812925763
662+813306133+815027943+816052109+817110881+818183376+819177411+820209333
648+820619536+820819790+822064794+823843734+825134159+826222764+828118351
635+829995963+830512521+830786835+831704572+833391328+836231874+838925791
621+840329656+841932581+844702721+847224726+849060646+851162827+853487188
608+855448109+857662610+860739433+863327666+864876594+866754430+868779567
594+870184625+872326856+876077382+879491690+881033458+881874599+883188442
581+884913385+887132883+890090598+893447403+896319274+898864026+901417803
567+903116716+904929292+908553848+912175421+913761118+915003139+917281036
554+919475772+921388961+923984130+927586312+931045892+933175220+934623312
540+936234442+938679626+942275469+945976994+948890183+951535995+954938146
527+958393326+960221192+960561288+961156157+963554056+966736339+968507000
513+969455614+971298620+973966135+975846880+976651997+978587485+981527673
500+982876198+982948319+983177436+983513281+983664012+984253586+986372323
486+989342419+991418495+992986591+996471380+1001303276+1003597058+1003930293
473+1005813126+1007601165+1006370480+1004299326+1004581546+1006169704
461+1007701403+1010785237+1015144803+1017577682+1016304560+1011928287
449+1008054178+1007681042+1009239890+1010541054+1010941338+1008821930
438+1004419926+1001696325+1002459975+1004079383+1006216318+1010723259
426+1016371610+1021343572+1025849842+1032613870+1043546833+1052851810
415+1057533870+1060161782+1062505310+1066176779+1069838105+1070325650
403+1068204750+1068474216+1073741823
##END=
