##TITLE=павел 10-многокр
##JCAMP-DX=4.24
##DATA TYPE=INFRARED SPECTRUM
##DATE=3/2/2015
##SAMPLING PROCEDURE=Instrument type and / or accessory
##ORIGIN=Default
##XUNITS=1/CM
##YUNITS=TRANSMITTANCE
##RESOLUTION=4
##FIRSTX=3996.3347
##LASTX=399.24773
##DELTAX=-1.928733
##MAXY=0.87834138
##MINY=0.34622377
##XFACTOR=1
##YFACTOR=8.1801915e-010
##NPOINTS=1866
##FIRSTY=0.65656239
##XYDATA=(X++(Y..Y))
3996+802624713+800892648+798711228+798117017+799926974+802321159+803780054
3983+803673307+801589890+799088448+798935286+801735400+804456966+803132725
3969+798018577+794371412+795730118+799311705+800917495+799623055+798490084
3956+800436662+802013743+799433462+796286439+796979673+799655990+801294351
3942+801001289+798596102+796364842+794877019+792485748+791709085+794881755
3929+797740452+797229453+797171453+798604991+797623359+795951262+797293647
3915+799379979+799922456+799836111+798003421+793192608+789863205+794479251
3902+804374702+810195054+809286433+804151809+799024545+798676253+798520614
3888+793514451+794713219+803436133+804961918+803510236+801812272+794291989
3875+789145999+788460416+790683661+798589835+802603801+800122251+798886758
3861+800441981+797929609+785709486+777594627+798008157+822473615+818117186
3848+804526698+796661838+794953964+795007957+793675117+794280258+796317042
3834+796619649+798110969+799427632+797891792+795777699+792057377+791145623
3821+797641138+797202129+793370252+797983966+798401043+791728248+788846161
3807+795378838+799551939+794062830+795013932+800221565+798082916+796778567
3794+796647629+792963740+789164142+788656932+790872526+791495154+788812133
3780+789908673+795650841+795693248+789517463+784975010+786375832+791010532
3767+793858955+794319969+791609770+789111971+791828145+792898964+785702563
3753+777528320+781350506+791358824+787423043+782752203+795095103+800574303
3740+790706103+784276967+787793632+792558540+793799862+793110927+791935912
3726+791731745+791081575+790299154+790852634+788810603+782282955+773808728
3713+771788629+779949174+784975448+782123673+777224475+776009530+779431617
3699+779634545+774478135+767212951+758650558+751687397+753838725+761030534
3686+759295337+751217202+743537491+736266623+731260460+737849898+749281772
3672+748008245+746533538+750456277+746156609+736855296+730976361+728374220
3659+725801735+725343927+725799768+721029613+719374421+729016813+734674094
3645+727096612+716223464+708993619+704528257+700703375+698737343+696531804
3632+690342101+689761151+699442599+700536880+692387119+684344542+678791385
3618+676939676+674984792+671165958+667617816+664535133+662952076+661653119
3605+657710998+653687851+652682538+651485446+647973809+645629390+643989062
3591+639319461+634750486+633691471+629884369+621675588+615983623+615217525
3578+615826381+614224161+610751288+605671605+599277881+596721682+598603483
3564+597820735+594293724+590751957+585300300+578659420+575243636+575275114
3551+574247395+570678013+567817276+566802162+565357512+562539073+558757837
3537+554510486+550811077+546833179+541403782+537989493+538732384+539983214
3524+538791950+535395112+531931493+529283447+526755409+524464036+521925542
3510+520041118+519600324+517353835+513915900+513475908+512391573+506732397
3497+502129467+501917613+501436233+498836716+497348820+497910169+498210116
3483+496211695+492518881+490330501+489908470+488037088+484346423+480304951
3470+475789531+471869852+470581387+470685074+470365963+470186607+469578880
3456+467703636+465224673+462150515+459150570+457885677+458332410+459438276
3443+459969167+458990377+457620413+456542709+454626625+451441312+447157638
3429+443118899+441090494+441034097+442535472+444752888+445520079+443622721
3416+440798853+439563616+439300939+437216756+433247238+430566622+430590558
3402+430905370+429249084+428176627+430704810+432800797+430476525+427036514
3389+426449626+428618405+430921509+430727471+427535892+424179893+424165321
3375+426467004+427287751+425960231+424551503+424843836+427142532+428121796
3362+425408209+423246534+425126842+428761438+430450913+429056758+427121802
3348+427797913+430691439+432271180+432107490+432707712+432738752+430749512
3335+429077233+429340566+431663380+434913542+437083633+438030362+438204400
3321+437903942+438359128+439644605+441091295+442618720+443601918+443614925
3308+443375929+443648552+443793406+443169358+443462710+446356966+450701408
3294+454284198+456079764+456560124+457217326+458610242+459687035+459813820
3281+459471757+459651040+460833961+461914616+462910493+465607722+469235979
3267+471765802+473345616+475289570+477443521+478008550+478427011+481052286
3254+483619634+484516051+485298654+486641330+487990272+490080576+493242353
3240+494682923+494485788+496990946+501688345+503697186+502625602+502440781
3227+505019095+508159487+508964896+508720873+511181656+515964999+519936120
3213+522608247+525164447+527901533+530913538+533885393+535689230+536840491
3200+538933526+541130431+542314553+543376191+544405003+545870856+549420711
3186+553751929+556210016+557338398+559695786+564078337+567992005+568967006
3173+569264840+571935255+575292456+578023785+580777303+582638884+584299651
3159+587209535+589974601+591348063+592600460+595135018+598073940+599883423
3146+600491587+601112321+602872766+605524309+608709841+612103655+614450770
3132+616043591+618627297+621561482+622723162+622689644+624210547+627424532
3119+630181073+632293855+633818256+634400225+635953043+638789881+640603627
3105+641176707+641984775+644168892+647046971+648347677+648522479+650589721
3092+654491912+656648632+656555074+657278838+659163700+660265267+659576988
3078+658323862+659320213+662551904+665513194+667338016+668600978+669535175
3065+670007046+669858985+669794354+671108759+672943271+673810870+674299719
3051+675101157+675593503+675490181+676400041+678700304+680539625+681099663
3038+680465158+679203070+678211237+678029440+678250365+677933113+677518950
3024+677164610+675829001+673954705+672978392+672362832+670484819+667626195
3011+664802546+661938384+658445473+654262826+649790251+644154756+636028677
2997+626604295+617734122+607470778+592812313+574728447+555291886+534311506
2984+511589661+488197317+465915976+448107356+437827107+435779210+441934849
2970+455253042+473814827+496090339+519766018+541833647+560451101+575624900
2957+587383354+594794486+598609749+601162889+601891899+598578418+592800254
2943+587457712+582898027+578941843+575577648+573257784+572725290+572672645
2930+571836742+571765954+573917610+577592682+581185417+583279072+583736189
2916+583513114+583119645+582109122+580035723+577433036+573963770+569273693
2903+566310071+566326575+565842207+563648108+562213696+561897318+561031941
2889+560276153+561268970+563291509+564946847+566246351+567899758+570129816
2876+573185794+577900826+583995987+590151152+595922393+601700120+607867416
2862+613925781+618911396+623546969+629015094+634310966+638602546+642732876
2849+646027158+647376319+649065321+652753800+656043127+657592520+659389653
2835+662916227+666381085+667504730+667912043+670028250+673221541+676394066
2822+679183396+680648776+680812795+681347985+682970097+685199681+687344014
2808+688811726+690082484+691722521+693617802+695436722+696849566+698594091
2795+701423423+703807262+704328827+705050186+707378866+708735387+708081208
2781+707550171+708247704+709425123+709503817+708757538+709006589+709183796
2768+708201435+708204350+709824203+711616599+713242864+714191051+713764793
2754+712715907+711847944+711587963+712076593+712576445+712968310+713212334
2741+712756712+712501904+712884735+712503289+711610624+711687715+712064716
2727+712364919+713897844+715961516+717005010+717511564+718385503+719511771
2714+720411867+721247697+722118721+722041630+720547760+719379157+720031660
2700+721728604+723736534+725800569+727220045+727742047+728289843+729850749
2687+731119832+731006964+731010680+731764392+732700921+733549720+733806495
2673+733607721+733341182+732734001+732567287+733520210+733721244+732174474
2660+730744142+730644827+731789020+733876227+735515170+735799124+735809471
2646+736103771+736086648+735762036+735460303+735037761+734842266+735986167
2633+737636113+737773536+737104056+737169707+737563977+737428814+736733248
2619+736448056+737564925+739153737+739287517+737888589+736730261+737076222
2606+738043937+738118841+737555671+737079938+736734414+737058589+738133341
2592+738817540+738732944+738578909+738469757+738045612+737606457+737666425
2579+737679104+736778424+735532512+735019764+734915422+734621777+734815014
2565+735619658+735987260+735601296+734635549+733507605+733015696+733136724
2552+733362604+733705286+734275525+734623891+734521880+734340739+733876372
2538+732805554+731404805+730494435+730880253+731987576+732705584+732471033
2525+731581064+730865534+730154521+729708444+730307683+731123183+731322832
2511+731308405+731842066+732992379+733744342+733815603+733971752+734272173
2498+734388246+734119595+733285076+732756808+733213086+733847372+734480056
2484+735513786+736156087+735624540+734865947+734931306+735351225+735748264
2471+736091238+736253362+736891510+738163507+738963852+738644268+737672400
2457+737126353+737954532+739517113+740020826+738977186+737448560+736922259
2444+737762971+738339840+737924439+737556910+737515960+737397628+737199217
2430+737656224+738600331+738052680+735889330+733894880+732627109+731761914
2417+731034799+731114658+732405892+733598103+734047969+734202879+734172859
2403+734020134+733944938+734368354+735288270+736120748+736816751+737045036
2390+736062602+734461694+733282234+732804534+733157199+734187650+735394871
2376+736723776+738448918+740621231+744949680+755935914+774405125+791928261
2363+800342593+800319860+797443019+800311262+806915200+804726784+789011491
2349+767660266+753597324+759259487+779448886+788987154+786047942+782611574
2336+782289512+781688962+779598040+778774087+778343675+775903002+773302465
2322+771854135+770252425+767848767+764259894+760069305+756735603+754560740
2309+753122393+751554274+749085111+746872577+745927231+744907273+743210766
2295+741947367+741146002+739670712+737202132+735085998+734176137+733196473
2282+731378865+730281233+731279551+732965638+733170752+732168718+731506087
2268+731176666+730161370+728991821+728847257+729157515+728922964+727833711
2255+725836565+724368343+724977928+726057563+725578988+724729824+724709422
2241+724463285+723855376+723722617+723478156+723057946+723526902+724290305
2228+724067922+723312753+722869882+722650049+722534486+722495358+722359393
2214+722008404+721111586+719902179+719780933+720994784+721881328+721628633
2201+720455659+718880253+718233216+719076478+720387968+720439993+718834421
2187+717611899+717879385+718634408+719018186+718621147+717834063+717461798
2174+717301787+717048218+716900230+717014264+717418444+717541585+717255518
2160+717042462+716474483+715695341+715489426+715410805+715033949+714690538
2147+714402942+714048674+713631306+713033670+712595462+712461974+712038631
2133+711962560+713117027+714335906+714473183+713944478+713281628+712774928
2120+712885682+713455192+713710436+713319226+712424959+711720285+712154121
2106+713244394+713629047+713175537+712746073+713016037+713454172+713300646
2093+713342470+713807346+713617316+712622058+711477136+711067710+711771364
2079+712852893+713655569+713989144+713835836+713303415+712796350+712875772
2066+713081542+712895227+712990243+713550426+714289564+715045535+715139603
2052+714821039+714768431+714418243+713754155+713649886+714332117+715093771
2039+715086120+714593847+714488193+715115485+716049463+716218218+715297063
2025+714326142+714164019+714182162+713431948+712602603+712685887+713206505
2012+713791098+714440904+714515007+713887643+713229967+713110979+713868553
1998+715206201+715997365+715902641+715765000+715266606+713940543+712674375
1985+711796575+711474003+711938879+712445143+712294240+711766336+711486536
1971+711189394+710920815+711879932+713429762+713536144+712348378+711388533
1958+711596488+712558520+712603623+711487702+710872287+711315741+711737263
1944+711663451+711349769+710210385+708399335+707020810+705891845+704348719
1931+702667514+701481569+700650840+700409950+701289717+702093632+702929025
1917+704566948+705272715+705067091+705419683+706260759+707004707+706832309
1904+705975640+705685857+705721051+705460487+705581588+706145341+706734379
1890+707703260+708193857+707630176+707214192+706843894+706020889+705603666
1877+705882082+705617729+704166703+703758953+706246478+708308036+707437231
1863+706290488+705832097+705059294+704420490+704180037+704029499+703699859
1850+702830949+701107774+701207817+705653432+708144965+705802441+703741319
1836+703062950+701479165+699771218+700802908+702368987+701588316+701303707
1823+701167596+699770490+699408061+699672851+698461113+697062841+697234510
1809+698030556+698069028+696982981+695684315+696058912+697638180+697108381
1796+693833263+692621306+696178556+698129797+695986776+694566354+694673465
1782+694108035+693333339+692025783+688871402+687080973+690945128+695017823
1769+694108764+691471575+688315153+687264519+688951699+688743889+688291910
1755+688148366+686542430+687423436+690590496+691163941+689743955+688066175
1742+688009632+689572141+686851741+682973959+688391370+694539612+692287149
1728+688416362+685532600+684013373+682380695+679373573+680700510+687623814
1715+690318129+686778657+681384345+677319447+676788118+676478444+672700778
1701+673025608+678512678+679055446+678787960+676912571+671177689+665842105
1688+659592435+656917648+664631168+668406502+662622364+656426176+655422539
1674+656516747+653244033+650439402+651263282+648789601+645011571+645454442
1661+646020527+642173058+634902408+631623865+642640338+648767013+642041245
1647+640425983+644393242+642876930+638683426+635331799+635126394+642356603
1634+648223880+645721710+643195567+644492411+646248229+648931687+652109385
1620+651173367+651443913+659185486+664068872+662207473+661440063+663314141
1607+664764146+665446232+666755682+668417213+669488979+670360221+671362692
1593+671964845+672222349+672587984+672968337+673146564+673115232+672344470
1580+669934546+669866782+675978447+678201327+674599630+675271077+678746427
1566+678397260+674999073+669393599+669749980+682724616+687062684+681480307
1553+677280391+675177810+673477806+670631642+668151840+668165685+673102189
1539+680583927+678069807+671253614+670612843+671332308+667780085+665192954
1526+665019391+665065441+668148270+671495233+670429442+667966983+664652008
1512+659997271+655149734+654839841+663427226+666008892+658067962+650616098
1499+648569040+650378778+649231088+643049400+637894521+636571445+634953049
1485+631037597+627120978+624815979+623062420+620608485+617880507+616675181
1472+615682474+610141157+602902969+600405789+601355652+598081080+591163059
1458+590055554+597488545+600402510+597973787+597067934+599606355+603055292
1445+604301969+603978997+602543527+601210579+603839862+606324654+603412474
1431+600159325+599125704+597428760+595314775+593549703+591874400+593578375
1418+597027385+596360419+594236561+593689458+593701553+593772086+595446405
1404+598152233+598645817+598277195+599380256+600669413+601582735+600129559
1391+594968814+589138116+583478831+576200677+569782653+567999801+570929578
1377+576596113+583931284+591908064+598732854+604690847+610575065+616164910
1364+622617946+629388015+633198907+634080641+634644030+635414792+635143299
1350+633407445+630580153+627106041+623669965+621589607+622147094+624518910
1337+626163902+626294694+625984072+625902099+626084771+626378925+626499953
1323+626175779+625472417+624968266+624854015+624927316+625246828+625641025
1310+626292872+627764519+629443246+630540660+631742270+633966098+636911577
1296+639620173+641899087+644290357+646945179+649352043+650774652+651052776
1283+650841833+650852544+650957396+650618357+650300959+650972188+652914831
1269+655833350+659112330+662228822+665187562+668010046+670275042+672039604
1256+673725400+674981586+675585488+676131389+676918327+677919560+679130132
1242+679996128+680171440+679957874+679657089+679916050+680916335+681721781
1229+681919900+682080930+682439934+682659767+682588432+682341130+682248155
1215+682633536+683370197+684067220+684534937+684859695+684781438+684071446
1202+683319483+683038080+682849361+682106579+681151615+680791300+680631216
1188+679891495+678814483+677964809+677422113+676826226+675328640+672260166
1175+667979807+662904641+656393679+647893585+638620835+631195786+627794830
1161+628504240+631677567+635884040+640367910+644298810+646800616+647775690
1148+647856133+647212738+645749325+643548887+639901649+633850753+626077193
1134+618630284+613464183+611913115+614300961+619525790+625306504+629581470
1121+631725366+631838233+629789426+625569326+620068413+614814146+610538852
1107+606242354+600361743+592408862+582062561+568833190+553937879+540046570
1094+529399083+523196556+522367612+527573752+537605095+549818734+562478413
1080+575122754+587267062+597862486+606209200+612257254+615755192+616257521
1067+613470158+606866220+595221618+576578334+549971786+518070458+486549557
1053+461212383+446333467+444270087+455448283+477401806+505538511+536255133
1040+567217964+596068596+620978638+641508314+658030072+670941608+680907956
1026+688616011+694604753+699853191+705182363+710093146+713715756+716634202
1013+719829169+722978960+725408558+727035770+728000133+728700872+729740504
999+731105769+732125072+732462508+732731305+733808827+735706149+737679614
986+738980611+739135448+738545682+738456059+739007207+739266022+739077157
972+738353830+736927942+735230343+733118799+729658896+723393268+712171682
959+695029335+675241202+659754996+654339115+660067002+673701792+690282352
945+705876544+718736200+728565781+735564427+740759382+745261759+748996944
932+751816149+753766297+754626683+755119757+756074721+756876159+757247841
918+757989967+759193399+760139983+760107850+759069165+758117699+757853783
905+757387814+755934457+753912609+751704739+748249645+742310014+733942024
891+722974078+708078221+689319665+669702181+653900689+647522923+654438576
878+672813354+696512786+719443205+737975007+751143536+759616961+765145636
864+769047536+771463872+772922913+774067543+774794805+775076572+775195268
851+775478056+776067749+776604106+776747940+776855634+777441830+778195031
837+778362984+777732414+776477686+774959260+773525795+771733252+768664705
824+763717198+756493255+748055024+742433592+743568968+750543277+758351886
810+763264855+765174636+765306302+765130990+766210698+768660843+771326522
797+773456063+774933903+775789989+776179305+776156936+776001734+776254501
783+776444022+775855276+775204887+775317390+775642584+775641491+775622838
770+775955538+776901248+778011704+778462736+778205305+777873771+778204868
756+778843162+779215792+779834339+780932190+781908139+782116969+781966576
743+782348606+783087307+783655578+783771068+783387582+783143631+783577249
729+784425757+785466045+786497881+787253414+788178794+788873267+788322993
716+787664589+788284739+789912462+791486629+792195893+792649475+793791045
702+795266043+796397849+797580150+799356517+800652341+801220758+802590175
689+804744053+806698646+808220205+809675092+811447160+813044643+813639510
675+813444160+813008940+813432502+820074183+829107865+826420254+822042912
662+821769451+823289407+825007336+826780496+827875578+829053143+830767793
648+831256059+830938806+832559170+835325766+837013237+837744069+838658010
635+840114428+841550371+842767355+843896174+845529798+848149281+850445536
621+851546593+853054891+855861271+858401259+860123705+861819264+863770724
608+866148734+868728942+871199781+873229206+874502661+875858234+877296873
594+878059911+879485289+882353094+885418435+888464176+891708764+894398707
581+895973092+896691756+897861524+900448291+903525217+906419327+908951226
567+910494134+911838267+913787979+915786582+917921151+920466603+922760891
554+924965920+927954024+930840629+932910129+935243837+938077396+940466335
540+942010919+943378296+945329683+948190347+951556765+954590556+957338135
527+959804820+961977643+963808293+965129110+967216900+969812264+971488733
513+972960817+973915634+973983326+975112217+977941040+981088281+983407561
500+984427520+984579370+984819532+986148218+988515297+990132454+990696937
486+991822986+993814667+996019405+998371984+1001365772+1004069705+1004952314
473+1004916756+1005060955+1005490274+1006558323+1008145678+1009246590
461+1010255473+1014380484+1020519692+1023049405+1022108577+1020443694
449+1019368358+1019655955+1020880372+1022107339+1022146321+1020424749
438+1019274509+1020864123+1023534756+1025315422+1026635073+1028992971
426+1032722911+1036109148+1038914071+1044535575+1053851461+1059280093
415+1059683034+1061246636+1063807317+1064434317+1065484368+1068931593
403+1071009546+1070843487+1073741823
##END=
