##TITLE=павел 10-многокр
##JCAMP-DX=4.24
##DATA TYPE=INFRARED SPECTRUM
##DATE=3/2/2015
##SAMPLING PROCEDURE=Instrument type and / or accessory
##ORIGIN=Default
##XUNITS=1/CM
##YUNITS=TRANSMITTANCE
##RESOLUTION=4
##FIRSTX=3996.3347
##LASTX=399.24773
##DELTAX=-1.928733
##MAXY=0.84045249
##MINY=0.22225346
##XFACTOR=1
##YFACTOR=7.8273238e-010
##NPOINTS=1866
##FIRSTY=0.76065874
##XYDATA=(X++(Y..Y))
3996+971799252+971483156+970261718+972315850+978246674+982653215+981173783
3983+976079232+974422068+977816201+980257477+979171661+978212635+978187658
3969+977857626+978345288+978068180+975733285+974504004+974794667+975809891
3956+978733878+981212695+981152157+981619486+983604397+983200272+980455465
3942+979618659+981206147+982566785+981605855+979655134+981770795+987342727
3929+988291853+984293169+983311070+984573475+981568846+977926694+980312228
3915+986102328+989753238+991339659+990719650+984991308+977946188+978807972
3902+987654026+996559933+999108731+992209210+983152222+983321959+986564555
3888+981976170+981268894+987910801+987586862+986701396+988736718+985270395
3875+982580035+981475183+980690615+984016594+982805590+978602216+979381758
3861+981370629+979027587+969563199+965203186+987314323+1009358372+1002725450
3848+987662097+976951220+973018024+972716548+971298341+974071476+980398048
3834+981428655+981124971+982827901+983502890+983621607+978828913+971596161
3821+973612218+975753617+977477184+986580471+985738181+972916517+965190698
3807+971947515+976800139+968739262+969401839+976422971+972774650+969247788
3794+968771017+965366450+960964784+959343714+961810804+963918849+963938801
3780+968648873+974646709+971724016+964544569+960570862+961850021+964851832
3767+963720099+960809286+957132943+954308940+957674746+960472249+954138137
3753+945350109+948929590+959597444+955259514+950444127+963197181+966977849
3740+953838717+944587168+947527755+954111485+957531205+956451634+951221537
3726+945505226+939838564+936374220+938761887+939298740+931309139+920126516
3713+916702912+921959814+921957377+913185112+901376083+894223745+894186584
3699+891672738+882121312+867499322+850055690+834927763+828807707+827092746
3686+817957476+806006504+798205830+790739757+783431465+787573996+793671054
3672+783595720+775254004+775075281+767065500+754623974+745372348+738063980
3659+730924816+727239716+725673626+719018163+713405872+717810433+722219410
3645+715201477+702066990+691871949+685847689+680364928+675012840+668559326
3632+660593560+660239921+667800192+663442158+647035149+631569461+625552245
3618+627088294+624545016+615931866+606330714+598765913+595759037+595618541
3605+592456283+584686411+576475520+570649173+566110170+561581258+555616433
3591+549017892+546340591+547182690+542635882+531650143+521606372+516856131
3578+516328149+514632643+509288627+502143980+495151633+491262984+490631591
3564+488082793+481738820+474996433+471199621+468774299+463864601+457492110
3551+453347866+451619540+449439419+444156969+437585500+433151088+430649845
3537+428618901+426156418+422861355+418814583+414755664+412544170+412295275
3524+410808686+406938770+403615798+401402971+397811687+392961842+389660002
3510+388780209+387871365+385256165+383069457+382185857+378842286+372875215
3497+368797488+367151098+365691732+364152676+362314047+359329483+356909872
3483+356722583+356582163+354676066+351593612+348105434+345102518+343513622
3470+342610033+340564620+338422802+337968038+337110062+334301975+332069349
3456+331697549+330420485+326856652+323834090+322839997+321768345+319274603
3443+316169875+314140911+313465542+312650952+311663922+310572376+308770014
3429+306491318+303943014+303084258+304617775+304302992+301505832+300721416
3416+301576365+300876209+298829007+297057980+295746325+293956394+292254263
3402+291807247+292273148+292859194+292754774+291351740+289206419+288471272
3389+289522059+290011738+288812479+286530984+284812672+284400894+284872525
3375+286362180+287154572+285678186+283945653+284238181+285864524+286135749
3362+284565338+283990296+286008637+288094123+287421133+286233906+288110019
3348+291207970+292004036+290842547+290574121+292865362+295100254+294168832
3335+292449320+293507283+296467993+298675642+299407324+299268389+298842733
3321+298967466+300242588+302309589+304547393+306594443+307714830+306827689
3308+304739537+304404861+306551190+309668806+312966344+314643174+314282835
3294+314521487+315442324+316581730+320293521+325427365+327718283+327530575
3281+327945285+329294082+330255849+330125938+330125977+332496776+336390488
3267+338451016+338873912+340536064+343611855+346548216+348529358+349816360
3254+351021844+352718949+355910030+359638460+361633080+362848197+365681680
3240+369501604+372303066+373902319+375570639+378060384+380346657+382144850
3227+384808520+387953454+390570711+393409868+397067783+400979695+405006630
3213+408510533+409721043+410193093+413700614+419222896+422611356+423732771
3200+425382625+428575610+432849003+436655562+438993922+441431656+444712517
3186+448229061+452558881+457178488+460410157+463650126+468914223+473639830
3173+475416283+477223462+481486993+486468348+491262566+496054841+499596591
3159+501573735+503389861+506117345+510263492+515206467+519666503+523637773
3146+526843551+529837139+534050640+537385339+539429343+543684156+548960742
3132+551630009+553743118+558557743+563660366+565570766+565745376+568099841
3119+572589080+575725524+577981680+581953940+586460656+589656800+592413144
3105+596054535+600095444+603866936+607606065+611016342+613427424+615171666
3092+617249746+620072264+623296280+626120777+628243405+630031394+632127446
3078+635547889+640039146+643595097+644623115+644537751+646303886+650280867
3065+654845875+657823928+658148629+657258442+656082770+655434053+656922166
3051+659740229+661946507+663957462+666481816+668356083+669139508+669374886
3038+669065339+668266531+667172111+666481892+666359444+665338432+662822606
3024+659945299+657400156+655070896+652700288+649364104+644636746+638907718
3011+631790789+623352135+614005475+603382283+591562022+578758938+563902483
2997+545908062+525999853+504766072+479896155+451362040+421679477+391650396
2984+362627173+337111890+315558947+298615522+289112584+289327116+299955600
2970+320622068+349035371+381155631+413445018+444144671+472236472+495911490
2957+513423733+524811122+530587591+531988323+531245256+528387367+522311935
2943+513928756+505799687+499443606+494037147+489869449+488201662+487653310
2930+487257904+489161526+493746751+497557156+498785599+499057262+499698136
2916+500723793+501687426+501674138+499573517+495154983+488939703+481957711
2903+476720609+474555680+473643904+472689675+472036046+471649055+471639574
2889+472512019+473717617+474908670+477785406+482812794+487393716+490932458
2876+496429192+505623211+516963312+528066207+538705123+550396464+563401039
2862+576300795+587505083+596956373+606194026+615766736+624340745+630879737
2849+636575145+642564262+648086011+653244299+658767648+663957766+668491705
2835+673189136+677618522+680816799+684223649+689286294+694806672+699301013
2822+702917884+706617834+710748333+715062047+719241129+723413129+728388887
2808+734044812+739170051+743517347+747848576+752560476+757095100+760539416
2795+763517697+767685052+772659363+776727724+779411535+781263186+782829047
2781+784636759+787439973+790542377+792105269+792408496+792351917+791800443
2768+792278509+794888684+797205531+797288382+796463607+796400555+796862021
2754+796773307+796029783+795707367+797013787+799688384+801977284+803075055
2741+803545278+803645567+803458163+803245249+802834042+801646415+800176426
2727+800794455+804296797+808097035+810357151+812165168+815195307+819591110
2714+824369489+828293546+830572014+832006594+833456479+834780642+836172045
2700+838151779+841272460+845385749+849313994+851946024+853963299+857716706
2687+862426626+864963317+866173332+868215127+870427040+871965259+873048257
2673+873985581+875103683+876184853+876311794+875210825+873499138+872216172
2660+872475537+874400138+877492034+880927441+883588255+885587407+887612449
2646+889768012+892183549+894317181+895280319+895651014+896202413+896669894
2633+896718858+896035569+895373374+895826387+896513559+896948601+898129375
2619+899902134+901154488+901603389+901217920+899891321+898870080+899439602
2606+901082755+902356736+902470731+902238399+902579701+903574594+904683939
2592+904839817+904334108+904376143+904878196+904909494+904138176+903250959
2579+902502257+901765740+902151056+904001031+905298770+904996837+904455338
2565+904219960+903702144+902873257+901597982+900464498+900426575+900377992
2552+899114596+897146437+895247727+894319313+894331725+893925087+893583481
2538+894138458+894266541+894074721+894719707+895720310+896195940+895857913
2525+896035036+897457584+897999997+897055134+896716498+897518047+898027487
2511+898076527+898995955+900449116+901119840+901845316+903148157+903761693
2498+904205111+905556307+907261370+909155283+910700051+911075011+911168903
2484+911736978+912783119+914366647+915564783+915704821+915961902+917329775
2471+919082659+920639078+922413436+924205157+925888973+928070960+930188981
2457+931955344+934585774+937305985+937989807+937120485+936308884+935740276
2444+935076329+934675935+935102753+935805308+936066044+935947860+935180502
2430+933925102+932634901+930787668+928129062+924974723+922470777+921660470
2417+921097345+920158879+920436596+921435296+922027435+922755728+923357232
2403+923484326+923978688+925098999+926665393+928651980+930556859+931596832
2390+931641836+931395417+931157374+930951542+931260480+932364114+934818487
2376+939151163+943527396+945962351+948816585+957464574+976123551+999822023
2363+1016503932+1024485537+1025952785+1023521409+1023653833+1022974351
2351+1009497573+984751589+965378634+969945013+994394318+1009553391+1011634860
2338+1007548909+999634772+993632215+993811166+995789453+993454558+988023655
2324+983291804+981599154+981393931+977630320+969764462+964131916+964237383
2311+964426766+960723314+956775954+953946240+950811929+948064913+946217528
2297+945202836+944079479+940752205+936612188+934754598+934469799+933179522
2284+930138646+927325152+926880668+927971966+928318826+926913107+924711398
2270+923407948+922980826+921693976+919265113+917940798+918057154+917018704
2257+914753258+913803141+914269404+914184269+913663026+914173532+915180380
2243+915023436+913931453+913634775+913877920+913016822+911519419+910972513
2230+911681008+912496340+912081402+910700431+909553925+908566800+907395240
2216+906781019+906593006+906044730+905696955+906543890+908071295+908330356
2203+906754671+904743869+903083887+901973552+901535844+900891087+899784102
2189+899725010+900866795+901318590+900665075+900032578+899780219+899770319
2176+899832457+899864745+900107890+900478128+901003560+901622426+901327728
2162+900260341+899418433+898404198+897181086+896539679+896070370+895279329
2149+894761741+894597487+894338502+893876199+893067949+892164512+891687131
2135+892122477+893692679+894947165+894644243+893822438+893317491+893157120
2122+893771494+895298366+897047824+897976847+898068684+898357366+899168206
2108+899914242+900146802+900057860+900098371+900326972+900466401+900590297
2095+901251959+902464868+902986415+901975760+900896341+901164616+901889102
2081+902222865+902703977+903632620+904519380+904871571+904508948+903959834
2068+904160564+904993182+905904386+906949233+908137393+909590249+911384634
2054+912886758+913513849+913260881+912723494+912640720+912556803+911922249
2041+911534877+911993982+913080863+914335045+915289731+916038584+916586099
2027+916399609+916191797+917234436+918274713+917650288+916642069+916785458
2014+917307463+917408056+917614802+917809745+917167652+916286679+916286908
2000+916935473+917715167+918153559+918137263+918571544+918706557+917448644
1987+915789195+914201022+913120918+912837947+912382421+911825768+911736216
1973+911730048+911557722+911473653+911719692+911977001+911654127+911428877
1960+912335589+913620535+913978589+912839850+910781759+909508616+909419141
1946+909091165+908094445+906860214+904206177+899754785+895320907+891562550
1933+887423066+882525133+878293127+875911781+875666732+877473530+879652166
1919+882262493+886170255+888989917+890435995+892507717+895342381+897631662
1906+898189609+898305432+899818065+901905778+903356349+904577711+905345373
1892+905126520+905885044+907502840+907130393+905720714+905169849+905365857
1879+905744549+905734269+905150735+903792381+903568730+906956543+910172563
1865+909535421+907900264+906757793+905357786+904311492+904342790+905262523
1852+905330296+903314087+900115048+899517427+904387718+907621785+905334332
1838+903088151+902321555+900320195+897974182+898806876+900306107+899369545
1825+899381500+899422469+897531068+896216653+895685586+894050429+892106714
1811+892174487+892971467+891778282+889123407+887312268+887988399+889454657
1798+888068204+883765379+881790443+885399546+887386819+884067159+880839488
1784+879163058+877138549+875606117+873364810+867933298+863147305+864647830
1771+867444723+866058346+863009398+858952155+857594258+859722407+858940809
1757+856949272+855028707+852203333+854217943+860210905+861870202+859610010
1744+856826443+855628231+856190747+852153227+846161788+850326554+855890490
1730+852181707+846938969+842957266+839965735+836079828+830224164+829512471
1717+835840414+837432928+831650595+823600151+816431974+812936866+810165178
1703+802897246+798907928+801379816+799867107+797213831+791901188+782018664
1690+773002036+763566357+757828038+762260317+761776921+751663816+741835130
1676+737646148+736116686+731299167+727857288+727912115+724079589+719000954
1663+718488620+718322767+714222575+707459666+705338523+717862595+724574637
1649+717899833+717424279+724226101+726153139+724837581+723260830+725117050
1636+737437118+749346588+750127196+749789169+754285718+759834424+766216358
1622+773080013+774902498+777318720+788147629+796045089+796119335+797183448
1609+801021380+803993874+805829533+808147599+810648880+812849599+814989323
1595+816878438+818092032+818725976+819539405+820825950+822096732+822709050
1582+821515407+817999358+817717605+824640733+826252817+821022568+821267769
1568+824955154+823718716+818423359+810428960+809394394+824012729+830004244
1555+824125430+819154850+816090748+812963290+808440698+804196356+802221191
1541+806283232+815099054+812560460+803539186+800930306+800710995+796426141
1528+793132373+791588062+788733295+788433114+789476970+786688987+782706522
1514+778283457+772047959+764352143+760718900+767100072+767894616+757249074
1501+746356199+740230508+737314669+730948956+719144191+707650877+699908838
1487+693556070+686807172+680956152+676678152+672077202+665714154+658427108
1474+651603659+644234753+634005444+623873607+618457438+615991453+610142679
1460+601731934+598966033+604430556+607032203+606456627+608659631+614807176
1447+622375366+627837376+630306827+629451250+627398146+628477374+628428486
1433+622731365+617220657+615196376+613278590+609999861+605974525+602337741
1420+603068966+606476273+605947682+603677438+603481734+604828628+606399477
1406+608920747+612296300+614284601+615961374+618240831+618719012+616921809
1393+611781149+601996629+589472976+575793031+561423057+549824619+546968177
1379+554905044+569633263+587022905+604351285+619129077+632867390+647778215
1366+662749884+677460283+690625915+698590767+701781125+703177630+703084271
1352+700351419+695101523+688408443+681274610+674766725+671006388+671453081
1339+674419026+676827634+677669390+677883522+678108391+678267087+678456470
1325+678554551+677988075+676711049+675493952+674851708+674784772+675236415
1312+675953362+677113803+679380011+682866666+687469825+693056225+698985298
1298+705045652+711524905+717903031+723396757+728210240+732744407+736053025
1285+736960574+735921744+733940030+731822847+730696139+731753855+735839121
1271+742310454+749642809+757647716+766114470+773758352+780174248+785575225
1258+789898458+793517080+796851665+799678789+801778230+803622950+805775467
1244+807960880+809725492+811307192+812791040+813830937+814445539+814897715
1231+815394438+815959543+816562494+817390772+818193159+818514129+818521439
1217+818400818+818446584+819323902+820751857+821333105+820447183+819305093
1204+818938510+818547558+817441716+815863061+814002426+812292185+810801103
1190+809076622+807220479+805001788+801855750+798091530+793599930+787280516
1177+778525536+766908632+751368965+731623107+709332029+687763305+671536389
1163+664533837+666647213+674385901+684124731+693884274+702658367+709113556
1150+712562898+713533194+711918674+707022568+699075611+688455122+674448344
1136+657255320+640273839+628299146+625038198+631080239+642627466+654897047
1123+664891054+670025050+668528257+661222554+650601533+638744110+626626105
1109+614200455+600861736+585674869+567053700+543753071+516338658+487634806
1096+461759487+442322338+431878479+431773659+441640420+459722337+483237517
1082+508670750+533424501+556555736+577019227+593719374+606058822+612291236
1069+610534583+601005658+583910068+556711576+516440546+464328922+407194480
1055+354741783+315486091+293987387+291310314+307244626+340482036+388203796
1042+446151133+508498157+569567813+624982609+672061287+710884335+742820503
1028+769065794+790740138+808589494+823475570+836273629+847038040+855779921
1015+863077628+869278935+874632622+879439785+883394074+886405785+888913463
1001+891069559+892935068+894617057+896342147+898249310+899847306+900544912
988+900578113+900623802+900431144+899480114+898234080+896996347+895273237
974+892537492+888568963+883404811+876968431+868157634+854624734+833683938
961+802370368+759922605+713608658+677915885+665228548+678010082+708995981
947+747536211+785051469+816682353+841060916+858853694+871578344+880882741
934+888169102+894350991+898732555+900549557+901187537+901992893+902647550
920+902493195+901417356+899929472+898481185+896625499+893875742+890309435
907+885620760+879796317+873260714+865364244+855223954+842533952+826194106
893+803898840+773650144+735260309+691256204+647183412+611692892+596432541
880+610881672+653525596+710770797+766489658+810849381+841485983+861189350
866+873999744+882045696+886771683+889498291+890626978+890556387+889727501
852+888368309+887097146+886576132+886298034+885026186+882917836+880849921
839+878518225+875633759+872460764+868710175+863808358+857800775+850775531
825+841498852+827684046+807846580+786297959+774082063+778188271+793684228
812+809176454+817256901+818410870+816653036+815857503+818011542+822467047
798+827484002+831590818+833749046+833800370+832900436+831729486+830205964
785+828993817+828047279+826352497+824204930+822615691+821631459+820960049
771+819937438+817853456+815590751+814451403+814316999+813836420+812074017
758+810013260+808849164+807949382+806381388+804681123+803680976+803125923
744+802487866+801862679+801253408+800277400+798937550+797700274+796813133
731+795767982+794406429+793312162+792510308+792058285+792154005+792127961
717+791395175+790460136+789892442+789500577+789119296+788876684+788712201
704+788469209+788274723+788496013+788934558+789118383+789270377+789912088
690+790797174+791717364+793037414+794431178+795669749+796696777+797172178
677+797153902+796682765+795406652+794653382+800258058+807996442+804180745
663+798910517+797620774+798491848+800201860+802378364+804448639+806428525
650+807762282+807795712+807762282+808984481+810328367+811144384+812226011
636+813514155+814759960+816328030+817892292+818642974+819579764+821905292
623+824226709+825842067+828639950+832559743+835150729+836578531+838592608
609+841470448+844289577+846333809+848367381+850994080+853604179+855885159
596+857716935+859279598+861405690+864234643+866815500+868674994+870610789
582+873145195+875680820+878093920+881623676+886326285+890293443+893220400
569+895385177+896230512+897310463+900160052+903662166+906696722+909288087
555+911492005+913681150+916282339+919173429+922495145+925968702+929014756
542+931657295+933884514+935955779+938581336+942337637+946298322+949132757
528+951223364+953036559+955136761+958184643+961306162+963549448+965669754
515+968741166+971713736+973190350+973666132+974259641+975743108+978173494
501+980476178+981350069+981256862+981837959+982704159+982219467+981588188
488+983673541+987972939+991051890+992397299+994677823+998489484+1002326731
474+1005377354+1007376278+1007791901+1006846277+1006172050+1007024696
463+1008730139+1010834301+1013952164+1015911413+1014076364+1010650476
451+1007508930+1004633450+1003403713+1003447042+1000632406+994018140+988397701
438+986676038+987279827+987902958+988467454+990380176+993550506+997609348
424+1003236641+1009802780+1018958915+1033453811+1046339898+1053446622
413+1058896715+1062611285+1064661457+1069401989+1073741823+1071775263
401+1069452629+1072301989
##END=
