##TITLE=павел 10-многокр
##JCAMP-DX=4.24
##DATA TYPE=INFRARED SPECTRUM
##DATE=3/2/2015
##SAMPLING PROCEDURE=Instrument type and / or accessory
##ORIGIN=Default
##XUNITS=1/CM
##YUNITS=TRANSMITTANCE
##RESOLUTION=4
##FIRSTX=3996.3347
##LASTX=399.24773
##DELTAX=-1.928733
##MAXY=1.0565494
##MINY=0.17825677
##XFACTOR=1
##YFACTOR=9.8398834e-010
##NPOINTS=1866
##FIRSTY=0.92456698
##XYDATA=(X++(Y..Y))
3996+939611731+941639949+941204176+942782203+946991770+948664536+946363370
3983+942191056+940007889+943368080+950006505+954703940+955958438+954883967
3969+952659367+950520419+949100976+950018923+953331139+954366661+952891004
3956+953285708+954655298+954611806+954961200+957570509+959960296+960603900
3942+961341759+961101823+958825795+956104241+954658751+957330694+962112206
3929+961243870+956715014+957686388+960730925+957725701+954927763+959806436
3915+965776603+966283793+965041652+962732187+956375615+952893124+960326650
3902+971115825+976160715+976239644+970669209+962752298+961987968+963187223
3888+956692420+956409840+965715422+966785411+964891790+964053196+957738240
3875+954082202+952742536+951820167+956357564+955797007+949994814+950037277
3861+953709730+951389240+938329732+929487847+951097876+977741771+974935171
3848+961517243+950208763+942877850+939433218+937911283+940766343+945353047
3834+946412981+948133540+950087069+948813005+946451264+939021614+929983408
3821+932458423+935671418+937678434+948045101+950672401+941765217+933991201
3807+935604241+936217134+928188826+931025835+939355743+935775303+932566791
3794+932607012+930105950+926065628+921451725+919044008+919404851+919579306
3780+922008648+926444037+925084260+917497722+910142519+909672581+914767143
3767+916850665+915352959+911415371+907216586+908158581+908269433+899194518
3753+888585008+893489486+907082293+901745433+891986329+902267646+907839838
3740+896261256+887925532+891599803+897563548+897909732+892240439+885111360
3726+882921348+882027026+877952782+874709621+870493269+860639850+846411435
3713+836691583+837353723+837014506+828245069+816687749+809997169+808297447
3699+801485779+786510662+769046778+750991142+733315612+724385409+723705581
3686+717880491+706982706+696251926+685025827+674433460+672345697+674123439
3672+667799941+664051286+665599995+659738257+649685063+642313808+635015908
3659+626086978+621565088+619598778+610566992+600744648+603012741+609070195
3645+604592464+594664054+586668396+580648983+575405892+571969256+568603674
3632+562151819+559178396+563682658+561309893+551309218+543491891+540210568
3618+537449641+531086043+523190332+516207117+510564538+507399730+505144903
3605+501381255+497167751+493693740+489095860+483336068+479424225+475567868
3591+468775826+464125851+465625041+464347372+456078553+447980857+442785500
3578+439445420+437451366+434990344+430134476+423585641+419110182+418237727
3564+416764281+412601508+407993602+404082334+399864014+394968561+390410871
3551+386254973+382009818+378900830+376211441+371956655+368106719+366824265
3537+366323949+363171074+358113736+354729618+352727266+350284295+347548294
3524+344831132+343016803+342919641+342757756+340505292+336005118+329931581
3510+325219608+323988370+322601788+318660687+315331299+314316433+314079616
3497+313907252+313541896+311553900+307983303+305425240+304460561+302845825
3483+299991219+298068432+297547763+295524604+291420073+287974562+286385026
3470+285264881+283262681+281429271+281070670+281040049+280047142+278607709
3456+277171910+274730998+270873702+267547857+267101332+268664973+268614363
3443+266431801+264819943+263993010+262610335+261210003+259934031+257165350
3429+253108657+250445634+249687650+249196526+249640886+251626262+251869817
3416+248526284+244817017+243842176+245029755+246148824+246265233+245250579
3402+242931740+240794413+240307242+241191494+242049154+241799239+241901943
3389+242670906+242309821+241603310+241465609+241418528+242222079+244308463
3375+246933280+248189338+246416442+243946879+243312179+243556612+244438350
3362+246182549+246805331+245199454+243526310+243842161+244781021+245065464
3348+246259206+248409557+249643839+250596147+252387790+253718795+253840640
3335+254186657+255672732+257512715+259337250+261441307+262852421+262280083
3321+261077405+261398178+263209599+266104668+269124945+270867130+271971040
3308+273119867+274268784+275711640+277195474+278592474+280199365+281712124
3294+282764213+284484227+287876795+291009892+292448992+293594638+294723354
3281+295710749+297828466+300371203+302244350+304851963+308465901+311218681
3267+312648482+314209185+316529069+318495410+320233960+322973898+325961041
3254+328713336+331672433+334105500+335743042+337307955+339741053+342953896
3240+345813923+348298691+351304854+355565335+360257833+363774881+366795371
3227+370828939+375400439+379425102+383218583+387233918+390986966+394025657
3213+396232146+398314305+401817331+406848561+411440112+414600498+417586641
3200+421905485+427146637+431464451+434811073+438110387+441374053+445305310
3186+450183348+455005324+459362875+463231438+466670588+470517253+475059738
3173+479625181+484275065+489460700+494788201+498929561+501862187+505505988
3159+510049897+514463479+518611563+522566172+526768410+530945207+534504264
3146+538076406+542314503+546950818+551147605+554917340+559047616+563589616
3132+568370522+573067049+576579221+578650023+580727063+583775901+587647341
3119+592071948+596603590+600581218+603479104+605768034+607886144+609920238
3105+613099735+617338923+621267485+624646515+626725252+627527743+628973536
3092+631402576+633947494+636888267+640206965+643302687+645680420+646546817
3078+647251481+649933601+652944519+654300723+655375739+657512445+659921556
3065+661614614+662709196+663973871+665819517+667763657+669339807+670356187
3051+670135029+668552156+667587446+668739634+670070457+669557996+667983664
3038+666073991+663321120+660493743+658589219+656398358+653384230+650390333
3024+646676992+640925257+633759168+627248071+621701441+615088276+606247300
3011+595819090+584281032+571421602+557685294+543423563+527910543+510348711
2997+490505762+468795119+445011675+418199716+389115333+359940149+331247593
2984+302801060+276697975+256225354+243602361+239249050+243021270+256901790
2970+282175337+316124250+354857430+395064420+433360798+466183205+490896347
2957+507559586+517908050+522692046+522292557+518421904+512703849+505526977
2943+497330757+489583878+483365568+478160610+473863512+470815583+468445028
2930+467500913+469834729+474985868+480668093+485360288+488335316+489411301
2916+489215494+487682837+484295327+480025215+475778788+470627196+463952426
2903+457179132+452814070+452095505+453279676+454261741+454941599+455605890
2889+456703622+459034500+462385666+466149223+470923254+477782140+486541007
2876+496326431+507628369+521370613+536765754+552922560+569438573+585175900
2862+599844631+614018227+627233109+638203159+646844723+654782351+662967547
2849+670597880+676813373+682864709+689993061+696333217+700349612+703654256
2835+708300082+713840653+718988702+724746615+731738917+738276303+743376316
2822+747569105+750980299+753313691+755242022+757784699+761994145+768078555
2808+773845130+778249566+782639888+787105443+791312951+795902563+800993066
2795+805897545+809599618+811803502+814066930+817352373+819825147+820879507
2781+822248734+823965235+825429746+826767595+827618425+827721947+827221420
2768+827165691+828296557+829307425+829558931+829977137+830282554+829995673
2754+830001064+830246331+829855019+829408827+829978833+831195352+832025587
2741+832711654+833712467+833948283+832441189+830644366+830483601+831456670
2727+833253857+836347035+839662522+842756731+846093964+849295026+852150328
2714+855005327+857659704+859495113+860950477+862930295+865510286+868248134
2700+870713094+873092099+876403527+881147059+885516483+888088539+890619525
2687+894112374+897487709+900474821+902723712+903825078+904881922+906461222
2673+907943299+909327185+910557091+910577989+908675343+906516345+906842720
2660+908997236+910373732+911351162+913304691+915734397+918065729+920431589
2646+922776369+925001091+927280995+929030509+929430544+929516802+930298698
2633+930540148+929539699+929160018+930660631+932443703+932883959+932684184
2619+933153273+933898037+934119680+934469134+935148478+935469886+935999126
2606+937274220+938079498+938067202+938297567+938417989+937548138+936292549
2592+936180607+937446010+938286905+938234084+938443430+938488316+937838412
2579+937261318+936544358+935456257+935095112+935382598+935235402+934713492
2565+934454596+934575685+934743052+934630081+934069282+933102815+931747278
2552+929941672+927968941+926433436+925378349+923851022+922161720+922117742
2538+923111589+922888069+922137732+922789030+924083447+924857469+925626220
2525+926702690+927509240+927343266+926467176+926149463+927058263+928255276
2511+928592192+928819528+929841603+930884090+931803794+933282540+934953367
2498+936375355+937545352+938204342+938679065+939755717+941694466+943910162
2484+945235533+945845094+946891580+948325804+949750759+951047115+952367822
2471+954198263+956423409+959005338+961902558+964418097+966632218+968855304
2457+970895212+973500947+976692741+978037375+976786147+975637957+976063432
2444+976820372+976601455+975389298+974041151+972955534+971882032+970940704
2430+970351495+969091181+966128117+962434887+958821070+955407816+953446351
2417+952932195+952333294+951795150+952144907+953362516+955318105+957395751
2403+959015817+960558651+962279392+964012551+965521160+966592300+967310229
2390+967730980+967835774+967367411+966381621+966145381+967298780+969608548
2376+974050722+979945291+984357420+987896851+995354850+1012578131+1036709939
2363+1053503020+1056433859+1055505372+1064520924+1073741823+1068162423
2351+1048794076+1022425371+1002809214+1007248661+1029127339+1039163329
2340+1039230082+1037480084+1035222470+1035122401+1035188428+1032717350
2328+1028992863+1027015952+1028259911+1028714705+1024387744+1017318574
2316+1009499369+1003478199+1001976617+1002088195+1000151203+996099674+990715809
2303+986231233+984006027+982258149+980242288+978521426+976439782+974123896
2289+972442044+970791933+967993449+964215052+961033616+959619564+959695403
2276+960112217+959395741+956951195+954148532+952279443+950473898+947948182
2262+945466200+943262317+941172556+939653467+939109205+940000135+942022174
2249+943471117+943646905+943486261+943180783+942315476+941471006+941150325
2235+940877800+940324754+940040115+940409922+940245281+938808028+937671286
2222+937710115+937621373+936772966+935869678+934504994+932181173+930323958
2208+929961358+930396284+930178760+928732119+927414986+926824809+926120872
2195+925280037+924511527+923776213+923179917+922579381+922056744+922008527
2181+922282323+922231744+921774164+921794396+922607548+923105713+922945009
2168+923312636+924204293+924133300+922968209+922143850+922349804+922417041
2154+921221179+919886358+919281824+918288704+916776885+915790671+915320007
2141+914664408+913693762+912795260+912382929+912999880+914606862+916240013
2127+916951158+916643621+916596070+917901330+919894960+921349536+921992959
2114+922785456+924244757+925378773+925714962+925894929+925869306+925267195
2100+924716269+924961051+925614650+925863612+925948053+926362685+926508064
2087+926306048+926830563+927769650+927831739+927928174+929619476+931994906
2073+933382912+933462264+933061382+933443971+935012367+936845655+937983548
2060+938341301+938536775+939403658+941203267+943294542+944528385+944548799
2046+944288934+944234720+944177477+944237385+944807331+946067221+947504049
2033+948616016+949336974+949506947+949343577+949627005+950425984+950577783
2019+949699755+949319347+950180111+950896951+950661982+950150975+950032310
2006+950195376+950212701+950294900+950401814+950196103+949999963+950088159
1992+950211731+949606955+948556774+947849748+946971114+945873746+944551707
1979+942784565+941673023+941604694+941636799+941277289+940780759+940960302
1965+941721543+941479547+940384178+940386359+941564594+942361876+941905871
1952+940327722+938436161+936958263+935412280+933538649+931593600+927968698
1938+922317638+916668881+911174285+904820924+898340356+893574048+890988242
1925+890420295+892078644+894665662+898295652+903866269+908648932+911256908
1911+913328437+916028244+919104643+921301561+922652676+924160013+925681161
1898+926878962+928548700+930457827+931448645+932916306+934920233+935155020
1884+934546125+934520501+934796843+935052588+935019212+934382937+932682004
1871+932010898+935159745+938190653+937195170+935704068+935518588+934815076
1857+933771437+933441366+933282297+932084133+929681504+926300596+925407667
1844+930746526+934418857+931679495+928709525+927310132+924714028+921836192
1830+922493850+923969446+922516444+921854970+921256070+918734230+917548302
1817+917625231+915718102+912409036+911216929+911717275+910365372+906937217
1803+904108204+904157511+905654611+904079612+898690235+895703849+899369518
1790+901440319+897147098+892644895+890264618+887850905+885730614+882558870
1776+875660157+869090908+869842456+873187625+871838145+868138494+863307614
1763+860791347+861969522+861163457+859825668+858697830+855650325+856058900
1749+860411181+861341364+858795961+855625066+853616414+853226253+848522943
1736+841764217+845469440+851714494+848250781+841905234+836549233+832486801
1722+827000807+818646366+815377218+820302837+821507605+815446031+807218009
1709+799787875+795285551+790761783+781506114+775198547+775162808+771716601
1695+768359318+763650616+754341096+745317306+735270473+727898491+730966531
1682+730923280+721349110+711262056+706331227+703919028+698367189+694886091
1668+695980370+692957155+687586313+687061495+688322900+685537622+678586329
1655+675750108+689398037+698006589+691749723+692011587+701070570+704815167
1641+704402836+703937503+707229002+720978576+734414676+736942755+738500005
1628+744377553+750697962+758399651+766904136+769288955+771683891+783132419
1614+791975939+792769466+794462464+798848485+802588115+805326932+808121115
1601+810772705+812685528+813873455+814995841+816098419+816524621+816660066
1587+817117707+817241824+816418798+814336487+810264787+809124048+815890406
1574+818031050+812372055+811498146+814382221+812859983+807398945+798155815
1560+794747346+808216883+814545288+809204309+805037204+802222729+798487158
1547+792862630+787084242+783199051+785590292+794103014+791860060+782542605
1533+779490375+778845256+773313104+768049782+765165343+762067198+761517181
1520+761790190+758798171+755177570+750179019+742215224+732351507+726307258
1506+730980887+731721108+720894377+708463148+699822613+694534577+686656676
1493+673851338+661110210+651919174+644983873+638746694+633206728+627973572
1479+621629963+613676950+604832158+595993484+587348042+577284430+567339301
1466+561826776+559246118+552567351+542536206+538570936+545017158+550113779
1452+551548184+554754455+561447761+569785968+576093171+579174235+578329341
1439+575088361+574381516+574002320+569292043+564028055+560554710+556993896
1425+553498927+549889774+546019303+545594312+547666325+546624746+544025674
1412+543000934+543608436+545176772+548275341+552349464+554621736+555806817
1398+556679454+554477872+549896437+544169054+534781453+520797093+503779462
1385+486951309+475840665+476144931+488222011+506931792+528316817+549730887
1371+568711799+587121009+606472153+624943209+642672772+658227952+667222545
1358+670084207+670329413+668853817+664646007+657675027+649005659+639967453
1344+632114751+627684510+628207268+631863851+634916990+636275071+637045640
1331+637763872+638229569+637895803+636593027+635163467+634092570+633054201
1317+632221241+632185259+632847945+633806900+635569014+638937504+643853249
1304+649977578+657103810+664861470+672857371+680681360+687921412+694258963
1290+699674206+704272419+707215010+707408909+705343377+702324342+699301612
1277+697539983+698473740+702823658+710351196+719841955+729982013+739675272
1263+747793049+754007694+758700101+762255887+765158498+767773441+770210234
1250+772840380+776072638+779227603+780923569+781516472+783010846+785317404
1236+786481404+786330634+786011164+786023279+786276178+786760592+787677630
1223+788666691+789230883+789784352+790769840+791784584+792317580+792470652
1209+792576415+792361799+791339119+789591301+787391961+785155367+782984739
1196+780236532+776987253+773845373+770569380+766889053+762836737+757999678
1182+752048592+744953496+735975985+723967324+708244838+688319750+664303942
1169+638030461+613462637+595687219+588452195+591861209+602211218+615015708
1155+627239832+636623072+642372747+645264636+645473376+642467001+635928766
1142+625740915+611867891+594328168+574529379+556500880+544721554+541681318
1128+547740953+560343063+574259943+584629033+588535970+585085099+575762192
1115+562915845+547909895+531976670+516363036+500488235+482453618+460825144
1101+434893667+405533761+375740474+349125776+329073361+318336735+318161523
1088+328310273+346890061+370623015+396577602+422753135+447356364+468817198
1074+486236832+498511657+503434581+499185458+486326967+465976464+435758308
1061+392178164+337852157+281951302+233809638+199414806+181837573+181157396
1047+196092459+226559547+272843465+333275871+403173383+475994706+545467045
1034+607189598+658875554+699798141+732676792+762258674+788925950+810182043
1020+826422805+839281448+849358750+857617544+864979956+871462341+876931071
1007+881519169+885455727+888788538+891323401+892897794+893526982+893535099
993+893758134+894528521+894742713+893494393+891074076+887960908+884559163
980+880967032+876677627+871352701+865021389+857254884+847420425+835411158
966+820561006+800488238+771474667+729605542+675358918+619138593+578163306
953+565965471+584322526+624014177+672634699+720494101+761576423+793186824
939+815706926+831715506+843720714+853098804+860157859+864184067+865295731
926+864859049+863581592+861609649+859441807+857406926+855180630+851781671
912+846307671+839511268+832755449+825380075+816204364+805521013+793307852
899+778456670+759761912+735825154+705128580+666551197+620079861+568797997
885+519547985+481689198+466831989+485164057+536075023+604945250+673165332
872+728632715+767673251+792737664+808135047+816694412+820583661+822109352
858+822780155+822566811+820749393+817564323+814061963+811156081+808838257
845+806146688+802632153+798741631+794548540+789698276+784007237+777449619
831+770480578+763226352+754343095+741664843+722625053+696233753+668975027
818+654460518+660210981+678770052+696429530+705763280+707477600+705635104
804+704707042+707221370+712138145+716772280+719530057+720561884+720406025
791+719354391+717855534+715954281+713434198+710581803+707674104+704849453
777+702406724+699977200+697081131+694185849+691670067+689417118+687250973
764+685010805+682644763+680281266+678139895+676017363+673519450+670717878
750+668435611+667358716+666460517+664647460+662788125+661822809+660763481
737+658298279+655224969+652878796+651077248+649447187+648170639+647176005
723+646196151+645391479+644492674+642604081+640324540+638996746+638459934
710+637645752+636381864+635550296+635359911+634984106+634084392+633243376
696+633028033+632917000+632366862+631971128+632125533+632426285+632535077
683+632749148+633189706+633226657+632581780+631728709+630791076+630409880
669+634026604+638905702+636309720+632495946+631257015+631823993+632901553
656+633827496+634380905+634847692+635109920+634899544+635012637+635900054
642+636563951+637011173+638148278+639696382+640903511+641805890+642906106
629+644297382+645829554+647611294+649331126+650335513+651615090+654442164
615+657599552+659827483+661509154+663437847+665785050+668009226+670232312
602+672571943+674307889+675265512+676103560+677512464+679904007+683094287
588+686098360+688505653+690815603+692888100+694966595+697819958+700956569
575+703703322+705820281+707565736+709696325+712493051+716035754+719243479
561+720977607+722731421+725474540+727783520+729444171+731441314+733351350
548+735244366+738277151+741943244+744837859+746814164+748878242+751454659
534+754071055+756480165+758919684+762173688+765688344+767617643+768288385
521+769413921+771475878+773701750+775816287+778182207+779919970+780454782
507+781016308+782563382+784599777+785584719+785042092+784726802+785364591
494+785544679+784687853+784244265+786123166+790144468+793867319+796454579
480+799123917+802266343+805390899+807280037+807040828+805887913+805626897
467+806585066+807716537+808052908+808344090+809468717+809702353+807975191
453+805659911+802652384+798988412+795499379+791285874+785407902+778754394
440+773071290+768637840+764568381+761878145+761653474+763506207+769091785
426+779432829+791436462+802198742+813881512+829269021+841105408+845770254
413+850943986+858085301+862079465+864993524+869690232+873116934+874529593
399+875572202
##END=
