##TITLE=3
##JCAMP-DX=4.24
##DATA TYPE=INFRARED SPECTRUM
##DATE=16/11/2015
##SAMPLING PROCEDURE=Instrument type and / or accessory
##ORIGIN=Default
##XUNITS=1/CM
##YUNITS=TRANSMITTANCE
##RESOLUTION=4
##FIRSTX=3996.3359
##LASTX=399.24785
##DELTAX=-1.9287336
##MAXY=0.89878231
##MINY=0.36386043
##XFACTOR=1
##YFACTOR=8.3705626e-010
##NPOINTS=1866
##FIRSTY=0.70277476
##XYDATA=(X++(Y..Y))
3996+839578889+839556601+839615845+839761108+839898254+839900105+839863006
3983+839986053+840195047+840319873+840421059+840576363+840711372+840812700
3969+840997911+841265651+841429285+841434270+841408778+841390549+841422663
3956+841571131+841712905+841739750+841795861+841928022+841829685+841689762
3942+841943759+842173261+842080478+841887434+841753493+841968682+842342023
3929+842250663+841941125+842061892+842310691+842193413+842114301+842387880
3915+842545249+842379335+842373710+842470481+842170413+841995456+842465283
3902+842924500+843107716+843166391+842644868+841899326+842181663+842822174
3888+842407533+842167208+842598227+842403831+842397849+842753032+842433524
3875+842122704+842071648+842325075+842936961+842720134+842199750+842538342
3861+843049540+842835277+841552261+840590960+842000156+843658648+842979970
3848+841583022+841150936+841466741+841592778+841386347+841702651+842195976
3834+841998233+841720239+841716821+841673527+841667902+841329310+841144242
3821+841851118+841770084+841169948+841697738+841941623+841078090+840512489
3807+841134059+841427149+840708168+840977830+841634149+841190384+840784502
3794+840653409+840334471+840126616+840048858+840096424+840222390+840098489
3780+840049499+840319731+840331409+839898112+839445873+839464387+839713542
3767+839677012+839535523+839178916+838879418+839361350+839749430+839027814
3753+838281987+839115399+840248808+839286012+838232854+839209251+839444022
3740+837895544+836972838+837393603+837893978+837889705+837394315+836686584
3726+836422618+836495321+836449107+836438640+836421692+835981346+835109054
3713+834737138+835150639+835132838+834251930+833074586+832327976+832076400
3699+831484595+830418050+829269117+827946297+826569287+825896448+825762791
3686+825032915+823900004+823288261+822968041+822623397+823198112+823845886
3672+822985487+822545567+823208865+823141004+822619908+822596694+822621261
3659+822379084+822596765+822886865+822118465+821425474+821975409+822358505
3645+821503019+820320263+819693566+819388157+818987616+818612851+818064268
3632+816993237+816613061+817313600+816914553+815239184+813776725+813141270
3618+812873245+811949827+810590477+809351396+807972036+806685887+805507119
3605+803900180+802172474+800794325+799417457+797807528+796316373+794812329
3591+792726164+790494523+788875479+787285986+785220329+783189421+781335606
3578+779373556+777335599+775373335+773249074+770885556+768849949+767075530
3564+764725044+761968674+759519707+757322459+754976672+752455216+749976413
3551+747414796+744532532+741639017+738953856+736222053+733311591+730326574
3537+727408706+724526513+721504042+718371911+715328077+712293785+709065737
3524+705789767+702599816+699335880+695969690+692634475+689312505+685959275
3510+682652116+679332282+675814705+672216735+668765452+665299999+661721539
3497+658246117+654921156+651587152+648088018+644426886+640790963+637258005
3483+633646790+629830213+625976608+622282223+618710030+615035298+611090903
3470+607027165+603182034+599620522+596096643+592459865+588737887+585019968
3456+581349651+577728965+574143777+570514262+566921276+563473731+560025831
3443+556502308+552970632+549395591+545854195+542568255+539487358+536422661
3429+533392143+530438315+527466401+524439301+521464752+518600503+515775169
3416+512909924+510035599+507234298+504552376+502017035+499502165+496735970
3402+493794532+491226008+489095232+486992618+484701269+482341027+480287831
3389+478534668+476808314+475004238+473146257+471346881+469726413+468304720
3375+467071265+465907949+464646829+463452217+462673279+462316957+462066983
3362+461704751+461317133+461082504+460984914+460847306+460710054+460887859
3348+461387059+461858666+462223283+462684672+463316104+464131429+465165611
3335+466299732+467421392+468557008+469710498+470884780+472232310+473868479
3321+475643467+477396702+479162148+481010978+482889538+484673284+486388067
3308+488193354+490234409+492602021+495184858+497704676+500066627+502400095
3294+504822537+507415913+510202047+513053727+515870053+518716642+521646722
3281+524605428+527538641+530469148+533454770+536502947+539681826+543105017
3267+546678029+550249297+553815402+557390016+560973816+564596780+568318366
3254+572150360+576023689+579899119+583800718+587816106+591986834+596206445
3240+600377457+604509554+608643859+612834204+617151512+621580687+626063623
3227+630583801+635072719+639475690+643858793+648292312+652747549+657182206
3213+661611880+666059996+670506759+674904816+679270403+683637698+687997873
3200+692353704+696683758+700954140+705184646+709402620+713571531+717673152
3186+721769788+725868560+729905524+733892287+737875988+741781717+745531786
3173+749212571+752918136+756623416+760264039+763800771+767217233+770538349
3159+773827564+777105884+780322467+783436226+786490100+789526172+792508483
3146+795404134+798197318+800876142+803494583+806107255+808668872+811132223
3132+813498447+815785844+818053943+820309653+822504765+824622902+826638856
3119+828574916+830499653+832401818+834222664+835944318+837601458+839238588
3105+840834988+842316886+843696531+845070906+846442077+847717616+848859997
3092+849935087+851016728+852095023+853115212+854019191+854802686+855534414
3078+856238371+856909003+857564966+858161471+858613068+858916554+859146056
3065+859361743+859552508+859637743+859590747+859494901+859383604+859197610
3051+858917978+858530539+857987083+857319585+856606798+855872008+855037742
3038+854019048+852899097+851725598+850360267+848727978+846896807+844943017
3024+842849447+840547595+838002783+835174779+832013595+828491247+824556252
3011+820123303+815145190+809591863+803355087+796289029+788279615+779083599
2997+768789779+757092744+743604699+727909864+709598369+688248167+663351976
2984+634547707+602329681+568636414+536657325+509387967+488044245+471913087
2970+458991284+447533755+438286150+434690530+440544388+457113294+481685918
2957+508639114+532153560+548614872+556984596+557461508+550559014+537417820
2943+520554151+504289514+493671664+491762699+497957391+509204181+522585628
2930+536741172+551407450+566453657+581638005+596709134+611373739+625147112
2916+637278513+647025887+654005998+658308993+660514074+661508843+662049022
2903+662388468+662296539+661287886+658732891+653977657+646584187+636390057
2889+623159855+606439490+586376790+564907992+546409684+536709698+539571027
2876+553648384+574027032+596317386+618452900+639774476+659871926+678356241
2862+695048550+710036366+723707841+736705907+749671645+762908969+776193858
2849+788907237+800479588+810725984+819730452+827634265+834614234+840895443
2835+846699207+852185385+857474390+862635292+867646303+872453020+877042340
2822+881405008+885499507+889335667+892945315+896316774+899497896+902596844
2808+905662966+908695834+911685336+914585331+917318985+919849129+922193207
2795+924327436+926214648+927856478+929247373+930407485+931401897+932302173
2781+933148260+933910963+934542502+935028065+935375415+935622292+935819323
2768+935989152+936146236+936325465+936547490+936808465+937098422+937369438
2754+937574586+937722057+937775320+937676271+937454246+937128400+936759403
2741+936535456+936613998+937075351+937976125+939238491+940566652+941635334
2727+942361009+942887873+943421146+944172171+945259508+946663577+948286893
2714+949943392+951426786+952669427+953743164+954721484+955626459+956456596
2700+957210398+957871203+958381618+958734095+958979191+959114485+959118758
2687+959003401+958772476+958424841+957990475+957563302+957329101+957507618
2673+958148342+959068627+960080414+961105303+962082554+962977632+963806629
2660+964580298+965289168+965955243+966633494+967324989+968000321+968648665
2646+969253643+969825083+970394315+970945390+971443272+971902276+972306307
2633+972623465+972934926+973279143+973567035+973764991+973907834+974028530
2619+974112199+974087063+973981248+973895515+973808428+973676409+973569385
2606+973540688+973534350+973495044+973413796+973285124+973109669+972883586
2592+972663056+972528616+972424511+972274833+972109845+971982598+971937167
2579+971978396+972068260+972221570+972473359+972755127+972985626+973203378
2565+973447691+973666868+973824592+973963518+974115118+974244574+974328456
2552+974385493+974431849+974468948+974508397+974585586+974720524+974920973
2538+975212283+975576865+975958395+976322621+976650531+976965980+977338110
2525+977780095+978247287+978719891+979205882+979706399+980212755+980713628
2511+981199833+981678774+982174378+982697610+983207527+983666815+984119481
2498+984582116+984994264+985326162+985581868+985786376+986004556+986252073
2484+986481290+986692989+986931036+987184606+987430343+987709761+988028485
2471+988333111+988610393+988868021+989144164+989485888+989864569+990237198
2457+990617019+991037641+991466737+991836161+992136586+992397276+992641447
2444+992867744+993120958+993456629+993810032+994105970+994366376+994607200
2430+994824525+995052958+995289509+995497008+995672534+995802417+995874265
2417+995904955+995939349+996009061+996086534+996150835+996229590+996330705
2403+996466426+996649216+996807581+996842188+996890324+997056166+997372043
2390+997813956+998310058+998746560+999023415+999128090+999145607+999108864
2376+998939532+998653278+998393086+998083120+997557752+996984104+996476751
2363+996048367+995538451+994447766+993093115+992829078+995359577+999591294
2349+1001348552+999306179+996839055+996580002+997490033+998209513+998613117
2336+998725127+998612334+998536427+998800891+999357021+999849350+999969334
2322+999854192+1000032068+1000625440+1001107016+1001153372+1001079174
2311+1001194886+1001534617+1001997892+1002404487+1002647660+1002803533
2299+1002992945+1003187484+1003354608+1003527856+1003713850+1003875206
2287+1003983512+1004041902+1004072237+1004092104+1004092388+1004062339
2276+1003998751+1003897422+1003780927+1003676964+1003583682+1003497094
2264+1003448744+1003464980+1003517459+1003552636+1003537896+1003501509
2253+1003530918+1003656670+1003606611+1003626549+1003613447+1003590661
2241+1003603763+1003664147+1003752017+1003860822+1003997469+1004153200
2230+1004313203+1004467723+1004603302+1004722432+1004840494+1004957986
2218+1005058033+1005132088+1005168903+1005133085+1005050413+1004976500
2206+1004872680+1004725850+1004644745+1004697937+1004862995+1005133726
2195+1005506212+1005935736+1006371027+1006756473+1007070996+1007362163
2183+1007649414+1007897857+1008107278+1008309080+1008509956+1008702715
2172+1008889136+1009070074+1009238907+1009370427+1009469192+1009591384
2160+1009764561+1009972629+1010196576+1010419384+1010630016+1010837586
2149+1011067016+1011299508+1011481515+1011627775+1011781369+1011927843
2137+1012043199+1012129289+1012199784+1012295345+1012444738+1012621190
2125+1012785608+1012942834+1013116367+1013285840+1013424125+1013560772
2114+1013734946+1013953766+1014202423+1014446735+1014663277+1014867856
2102+1015086819+1015326219+1015601079+1015769271+1015948501+1016144677
2091+1016322625+1016428225+1016467176+1016469526+1016429507+1016344628
2079+1016213179+1016027968+1015793126+1015511785+1015200039+1014908231
2068+1014702513+1014621977+1014648751+1014775571+1015045234+1015442572
2056+1015898442+1016371687+1016834179+1017263417+1017629139+1017892678
2044+1018056170+1018174730+1018276343+1018338579+1018378028+1018429012
2033+1018520158+1018707362+1019021387+1019428623+1019888409+1020384013
2021+1020866728+1021304797+1021710394+1022055964+1022363224+1022690636
2010+1022990847+1023217429+1023408692+1023602447+1023792714+1023954355
1998+1024087797+1024165485+1024181364+1024231352+1024296222+1024312599
1987+1024355751+1024443407+1024527859+1024593726+1024632534+1024655890
1975+1024695411+1024761064+1024802222+1024819383+1024851426+1024840033
1963+1024760921+1024678819+1024597999+1024468971+1024273791+1024014881
1952+1023684336+1023281373+1022811973+1022246871+1021641252+1021090604
1940+1020549072+1020120189+1019992514+1020113211+1020363434+1020649118
1929+1020956450+1021332069+1021862921+1022554202+1023136964+1023638906
1917+1024248370+1024745113+1025118169+1025534733+1025893262+1026092216
1906+1026190767+1026295371+1026419485+1026527365+1026627198+1026785207
1894+1026946207+1026972981+1026997761+1027041483+1026966857+1026925058
1882+1026960662+1026952260+1026911600+1026927764+1027040628+1027115823
1871+1027156340+1027304096+1027348173+1027183755+1027148579+1027317910
1859+1027473854+1027534737+1027553749+1027598752+1027694811+1027832597
1848+1027816077+1027624458+1027497495+1027258238+1026963938+1027027597
1836+1027374093+1027682278+1027929084+1028272232+1028467625+1028391647
1825+1028426468+1028551864+1028627201+1028762211+1028939945+1029093041
1813+1029241650+1029412762+1029528403+1029582663+1029666047+1029795502
1801+1029967468+1030158589+1030304422+1030361388+1030440499+1030569385
1790+1030483580+1030285053+1030333546+1030492125+1030527087+1030615598
1778+1030859769+1031062496+1031176927+1031254258+1031036292+1030658323
1767+1030572019+1030661314+1030847663+1031063280+1031112128+1031294561
1755+1031618840+1031820072+1032071862+1032335187+1032395642+1032415438
1744+1032497113+1032660463+1032969005+1033092194+1032986379+1033001262
1732+1032789491+1032354840+1032229515+1032380902+1032717714+1033122742
1720+1033331735+1033342203+1033062002+1032479240+1032091017+1032182946
1709+1032540621+1033051320+1033508615+1033587513+1033610085+1033457701
1697+1032723197+1032175825+1032019097+1032086602+1032594952+1032987803
1686+1032874868+1032459159+1031774856+1031273840+1031262518+1031529475
1674+1031639063+1031362422+1031125444+1031103939+1030936032+1030770475
1663+1030834846+1030997413+1031383784+1031919193+1032261915+1032241478
1651+1031539088+1030630125+1030299366+1030127115+1029781901+1029863576
1639+1030325072+1030621509+1030680967+1030527657+1030384459+1030681964
1628+1031229051+1031572698+1031868209+1032218692+1032298943+1032340385
1616+1032736584+1033189463+1033642698+1034312618+1034991439+1035474795
1605+1035866151+1036290904+1036750761+1037192248+1037573777+1037871851
1593+1038075505+1038211796+1038311985+1038354852+1038332849+1038334059
1582+1038407830+1038349440+1038034988+1037540025+1036775470+1035953024
1570+1035371829+1034747624+1034161089+1034018246+1033960782+1033528624
1558+1032384676+1030470762+1028789839+1027815152+1027116891+1026460857
1547+1025924522+1025494643+1024652045+1022926404+1020686431+1018511328
1535+1016770662+1015401129+1013905274+1012260026+1010795787+1009300573
1524+1007410941+1005193327+1002767930+1000313907+998082194+996106544+994366874
1510+992478666+989593910+985485596+981157749+977505875+974071967+969729594
1497+964086189+957721525+950815328+942410142+931612671+918904490+905519625
1483+892321609+879915775+869028440+859811490+850881363+839904235+826514386
1470+813720115+804312756+798196890+793048378+786857032+780790300+779868662
1456+788934296+805985775+825356410+843253620+857453811+866724736+871241425
1443+872709581+873194646+874265107+876589817+879373245+881601042+883339572
1429+884818408+886090316+887458140+889022923+890634134+892375940+894160826
1416+895865390+897786638+899986094+902151086+904093839+905847749+907377784
1402+908512617+909162670+908927970+907050514+903165080+897481870+890261079
1389+881619627+872723110+866440049+865658618+871696868+883301547+896761393
1375+908273930+915979217+920315324+923112993+925719044+928257376+930328231
1362+931489269+931659098+931191906+930359064+929218463+927775373+926085905
1348+924606499+924480746+926584357+930272476+934082003+937282565+940157637
1335+943277805+946880546+950865315+955103298+959535107+964086688+968637628
1321+973089375+977358262+981322310+984918001+988099479+990713647+992636248
1308+993819503+994203738+993869633+993152004+992426685+991893483+991626883
1294+991722942+992250090+993162756+994329918+995538878+996559637+997198154
1281+997280114+996762079+995899116+995241088+995380512+996586696+998680764
1267+1001258901+1003896710+1006236516+1008068755+1009271591+1009726322
1256+1009379399+1008213805+1006059922+1002660691+997961427+992144561+985511658
1242+978552981+972046756+966983621+964421363+965219812+969591024+976842506
1229+985633779+994563193+1002611629+1009278997+1014593992+1018855331+1022250788
1215+1024885606+1026952687+1028615808+1029976654+1031168524+1032255435
1204+1033204060+1033991544+1034726974+1035302046+1035760123+1036134746
1192+1036408538+1036539916+1036539987+1036411458+1036149557+1035815167
1180+1035480207+1035169030+1034854008+1034463507+1033922330+1033222503
1169+1032396924+1031442174+1030359608+1029182833+1027916195+1026563111
1157+1025178767+1023732971+1022039159+1019926220+1017331990+1014183838
1146+1010356650+1005877702+1001008180+996078915+991432344+987384200+984053472
1132+981313480+979001160+977080553+975485791+973936601+972058362+969539541
1119+966049379+961050260+953734192+943124282+928164806+907914474+882159949
1105+852649515+824123382+802920223+793201759+794418552+802596229+813664360
1092+825284633+836322928+845679089+851757357+852563141+845725089+828171098
1078+796154091+747270886+685470507+624977496+585173740+576193412+588460819
1065+599083048+590011859+559998024+522018746+493428597+487651073+510287104
1051+558790132+624699929+697587737+768264766+830255839+880316602+917971602
1038+944340576+961126950+970042123+972320691+968029160+955300471+929845017
1024+886170922+823499035+754699248+705770612+697978950+729711270+780557807
1011+831251248+874658600+911195785+941753894+966104138+984052119+996022020
997+1002878942+1005604621+1004976358+1001406728+994980683+985498840+972475994
984+954861477+930512516+895794823+845949535+778082636+697098969+619423884
970+568203224+561413735+601657981+674888581+759383915+837835516+902215600
957+951222349+986715633+1011566394+1028664799+1040475766+1048720022+1054510114
943+1058626546+1061596324+1063761030+1065289071+1066212276+1066601282
932+1066569879+1066137864+1065284870+1064012677+1062254850+1059888840
920+1056821223+1052969968+1048216443+1042463379+1035842368+1028880629
908+1022504927+1018022418+1016662711+1018348192+1021111397+1022241032
897+1019637688+1012115546+999512823+983460242+968398086+960575804+963433431
883+974556106+989310860+1005030262+1020086081+1032519899+1041068853+1045711792
870+1046943040+1045104179+1040012988+1031316066+1020066000+1010221143
858+1007329835+1013601930+1025223343+1036509226+1044728204+1049950914
847+1052992541+1054603396+1055351928+1055521402+1055229736+1054593355
835+1053724126+1052773578+1051823742+1050781051+1049600716+1048321118
824+1046960842+1045522167+1044010788+1042460602+1040839992+1039059663
812+1037092343+1034977767+1032795330+1030679685+1028801660+1027227975
800+1025882083+1024630683+1023347240+1021883499+1020126171+1018141975
789+1016039717+1013914175+1011780087+1009430028+1006756544+1003894432
777+1000872031+997505414+993723942+989957068+987051519+985396800+984236475
764+982319570+978912578+973913530+968005377+963277985+962191146+964988602
750+969353191+972884511+974772363+975349215+975136233+974410772+973354053
737+972206616+971020158+969638092+968088476+966582153+965143620+963759062
723+962445000+961022133+959504773+958071082+956577150+954946214+953322044
710+951862789+950573151+949353652+948133156+946906394+945731827+944640360
696+943536573+942353603+941203389+940180637+939218838+938246073+937294883
683+936389481+935449186+934438040+933721836+934094180+935130818+933577926
669+928706268+926748276+929546658+931290600+930573113+929679958+929373838
656+929320503+929355466+929406664+929432797+929542955+929768612+930037420
642+930392745+930858798+931294303+931652975+932107705+932817644+933685022
629+934529328+935387948+936238094+937086602+938047404+939173265+940225426
615+941166005+942213538+943378635+944567230+945762945+946985719+948402748
602+950129173+951916907+953570415+955268642+957073751+958807367+960396362
588+961942275+963576700+965247298+966838073+968478977+970206114+971782718
575+973322366+975160230+977218411+979158386+980791529+982271647+983800685
561+985390107+987029943+988685232+990313960+991921682+993565363+995315642
548+997086857+998806232+1000626437+1002469214+1003946769+1005086302+1006266993
534+1007605551+1008942186+1010098737+1011195474+1012455205+1013795971
523+1015070085+1016207909+1017250244+1018355882+1019353926+1020028688
511+1020597849+1021220629+1021693162+1021836645+1021651577+1021085335
500+1020156363+1018986495+1017496123+1015497117+1012938846+1010018273
488+1006937269+1003756645+1000997784+999661077+1000008926+1001187694+1002073657
474+1001623911+999312303+995883807+992719134+990921573+991323325+994747336
461+1001761270+1011412301+1021101998+1028657180+1033908017+1037508978
449+1040068601+1042262361+1044194646+1045452312+1046142241+1046820777
438+1047903771+1049260843+1050278469+1051254794+1053197547+1055858641
426+1058093914+1059697007+1061290844+1062892655+1063822838+1064413718
415+1065847765+1067513592+1068110239+1068418354+1069428360+1070951986
403+1072900792+1073741823+1071326537
##END=
