##TITLE=3
##JCAMP-DX=4.24
##DATA TYPE=INFRARED SPECTRUM
##DATE=16/11/2015
##SAMPLING PROCEDURE=Instrument type and / or accessory
##ORIGIN=Default
##XUNITS=1/CM
##YUNITS=TRANSMITTANCE
##RESOLUTION=4
##FIRSTX=3996.3359
##LASTX=399.24785
##DELTAX=-1.9287336
##MAXY=0.87727314
##MINY=0.3136526
##XFACTOR=1
##YFACTOR=8.1702428e-010
##NPOINTS=1866
##FIRSTY=0.70221567
##XYDATA=(X++(Y..Y))
3996+859479561+859474673+859448118+859442209+859502833+859562582+859655889
3983+859868840+860109075+860271542+860442034+860662208+860806363+860884788
3969+861043535+861281217+861509196+861686253+861748410+861703470+861766648
3956+861997181+862139950+862107413+862193279+862483852+862526457+862383177
3942+862493409+862576430+862456130+862303366+862210569+862460799+862833518
3929+862743639+862530907+862770194+862995036+862782304+862670905+862960383
3915+863157868+862988835+862873715+862875101+862622318+862574096+863124310
3902+863587782+863740765+863756450+863185153+862375662+862553450+863049605
3888+862523977+862311974+862870943+862742910+862711831+862965855+862502018
3875+862098148+862022349+862287243+862877800+862568040+862038034+862496181
3861+863071929+862800178+861375837+860247979+861603306+863280138+862539224
3848+861058782+860598446+860906674+860984078+860685407+861002681+861618042
3834+861444851+861035875+860894929+860809938+860858233+860573277+860410591
3821+861128452+860931186+860200851+860816212+861156758+860153212+859375238
3807+859994830+860408330+859667635+859909913+860651119+860223977+859775387
3794+859669677+859437759+859320085+859270477+859257272+859268726+859029658
3780+858892797+859081892+859004270+858503445+858047122+858168590+858569395
3767+858586175+858375996+857902748+857520764+858016044+858441654+857647630
3753+856763873+857579200+858769725+857717519+856519990+857543234+857899538
3740+856433541+855687666+856281287+856635913+856269614+855547085+854815436
3726+854625538+854714103+854480215+854173081+853946415+853414294+852443723
3713+851903211+852139799+851960042+850841230+849241947+847885453+846938664
3699+845659136+843843473+841776632+839469118+837235214+835917093+835301076
3686+834063349+832233242+830913224+830244461+829875171+830376069+830726683
3672+829507268+828982077+829913034+830154874+829831472+830008019+830262991
3659+830217468+830726683+831527710+831291560+830979247+831831561+832508860
3645+831889705+830871860+830378330+830191351+829875244+829532364+829009434
3632+828009755+827712470+828391957+827867933+826108883+824629170+823981053
3618+823659401+822573053+820980044+819578173+818119179+816689075+815205861
3605+813207086+811113544+809446341+807824224+805949907+804162331+802378914
3591+800100144+797778550+795986378+793885833+791059694+788353928+786074428
3578+783880648+781649516+779379427+776870052+774201200+771925712+769804011
3564+766963500+763698984+760723801+757879642+754877321+751879085+749050100
3551+746152832+742997089+739827486+736624105+733186544+729718416+726369420
3537+723072950+719786695+716432373+712924266+709340434+705738801+702062245
3524+698380728+694731310+691021487+687301232+683630804+679888225+676065470
3510+672338138+668652901+664801840+660891031+657089068+653213422+649185742
3497+645203511+641330491+637524370+633738238+629866459+625847022+621775277
3483+617754527+613729254+609630444+605553338+601625567+597689552+593446258
3470+588970899+584699482+580829490+577076624+573150203+569107421+565111439
3456+561143106+557214058+553394914+549588355+545791134+542053443+538270813
3443+534459476+530723645+527007657+523300388+519710354+516250214+512885570
3429+509597198+506407496+503318287+500226160+497130203+494093849+491011534
3416+487762886+484522116+481536355+478744650+475983403+473144424+470117736
3402+467067703+464441310+462146235+459774595+457203282+454643240+452454859
3389+450613517+448853371+447057662+445158358+443129818+441195059+439641627
3375+438413677+437183647+435815589+434550798+433647489+433059850+432584486
3362+432092197+431610632+431251118+431046776+430881610+430694630+430693062
3348+431018361+431456920+431810342+432157235+432643579+433358485+434318149
3335+435413252+436533049+437653393+438774978+439962950+441359860+442950134
3321+444558025+446178100+447918292+449765179+451637417+453479598+455263453
3308+457046760+459045973+461418817+464006581+466532882+468922359+471277949
3294+473717071+476332740+479155414+482080004+484986720+487877787+490796650
3281+493760306+496740742+499710307+502744582+505925676+509283463+512818964
3267+516422712+520011870+523646551+527343316+531068130+534854263+538738298
3254+542689779+546666793+550637278+554626367+558786859+563143778+567519628
3240+571877313+576280120+580659545+585006652+589497185+594163243+598873512
3227+603618579+608381556+613099740+617816538+622538369+627214240+631901054
3213+636637768+641349897+646021245+650696094+655391079+660077237+664731951
3200+669398192+674062828+678666329+683228247+687801327+692386079+696933552
3186+701427696+705889231+710278541+714550761+718786504+723057557+727322555
3173+731564937+735778138+739893873+743865307+747717097+751509868+755307089
3159+759112700+762847108+766425688+769861352+773260685+776669430+780037321
3146+783324160+786520391+789622075+792618561+795529107+798426667+801339183
3132+804169043+806847233+809443934+811966149+814372077+816731753+819089313
3119+821406311+823676473+825909720+828075559+830144296+832135266+834073052
3105+835914759+837629381+839317375+841048631+842737719+844291552+845718957
3092+847115868+848522846+849858621+851061914+852152201+853171432+854145359
3078+855053263+855880117+856659842+857403309+858043329+858539266+858951890
3065+859312425+859593003+859788373+859916843+859989651+859969005+859834260
3051+859613649+859262817+858712894+858013637+857263458+856474103+855567803
3038+854468032+853168368+851705581+850087476+848248833+846142014+843804224
3024+841261582+838470168+835352508+831850602+827885661+823348037+818214529
3011+812498271+806068602+798730810+790383125+780965360+770387127+758413077
2997+745149942+730295987+713427280+694271485+672742519+648587159+621302686
2984+590480304+556535191+521397072+488144322+459228101+435774517+418334548
2970+405775085+395487826+387145649+383896307+389611106+405746159+429866063
2957+456584127+480004810+496383526+504893313+505889017+499567501+486571449
2943+469384993+452927268+442674042+441456524+448399894+460385944+474358222
2930+488881625+503787815+519081898+534586195+550060509+565236590+579594134
2916+592267733+602414922+609607792+613938339+616020135+616772284+616951749
2903+616875440+616510308+615472328+612951572+608043126+600248062+589664029
2889+576264070+559374060+539025771+517355056+498837713+489337657+492682129
2876+507544182+528987611+552570068+576144500+598960983+620586722+640721331
2862+659215804+676016300+691432214+706170903+720908863+735970151+751155607
2849+765810107+779279262+791313571+801980589+811414330+819790978+827322534
2835+834213998+840717204+847056995+853286553+859345327+865125638+870549500
2822+875641934+880450799+885021253+889340528+893339027+897083794+900759986
2808+904451789+908102885+911629376+914994786+918188172+921184001+923972788
2795+926551105+928867957+930889640+932642927+934127090+935342200+936408997
2781+937452813+938424698+939224339+939881576+940459001+940922547+941236100
2768+941445549+941631945+941854088+942120805+942431295+942801679+943212844
2754+943590012+943856657+943956238+943850164+943574473+943228747+942902938
2741+942736531+942937810+943616640+944756901+946244784+947817147+949186846
2727+950208485+950946335+951639537+952539854+953806762+955482062+957450416
2714+959479686+961353128+962976339+964370915+965597188+966687475+967653596
2700+968551652+969380767+970010135+970417288+970721138+970924678+970970201
2687+970895934+970694072+970293705+969746992+969233693+968970696+969172485
2673+969919600+971046145+972327862+973638323+974852631+975929860+976950769
2660+977935493+978839604+979700891+980609452+981527424+982361937+983117077
2646+983827934+984509172+985176841+985834151+986446667+987009575+987535349
2633+987966212+988329665+988724270+989100344+989358088+989502025+989607370
2619+989711912+989730880+989630204+989526611+989455116+989367499+989290898
2606+989237059+989163376+989072695+988981795+988854638+988663573+988448798
2592+988258755+988058571+987800681+987540748+987333415+987164674+987059110
2579+987057943+987138119+987282274+987517038+987812864+988113505+988427423
2565+988735432+988986172+989165856+989270982+989344300+989453439+989612112
2552+989783479+989889189+989897578+989880216+989892326+989971480+990168965
2538+990455744+990782283+991165361+991613879+992093838+992559427+993019179
2525+993514240+994031625+994549010+995091783+995679349+996272605+996833106
2511+997383028+997965123+998579025+999181984+999770572+1000351426+1000877566
2498+1001350012+1001794589+1002178324+1002506395+1002806744+1003046104
2486+1003228487+1003420062+1003673356+1003999312+1004342047+1004663479
2475+1004995781+1005312691+1005580575+1005873045+1006207828+1006531157
2463+1006862292+1007235959+1007640486+1008060405+1008485504+1008877774
2451+1009239331+1009624306+1010025841+1010422707+1010800094+1011133710
2440+1011461052+1011804516+1012116100+1012383182+1012655298+1012963526
2428+1013270586+1013507101+1013698385+1013902654+1014053375+1014096345
2417+1014075553+1014053594+1014081900+1014162805+1014251006+1014336216
2405+1014443895+1014576743+1014720753+1014877821+1014956757+1015043571
2394+1015211291+1015503031+1015911643+1016392186+1016888342+1017338902
2382+1017677186+1017835787+1017803469+1017608829+1017189056+1016408601
2370+1015311091+1014150987+1013093820+1012131128+1011233073+1010492669
2359+1009980610+1009776194+1010384844+1012380045+1014574627+1015061591
2347+1014299520+1013956348+1013976993+1013593259+1013236663+1013277809
2336+1013591143+1014032073+1014698137+1015636390+1016537582+1017135581
2324+1017564911+1018105568+1018775572+1019368391+1019757888+1020100988
2313+1020570078+1021052372+1021424215+1021728723+1021994127+1022216853
2301+1022409304+1022554117+1022654355+1022742263+1022821272+1022913193
2289+1023032982+1023130740+1023155836+1023131907+1023103018+1023058589
2278+1022978778+1022872047+1022740512+1022571261+1022376548+1022217510
2266+1022137991+1022114719+1022107715+1022112749+1022149809+1022210798
2255+1022233852+1022223857+1022263471+1022155281+1022103703+1022045121
2243+1022003319+1022014335+1022062484+1022139596+1022276602+1022448261
2232+1022601974+1022740585+1022875403+1022979143+1023053045+1023153355
2220+1023295250+1023412048+1023454726+1023426201+1023340554+1023217408
2208+1023066103+1022864825+1022610801+1022415651+1022419445+1022633344
2197+1023012993+1023491713+1023979844+1024446380+1024889426+1025283009
2185+1025601159+1025871961+1026131675+1026348638+1026504977+1026661681
2174+1026850995+1027030533+1027190374+1027372466+1027578486+1027756127
2162+1027898240+1028052901+1028231053+1028437292+1028675850+1028913751
2151+1029122105+1029290044+1029437191+1029580617+1029731922+1029902341
2139+1030049707+1030143671+1030225597+1030356986+1030528354+1030654636
2127+1030725911+1030821845+1030975777+1031165747+1031339814+1031457706
2116+1031579830+1031770530+1031984794+1032182716+1032394427+1032632620
2104+1032864903+1033085441+1033346614+1033690151+1033933815+1034156834
2093+1034378904+1034582079+1034671446+1034647883+1034607977+1034550052
2081+1034416110+1034173394+1033822124+1033411907+1032976303+1032534862
2070+1032144197+1031853332+1031677223+1031603832+1031677952+1031987858
2058+1032461982+1032956678+1033463558+1033998087+1034507812+1034945824
2046+1035293738+1035524344+1035625895+1035635160+1035605176+1035593285
2035+1035630856+1035752761+1036015247+1036419117+1036924027+1037506194
2023+1038131915+1038732029+1039297928+1039847340+1040287467+1040589932
2012+1040878973+1041189535+1041481932+1041766012+1042028425+1042218615
2000+1042347596+1042480663+1042614532+1042734468+1042870672+1042922687
1989+1042845284+1042801658+1042884898+1043035327+1043117765+1043059694
1977+1042965365+1042975360+1043095733+1043197503+1043248862+1043297011
1965+1043252436+1043094419+1042942385+1042792466+1042561495+1042240865
1954+1041825104+1041292472+1040693963+1040081374+1039395029+1038656741
1942+1037936108+1037165648+1036525045+1036294147+1036400513+1036669346
1931+1037017553+1037440609+1037933117+1038600348+1039486950+1040286081
1919+1041010653+1041817153+1042439153+1042920499+1043466846+1043946952
1908+1044235410+1044376064+1044486004+1044614621+1044744259+1044887248
1896+1045111433+1045339412+1045418786+1045479848+1045513406+1045382893
1884+1045276381+1045251723+1045200290+1045143970+1045155059+1045248658
1873+1045320809+1045432428+1045667484+1045704398+1045472625+1045402079
1861+1045557543+1045680469+1045692142+1045661939+1045663982+1045735622
1850+1045895025+1045931137+1045778883+1045629110+1045247491+1044779569
1838+1044780371+1045165638+1045529091+1045822436+1046198657+1046385928
1827+1046302323+1046358279+1046453556+1046462821+1046591365+1046803513
1815+1046978090+1047147561+1047334321+1047421865+1047427337+1047518164
1803+1047713241+1047902482+1048019645+1048063271+1048026940+1048065606
1792+1048208010+1048063052+1047732865+1047707842+1047857761+1047883514
1780+1047919991+1048029494+1048031755+1047960699+1047995935+1047901752
1769+1047611106+1047432662+1047372695+1047511014+1047725935+1047723892
1757+1047843754+1048142863+1048395719+1048749981+1049001159+1048895377
1746+1048741883+1048668638+1048655871+1048842048+1048942578+1048897711
1734+1048989122+1048696360+1048026284+1047680996+1047706675+1047968942
1722+1048284466+1048396084+1048355960+1048015560+1047234521+1046541683
1711+1046365866+1046551167+1046954745+1047303827+1047211687+1047030981
1699+1046673583+1045709578+1044934303+1044567931+1044446464+1044756151
1688+1044865872+1044468204+1043911205+1043095660+1042322136+1041958536
1676+1041919944+1041769952+1041215798+1040754660+1040608754+1040307237
1664+1039980261+1039939407+1040059634+1040414479+1040869635+1041127306
1653+1041210546+1040754806+1040038477+1039913362+1039997405+1039833624
1641+1040019655+1040574976+1041025682+1041399641+1041617114+1041707723
1630+1042166453+1042940123+1043558257+1044093953+1044570338+1044604991
1618+1044545461+1044988215+1045597813+1046167068+1046919655+1047683257
1607+1048239307+1048682791+1049121970+1049545829+1049936202+1050286962
1595+1050554919+1050704109+1050771809+1050785525+1050717532+1050595919
1583+1050533033+1050521069+1050263325+1049674227+1049017865+1048226468
1572+1047363794+1046713051+1045998765+1045266386+1044949769+1044713327
1560+1044121092+1042894309+1040962067+1039258533+1038223982+1037416462
1549+1036593037+1035879481+1035230853+1033970949+1031704216+1029108463
1537+1026800584+1024962598+1023403075+1021624691+1019713022+1018030208
1526+1016232564+1013940079+1011353300+1008578155+1005693872+1002954036
1514+1000471435+998303699+995984440+992395282+987216835+981750661+977091058
1501+972648419+967146060+960171503+952437793+944238349+934419268+921725825
1487+906637544+890787995+875356906+860991081+848373656+837633758+827324723
1474+815026688+800309666+786168392+775516403+768447954+762635251+755891372
1460+749432303+748626096+758519516+776857358+797750098+817363018+833267210
1447+843878199+849212766+851114659+851891028+853387155+856355699+859669094
1433+862106173+863910163+865422923+866692165+868049608+869608840+871282462
1420+873180416+874920353+876148303+877393763+878979258+880579854+881963487
1406+883224485+884401441+885449853+886350025+886363302+884196150+879454621
1393+872790553+864702801+855173928+845263291+838120138+837181229+844107783
1379+857497857+873173558+886824294+896121613+901397525+904854127+908132431
1366+911365577+914066090+915604457+915816970+915257199+914366731+913140312
1352+911484418+909522192+907869434+907772333+910171185+914464634+919031440
1339+922814800+926024965+929482370+933603431+938255883+943224881+948395813
1325+953709588+959117619+964501283+969641137+974327513+978529479+982263450
1312+985355577+987601883+988930436+989326354+988915481+988052953+987155481
1298+986482998+986119617+986165140+986750663+987850143+989237643+990605809
1285+991722798+992416292+992498000+991909923+990916445+990118700+990238781
1271+991659912+994145505+997135206+1000125490+1002758594+1004797786+1006078774
1258+1006518463+1006060462+1004539677+1001719155+997449926+991684789+984477292
1244+976164624+967543291+959669146+953541795+950205567+950680785+955325140
1231+963411068+973439452+983875937+993554948+1001754100+1008419190+1013889595
1217+1018300427+1021769941+1024604105+1026984427+1029005672+1030858686
1205+1032670045+1034353516+1035779097+1037072560+1038212382+1039208852
1194+1040041906+1040677111+1041121761+1041396650+1041478941+1041400735
1182+1041236590+1041020502+1040786395+1040513841+1040104500+1039546334
1171+1038876404+1038019348+1036905861+1035597662+1034161138+1032592568
1159+1030902021+1029148368+1027340658+1025304530+1022748027+1019516048
1148+1015607500+1010946439+1005491353+999512317+993469374+987789446+982803596
1134+978650728+975215720+972286133+969768732+967617339+965555896+963091460
1121+959790832+955291946+949039335+940139612+927451203+909774829+886200105
1107+856721196+823367953+791244922+767162225+755582050+755812947+763519154
1094+774329598+785723595+796594225+805894754+811853218+812211054+804326039
1080+784918044+750264044+698202284+633159280+569827726+527522343+516100332
1067+526368696+536275320+528060885+499855667+463693757+436284752+430635538
1053+452195291+498955715+563577887+636842913+710359738+777582660+834271193
1040+878585893+910675584+931780181+943394643+946778438+942243148+928226624
1026+900499688+853253140+785815808+712408195+660689753+652412540+685480681
1013+738974370+793311982+841097801+882462852+917970115+946944844+968676986
999+983284796+991649407+994847243+993685461+988691514+980117527+967808185
986+951327151+929766523+901181218+862144765+808031849+736200611+651873561
972+571662028+519004239+511813484+552145953+626224409+713400068+796833731
959+868006566+924590849+967373383+998568374+1020847301+1036689044+1047994841
945+1056103166+1061984737+1066328670+1069497763+1071641569+1072938534
934+1073605400+1073741823+1073308918+1072268749+1070645392+1068407548
922+1065402527+1061496460+1056592318+1050509542+1043131261+1034713978
910+1025977598+1017999421+1012261204+1010295987+1012152285+1015439343
899+1016705302+1013318589+1003961595+988587555+969179342+951011555+941376754
885+944188740+956746125+973961142+992975407+1011844276+1027785527+1038824388
872+1044944151+1046915277+1045052122+1038980654+1028340410+1014570906
860+1002595252+999138869+1006826108+1021101397+1035065613+1045237861+1051743329
847+1055731104+1057985143+1058997881+1059205142+1058930691+1058273455
835+1057224751+1055949672+1054611125+1053184887+1051667020+1050024767
824+1048210637+1046332964+1044501106+1042609061+1040429434+1037941507
812+1035284546+1032514654+1029699677+1027062268+1024867540+1023134679
800+1021597626+1019973830+1018208651+1016323391+1014230141+1011942471
789+1009508602+1006831871+1003904618+1000848895+997690162+994364146+990734791
775+986619639+982043714+977480046+973853973+971676681+970170705+967897042
762+963833468+957784469+950652770+944903829+943506991+946879916+952097101
748+956097861+958094886+958677199+958383270+957475439+956212690+954852402
735+953409604+951800326+950074323+948313522+946541777+944791991+943053149
721+941351804+939467055+937528028+935703611+933964623+932205645+930452138
708+928777130+927176388+925659542+924230240+922756948+921198956+919734272
694+918406157+917068631+915687186+914306034+912924735+911616901+910497505
681+909503151+908456562+907347964+906472597+906080764+905638156+904238766
667+902438496+901754705+901887844+902019890+902000995+901901778+901646734
654+901305969+901144231+901274307+901502067+901660376+901929501+902471471
640+903104122+903628803+904090743+904550130+904974208+905443444+906178959
627+907244662+908322620+909265834+910320739+911713126+913095154+914215061
613+915299950+916454072+917696029+919129052+920708199+922319957+923972423
600+925691860+927362565+929023785+930894017+932891479+934745296+936551840
586+938588040+940665240+942462008+944114620+945791671+947489003+949349386
573+951341596+953205554+955016036+956950540+958849515+960554653+962200335
559+964008556+966058326+968164197+970064412+971857751+973793130+975807736
546+977680011+979379823+981010768+982510251+983803932+985073758+986586664
532+988286112+989809451+991164267+992605387+994089696+995483396+996688585
519+997651788+998464561+999204746+999989870+1000873043+1001612206+1001909637
505+1001667650+1000984005+1000042177+998898998+997374493+995250529+992453280
492+989053727+985295099+981359996+977375576+974032563+972297222+972316701
478+973386488+974385219+973887313+970988220+966464530+962113812+959319991
465+959250904+963207528+971691417+983242921+994717897+1003561446+1009885770
451+1014539755+1017655738+1019870018+1021673862+1022806170+1023710281
440+1024979669+1026272913+1027158712+1027822223+1029181125+1032114651
428+1036256212+1040149220+1042659545+1043957166+1044979315+1046114469
417+1047564854+1049661606+1051223755+1050477078+1048070639+1046960873
405+1049101105+1052529109+1052904017+1049009476
##END=
