##TITLE=3
##JCAMP-DX=4.24
##DATA TYPE=INFRARED SPECTRUM
##DATE=16/11/2015
##SAMPLING PROCEDURE=Instrument type and / or accessory
##ORIGIN=Default
##XUNITS=1/CM
##YUNITS=TRANSMITTANCE
##RESOLUTION=4
##FIRSTX=3996.3359
##LASTX=399.24785
##DELTAX=-1.9287336
##MAXY=0.90116864
##MINY=0.33095935
##XFACTOR=1
##YFACTOR=8.392787e-010
##NPOINTS=1866
##FIRSTY=0.71050012
##XYDATA=(X++(Y..Y))
3996+846560408+846495781+846471066+846542227+846738168+846951580+847084598
3983+847183528+847290553+847344244+847388843+847551264+847807216+848075028
3969+848319404+848481824+848540131+848592898+848718530+848815258+848819448
3956+848814761+848834788+848884217+849072133+849323611+849232778+849006867
3942+849145141+849265305+849133351+849022207+849032434+849360257+849791768
3929+849704769+849351166+849405212+849568413+849367927+849270063+849635029
3915+849933166+849789495+849640995+849622032+849397045+849367785+849847446
3902+850195439+850266813+850250124+849701077+848968872+849271767+849897160
3888+849424671+849203660+849767834+849643480+849611238+849939487+849597034
3875+849266867+849141164+849195422+849620399+849406703+849037973+849485818
3861+849968037+849686092+848402709+847518737+849041524+850762028+850046086
3848+848545670+847992433+848214012+848294902+848085752+848441201+848984070
3834+848775629+848441201+848408249+848357399+848311024+847881857+847634569
3821+848371958+848299093+847644369+848151160+848367768+847420234+846802653
3807+847497502+847912040+847229548+847514831+848223813+847774050+847293252
3794+847102140+846771902+846585549+846525254+846539457+846576032+846364112
3780+846275835+846539031+846534344+846069170+845591284+845609678+845879266
3767+845853983+845693835+845281642+844921718+845410044+845863855+845175611
3753+844414714+845217654+846223068+845017167+843833211+844948066+845366154
3740+843848409+842887169+843315697+843835484+843786481+843185022+842349769
3726+842014560+842099711+842025923+841887152+841710670+841110631+840077448
3713+839646222+840140371+840138738+839065997+837559473+836431835+835776047
3699+834779794+833260984+831547369+829622260+827749847+826764176+826439193
3686+825470495+823947637+822916585+822380605+822027926+822577825+823033624
3672+821889652+821306374+822055126+822152777+821804855+821974874+822127778
3659+821910957+822230471+822813039+822361714+821885604+822586986+823073253
3645+822262927+821086783+820456490+820165100+819819451+819534452+819060614
3632+817987519+817526606+818116631+817638745+815941393+814494738+813892356
3618+813625467+812578649+810999970+809593938+808137127+806747927+805374279
3605+803510956+801506377+799885158+798308822+796478310+794735649+793030698
3591+790822863+788499835+786732814+784844563+782351587+779927499+777825695
3578+775695910+773436941+771182730+768791311+766200684+763933121+761924636
3564+759310644+756260169+753534251+751018975+748275444+745364237+742567087
3551+739736061+736592055+733415735+730406664+727314501+724046354+720702074
3537+717404312+714215422+711005297+707624229+704137202+700615730+697039431
3524+693504963+690060689+686583675+682993101+679309849+675601384+671957192
3510+668404755+664815745+661028094+657156925+653422113+649685667+645802353
3497+641947306+638248358+634627033+630909123+627020129+623079645+619187242
3483+615270337+611262244+607231779+603263954+599367857+595432842+591311332
3470+587041712+582903015+579040404+575258363+571396605+567478670+563569435
3456+559704800+555921481+552187237+548374978+544558529+540846620+537155449
3443+533486293+529847676+526110342+522340908+518792342+515471143+512234173
3429+509081609+506015155+502925443+499800967+496757381+493790957+490796481
3416+487720404+484613541+481591119+478738432+476061481+473402676+470527298
3402+467520145+464868655+462614515+460347415+457850106+455297971+453118082
3389+451310935+449544802+447654279+445726187+443933670+442315362+440835684
3375+439509548+438211252+436790341+435494033+434660023+434186611+433765291
3362+433306367+432932808+432690989+432496326+432253335+432010770+432039958
3348+432411458+432854936+433219369+433582950+434065595+434833131+435941807
3335+437125053+438170380+439177322+440262668+441460473+442830356+444411805
3321+446142109+447912148+449658823+451422186+453244069+455056898+456838087
3308+458708441+460837658+463276376+465818320+468221812+470522292+472874721
3294+475335384+477969262+480791552+483663379+486497423+489349329+492302011
3281+495368891+498458070+501478646+504456859+507528319+510840214+514367900
3267+517930528+521469825+525054788+528708213+532426975+536209086+540051102
3254+543940700+547871774+551846524+555886291+560076193+564386330+568669905
3240+572934235+577250266+581570878+585925472+590470397+595140671+599765989
3227+604394504+609051639+613677241+618320456+623003087+627656174+632300526
3213+636989548+641701723+646412477+651075577+655673909+660244685+664812549
3200+669419047+674048769+678614219+683103678+687594984+692094599+696517087
3186+700863728+705230395+709638538+714013089+718286935+722428686+726478112
3173+730534498+734613965+738650182+742600182+746458425+750219586+753898010
3159+757547884+761163384+764639901+767967492+771285068+774640001+777946356
3146+781165146+784315118+787369214+790289582+793104203+795856327+798586790
3132+801304967+803942325+806468751+808908392+811280352+813617584+815929817
3119+818211938+820464658+822637055+824684103+826640034+828533185+830363413
3105+832141016+833863650+835536358+837161910+838716371+840182769+841546048
3092+842820766+844035047+845186121+846305308+847405533+848412297+849292789
3078+850121153+850969403+851773408+852407678+852865181+853238030+853605340
3065+853968673+854267023+854456644+854548542+854579577+854538315+854349192
3051+854001555+853571109+853086618+852516479+851818576+850983749+850030107
3038+848940677+847726112+846410274+844927826+843187082+841171636+838931772
3024+836517697+833922667+831032269+827719948+823985419+819843739+815197470
3011+809933479+803998075+797334940+789824337+781321387+771737245+760867236
2997+748759864+735070972+719436873+701521150+681062098+657768966+631175444
2984+600870759+567257481+532259300+499088505+470517853+447715142+430659813
2970+417793923+406832832+397909592+394337839+400020451+416346878+440699186
2957+467535095+491033862+507559852+516131726+516948265+510356682+497261686
2943+480150891+463679586+453161013+451529780+458057588+469695987+483443753
2930+497897447+512855837+528210228+543697745+559135406+574299005+588649260
2916+601344597+611527925+618754382+623181487+625408710+626283450+626606870
2903+626735414+626531945+625539101+623016226+618137654+610420883+599869393
2889+586357516+569291427+548768387+526886081+508123351+498366811+501463910
2876+516082758+537259349+560529080+583706877+606103360+627384882+647148588
2862+665156990+681469036+696407150+710614977+724859165+739512920+754284352
2849+768464411+781415345+792942848+803191584+812289957+820323259+827489065
2835+834063639+840294695+846355803+852301220+858062912+863543724+868741739
2822+873702409+878408050+882819175+886908940+890714701+894367415+897961468
2808+901515112+905008815+908385977+911606826+914654885+917519148+920200964
2795+922651258+924819607+926725896+928372256+929757550+930932984+931962829
2781+932898503+933749238+934493800+935134817+935669092+936084481+936397178
2768+936608175+936726350+936849923+937065678+937357069+937680986+938017261
2754+938336917+938588253+938708488+938638179+938361205+937951568+937565438
2741+937369355+937487460+938033737+939085669+940546172+942109937+943433232
2727+944364290+945017451+945644122+946473622+947663970+949277022+951179121
2714+953115096+954891421+956417262+957698016+958814078+959852161+960807863
2700+961623657+962290595+962811164+963202336+963503385+963726100+963825384
2687+963732421+963450192+963029973+962510186+961998921+961733523+961959292
2673+962703073+963762675+964953449+966176394+967331516+968395450+969395609
2660+970301739+971106099+971884609+972696496+973503768+974265446+974974001
2646+975607916+976196805+976813178+977465699+978096631+978668333+979164542
2633+979568498+979917769+980259725+980584210+980864664+981070902+981183680
2619+981217130+981183254+981097392+980984827+980850105+980733137+980674049
2606+980627887+980536343+980412344+980302975+980189274+980003559+979751726
2592+979527875+979373835+979206798+978984296+978771879+978621035+978557402
2579+978583466+978672381+978829546+979082089+979398834+979691715+979935026
2565+980165767+980385925+980585275+980753448+980879222+980983833+981081200
2552+981165357+981238152+981291842+981313858+981335661+981436508+981667674
2538+981996989+982361813+982732815+983107582+983509123+983951855+984407370
2525+984874674+985371594+985879663+986395260+986919308+987441723+987982319
2511+988546919+989127215+989721359+990301228+990840261+991346839+991847593
2498+992326474+992734406+993084103+993399285+993657865+993882640+994113735
2484+994318767+994497947+994749496+995089606+995431917+995746247+996046585
2471+996335561+996620631+996907974+997229547+997610919+998011607+998393476
2457+998771296+999174328+999575301+999925850+1000232936+1000516373+1000805277
2444+1001147162+1001528676+1001871910+1002165715+1002473866+1002784929
2432+1003035910+1003261892+1003544831+1003848366+1004065329+1004178817
2421+1004266170+1004351890+1004369574+1004348268+1004396490+1004518358
2409+1004640014+1004757763+1004909885+1005073229+1005207952+1005308230
2397+1005323428+1005386067+1005559708+1005827165+1006147603+1006492896
2386+1006841599+1007164309+1007419906+1007557896+1007559032+1007446538
2374+1007252799+1006987046+1006629111+1006159321+1005582434+1004979981
2363+1004458631+1004012846+1003528852+1003066093+1003120706+1004333141
2351+1005845701+1006078430+1005543161+1005751885+1006330334+1006178496
2340+1005764953+1005741517+1005984543+1006171181+1006458452+1007078589
2328+1007755754+1008134143+1008270712+1008492718+1008923731+1009350839
2316+1009576111+1009713177+1009945693+1010253134+1010590403+1010968365
2305+1011332479+1011628131+1011866825+1012060068+1012235271+1012434266
2293+1012630349+1012780909+1012890847+1012971240+1013022516+1013064630
2282+1013111644+1013140123+1013119456+1013039844+1012917266+1012772387
2270+1012618205+1012478156+1012375747+1012319429+1012311972+1012346345
2259+1012389879+1012396271+1012358631+1012369497+1012495058+1012461324
2247+1012427448+1012378658+1012362537+1012383417+1012428940+1012495342
2235+1012598320+1012747033+1012899227+1013046307+1013202335+1013320085
2224+1013382652+1013452109+1013575966+1013710689+1013779932+1013764095
2212+1013697053+1013617299+1013513966+1013344515+1013127908+1012989421
2201+1013030612+1013217747+1013526608+1013967564+1014461287+1014926106
2189+1015351509+1015740054+1016097634+1016416082+1016673242+1016885517
2178+1017065195+1017202901+1017337553+1017503169+1017682065+1017857766
2166+1018025015+1018167479+1018298438+1018478471+1018700831+1018900181
2154+1019080711+1019278002+1019504126+1019747153+1019965323+1020149830
2143+1020318358+1020440794+1020514441+1020609393+1020726148+1020821313
2131+1020943679+1021117249+1021261204+1021349978+1021472628+1021673256
2120+1021866782+1022006619+1022143969+1022286859+1022443953+1022666952
2108+1022905789+1023091858+1023298949+1023583593+1023882157+1024182069
2097+1024376164+1024580485+1024785943+1024973859+1025085430+1025104818
2085+1025083725+1025021229+1024867473+1024618338+1024327019+1024027248
2073+1023692749+1023304773+1022915021+1022622992+1022477900+1022446652
2062+1022545652+1022840380+1023287444+1023782375+1024286538+1024794039
2050+1025291385+1025741147+1026089566+1026298645+1026382377+1026399563
2039+1026392888+1026385999+1026400984+1026495013+1026737471+1027118204
2027+1027574997+1028088180+1028661799+1029249196+1029808470+1030317463
2016+1030719643+1031053573+1031414207+1031757797+1032013394+1032208838
2004+1032379567+1032536448+1032712575+1032913558+1033046719+1033087128
1992+1033157224+1033237617+1033249975+1033275258+1033359344+1033459410
1981+1033523824+1033530002+1033502873+1033498967+1033569986+1033663163
1969+1033716143+1033733187+1033680065+1033554149+1033426457+1033307358
1958+1033139043+1032886074+1032531122+1032068362+1031534158+1030963664
1946+1030313699+1029614376+1028968885+1028334686+1027812271+1027621372
1935+1027718668+1027970927+1028301307+1028687153+1029142242+1029782051
1923+1030633000+1031380047+1032030367+1032763211+1033321846+1033719055
1911+1034199355+1034680082+1034992991+1035140356+1035247736+1035370102
1900+1035495734+1035649277+1035866595+1036034413+1036038603+1036056144
1888+1036077521+1035955795+1035877674+1035898624+1035899122+1035881154
1877+1035902175+1036003093+1036091796+1036178155+1036350021+1036363727
1865+1036149534+1036089168+1036260253+1036415003+1036455555+1036454915
1854+1036501362+1036610092+1036751987+1036717827+1036497882+1036339652
1842+1036028944+1035633653+1035634221+1035971916+1036289370+1036556757
1830+1036935997+1037142307+1037054315+1037095293+1037208852+1037239674
1819+1037367934+1037591786+1037775086+1037913004+1038070879+1038186498
1807+1038235856+1038306520+1038432294+1038603450+1038773682+1038882412
1796+1038898320+1038933120+1039016567+1038868564+1038591448+1038586192
1784+1038739593+1038792715+1038861959+1039009394+1039088012+1039136234
1773+1039226996+1039035671+1038627241+1038462051+1038467946+1038588252
1761+1038744138+1038729935+1038874671+1039206400+1039439484+1039703320
1749+1039924543+1039906008+1039839179+1039825046+1039900681+1040159687
1738+1040248248+1040100954+1040068144+1039767947+1039221883+1039017774
1726+1039118053+1039400921+1039745221+1039897769+1039853098+1039484155
1715+1038764876+1038230601+1038201909+1038472420+1038908902+1039263926
1703+1039215278+1039136518+1038887099+1037979123+1037201395+1036833233
1691+1036723580+1037057156+1037273124+1037023777+1036490922+1035614620
1680+1034858127+1034601251+1034669571+1034606933+1034159159+1033776225
1668+1033635394+1033350893+1033095935+1033118377+1033268653+1033658760
1657+1034200279+1034584491+1034700678+1034150352+1033346134+1033126899
1645+1033057940+1032781321+1032961851+1033576094+1034055471+1034323425
1634+1034351265+1034338481+1034788457+1035533729+1036072195+1036526218
1622+1036961919+1037040395+1037085918+1037563591+1038101133+1038595354
1610+1039295316+1039999042+1040502921+1040915754+1041343856+1041776219
1599+1042180032+1042552314+1042879142+1043099230+1043185589+1043188430
1587+1043153702+1043095395+1043068124+1043094543+1042968058+1042582568
1576+1042027697+1041200043+1040318272+1039698987+1039014791+1038313196
1564+1038040199+1037872026+1037349611+1036124891+1034121590+1032333689
1553+1031227641+1030386990+1029611393+1028982165+1028434042+1027399509
1541+1025436973+1022985969+1020634392+1018705732+1017112281+1015380840
1529+1013513327+1011834796+1010117133+1007983157+1005490749+1002753823
1518+999937213+997295311+994909502+992802300+990549652+987197347+982477005
1504+977474008+973144839+969001952+963866291+957307199+949948080+942017897
1491+932460458+920239172+905847264+890682529+875778859+861830819+849591494
1477+839186800+829164685+817118602+802645946+788783697+778425450+771599043
1464+765947714+759290119+752827755+751913671+761662363+779921889+800750168
1450+820188678+835799412+846103259+851208310+852955517+853584319+854858540
1437+857562016+860746361+863223074+865091155+866632762+867912096+869283684
1423+870894890+872602752+874472182+876300138+877848137+879491230+881426495
1410+883344431+885015079+886528705+887939353+889108821+889904730+889721785
1396+887558195+883089047+876729660+868768939+859270659+849531554+842704082
1383+841942689+848736498+861752273+876900389+889964102+898828183+903898861
1369+907187391+910202640+913094387+915457328+916824229+917074641+916588020
1356+915681535+914421588+912799659+910865885+909169102+909043541+911456692
1342+915654405+919979527+923600709+926853588+930396933+934498061+939041353
1329+943881433+948957792+954185209+959415324+964532449+969446530+974002108
1315+978103662+981737344+984772052+987007940+988317315+988666018+988216113
1302+987344924+986451365+985785350+985452200+985545448+986142291+987187405
1288+988503030+989856579+990993662+991664720+991709817+991144009+990227084
1275+989522435+989697212+991081939+993477406+996403100+999369488+1001975953
1261+1003977691+1005234939+1005650754+1005187285+1003749224+1001091199
1250+996990284+991407560+984482508+976572424+968365977+960807579+954928635
1236+951856286+952595167+957419338+965547806+975489954+985723918+995107716
1223+1002990671+1009343453+1014496797+1018630451+1021874453+1024484255
1211+1026622421+1028418204+1030050290+1031575065+1032938770+1034098864
1200+1035160951+1036049184+1036821799+1037482985+1037972447+1038252049
1188+1038355665+1038326973+1038189978+1037959522+1037670333+1037376244
1177+1037060565+1036627633+1036015948+1035247594+1034347217+1033278737
1165+1032027811+1030624761+1029075413+1027414920+1025732696+1023997065
1153+1021995611+1019515276+1016432559+1012642422+1008057869+1002749988
1142+997018905+991264599+985872348+981141495+977166426+973832018+970993037
1128+968611632+966621753+964723205+962461538+959424273+955216687+949269210
1115+940742469+928558751+911522455+888707991+860072534+827561434+796211706
1101+772821136+761895518+762793410+771150132+782576291+794593185+806006134
1088+815632887+821765227+822243397+814455465+795171776+760671081+708798740
1074+644057135+581143060+539398687+528775432+539865033+550120232+541554181
1061+512535826+475529230+447573530+441862972+463911036+511599335+577319225
1047+651518664+725497625+792503880+848359814+891517427+922326914+942167108
1034+952786918+955591241+950719203+936302651+908017744+860288076+792680930
1020+719304707+667513397+659000079+691856330+745225893+799417924+846967772
1007+887997021+923042004+951463552+972710913+987003324+995134845+998132126
993+996953426+992209364+984061082+972309728+956505680+935669305+907695531
980+868989240+814969997+743159882+658920963+578920240+526351806+518937221
966+559055403+633237691+720676223+804253530+875282437+931367336+973375579
953+1003681330+1025069450+1040076027+1050644419+1058153176+1063567230
941+1067501819+1070303230+1072174862+1073268340+1073741823+1073703118
930+1073139086+1072033819+1070411179+1068212505+1065288870+1061499302
918+1056702331+1050735395+1043536848+1035355330+1026889168+1019231271
907+1013801096+1011980881+1013818140+1017079967+1018401842+1015171476
895+1006099949+991142802+972263139+954707056+945740068+949228090+962285411
881+979578440+998170405+1016221562+1031207471+1041444348+1046955414+1048383746
868+1046091611+1039908351+1029516156+1016124337+1004373693+1000873811
856+1008319929+1022304756+1036030720+1046021586+1052337936+1056108613
845+1058173700+1059049292+1059131035+1058693630+1057893531+1056862123
833+1055735622+1054500674+1053057641+1051480596+1049857743+1048163161
822+1046380303+1044562219+1042755357+1040775492+1038449836+1035915172
810+1033298268+1030593158+1027950048+1025679929+1023873634+1022313704
798+1020786514+1019195194+1017417591+1015333896+1013017544+1010609720
787+1008087626+1005354961+1002375718+999192793+995837861+992185004+988068962
773+983582415+979226826+975790577+973656814+972151426+969947781+966024698
760+960117772+953093933+947492317+946220014+949525730+954567717+958530216
746+960637133+961323815+961109054+960232539+958894330+957485599+956133257
733+954599462+952830452+951008392+949227451+947558010+945983095+944395325
719+942520853+940575361+938827515+937213824+935511217+933745332+932114525
706+930611979+929075414+927481750+925904349+924398678+923024391+921770979
692+920547820+919301439+918014647+916703425+915457257+914342757+913281522
679+912153032+911100106+910533801+910512211+910201007+908643846+906579185
665+905756857+905947543+906236235+906307893+906223878+906042140+905820703
652+905646920+905565532+905618726+905833061+906170684+906562780+906968084
638+907433968+908047146+908791850+909570288+910323159+911116085+912059287
625+913063920+913985745+914903665+916027397+917263978+918488627+919773572
611+921112136+922432520+923783867+925265676+926872266+928512234+930169318
598+931951395+933858962+935682657+937392792+939170749+941132717+943220673
584+945178451+946946537+948739906+950655428+952635435+954593070+956459021
571+958269363+960095898+961850917+963537971+965434175+967593505+969706388
557+971582565+973293552+975018459+976886327+978853906+980821839+982689565
544+984451615+986177090+987744761+989154273+990688423+992426184+994143279
530+995664291+997052710+998387865+999662370+1000892276+1002013522+1002983498
517+1003939838+1004903139+1005792579+1006673640+1007530980+1008055241
505+1007988270+1007450018+1006566969+1005302549+1003691130+1001668512+999107287
492+995972229+992215968+988026777+983995247+980950880+979580713+979746755
478+980661692+981452771+980991716+978320483+973856448+969332189+966511674
465+966729347+971074638+979758189+991195640+1002516336+1011469687+1017935319
451+1022633218+1026061442+1028914911+1031557808+1033477803+1034413548
440+1035033685+1035790321+1036339013+1036871370+1038606433+1041819967
428+1045296839+1048138660+1050605146+1053204295+1055346864+1055918566
417+1056071683+1058050483+1061021842+1062633758+1062897451+1063253966
405+1064510858+1066384479+1066937148+1064655595
##END=
