##TITLE=3
##JCAMP-DX=4.24
##DATA TYPE=INFRARED SPECTRUM
##DATE=16/11/2015
##SAMPLING PROCEDURE=Instrument type and / or accessory
##ORIGIN=Default
##XUNITS=1/CM
##YUNITS=TRANSMITTANCE
##RESOLUTION=4
##FIRSTX=3996.3359
##LASTX=399.24785
##DELTAX=-1.9287336
##MAXY=0.90693653
##MINY=0.35508505
##XFACTOR=1
##YFACTOR=8.4465046e-010
##NPOINTS=1866
##FIRSTY=0.71064299
##XYDATA=(X++(Y..Y))
3996+841345652+841217784+841147570+841199155+841373315+841536607+841649162
3983+841775124+841896994+841995788+842136570+842304026+842394493+842449042
3969+842555810+842657356+842736250+842887970+843096990+843237771+843318500
3956+843384340+843406639+843421599+843510726+843608814+843472619+843333108
3942+843562169+843777540+843751995+843669078+843624762+843868007+844219150
3929+844140326+843920439+844118098+844310746+844031441+843812965+844056563
3915+844267841+844121767+844065737+844176951+844051412+844054728+844517014
3902+844879518+845019312+845002023+844353439+843572966+843920862+844588005
3888+844146254+843919663+844403824+844238062+844239473+844629498+844390981
3875+844130235+844006178+844114358+844637543+844411657+843881556+844171729
3861+844631263+844397614+843168333+842358857+843895176+845482868+844643047
3848+843179695+842791716+843173061+843322523+843131638+843509455+844014082
3834+843653060+843126416+842983518+843005676+843204887+843059236+842935744
3821+843522581+843237207+842532240+843045617+843237489+842320045+841803916
3807+842552493+842962630+842308683+842564348+843169815+842739849+842386590
3794+842251947+841877870+841643375+841609715+841704063+841768350+841515225
3780+841401824+841671814+841676048+841224912+840757404+840772011+841059432
3767+841070299+840916321+840536881+840272607+840796075+841177561+840447261
3753+839763464+840685143+841768844+840627278+839464330+840456646+840715205
3740+839185025+838343934+838856464+839303366+839088912+838396930+837611869
3726+837363543+837481179+837434605+837365237+837338280+837001886+836245617
3713+835868224+836140896+835925877+834832932+833456589+832564407+832165420
3699+831348887+830013049+828620898+827107655+825561244+824717684+824433933
3686+823531519+822136828+821250292+820816586+820576799+821305758+821908967
3672+820855469+820320498+821012763+820982842+820508207+820571012+820667548
3659+820462127+820806072+821401941+821009658+820625772+821354026+821766421
3645+820858503+819646229+819050147+818797728+818444327+818152955+817769422
3632+816896153+816598924+817166143+816572320+814833684+813422269+812857237
3618+812627823+811710591+810331283+809073281+807724953+806483958+805265332
3605+803524439+801637471+800127897+798652477+796967191+795438563+793948324
3591+791927984+789785211+788156801+786376108+784040685+781812807+779903187
3578+778004082+776045347+774076380+771894018+769507505+767445813+765572605
3564+763103740+760285991+757771539+755416781+752913691+750362968+747908357
3551+745310001+742376592+739463718+736745821+733958980+731001507+727951168
3537+724920940+721944132+718913411+715787212+712635820+709402289+706037502
3524+702715620+699493661+696244111+692933238+689552573+686081442+682621319
3510+679265070+675881089+672306506+668676034+665169125+661649161+658040988
3497+654495690+651058219+647652503+644162742+640512652+636785361+633113184
3483+629438395+625631575+621771336+618000788+614291562+610467594+606443004
3470+602386729+598541168+594912318+591314131+587646575+583910569+580152265
3456+576428926+572808686+569289004+565724865+562103178+558498709+554889795
3443+551307697+547786710+544255349+540738560+537398754+534244576+531123704
3429+528011196+525019321+522109199+519133309+516127180+513193735+510287953
3416+507296291+504294219+501478587+498841419+496275594+493701055+490941911
3402+488014924+485389999+483172565+480986145+478574087+476087685+473979948
3389+472270351+470624970+468871339+467028793+465221708+463578021+462132909
3375+460877060+459686696+458406677+457210598+456403627+455953337+455604453
3362+455216051+454848078+454602363+454455089+454286468+454155425+454327539
3348+454802774+455288982+455697002+456158970+456726472+457472014+458502402
3335+459683556+460842129+461984683+463136869+464337042+465697543+467268404
3321+468949775+470671968+472450544+474274460+476124239+477952248+479704644
3308+481492430+483601578+486156253+488843453+491285009+493520720+495804734
3294+498254370+500891221+503709041+506632500+509568026+512472503+515375745
3281+518341615+521339769+524312449+527308099+530379361+533587171+537005236
3267+540555015+544106240+547652738+551238823+554867249+558542567+562330228
3254+566238418+570164214+574040719+577926609+581966442+586191302+590438532
3240+594600764+598744401+602935742+607218891+611678669+616240700+620749734
3227+625265472+629842392+634363988+638814310+643283051+647759906+652229353
3213+656742833+661304087+665851298+670314111+674702476+679075668+683471513
3200+687928609+692411111+696813377+701100477+705344038+709604958+713849365
3186+718031744+722171147+726287404+730361603+734371516+738283904+742122126
3173+745983495+749864269+753665091+757359568+760984253+764528281+767970974
3159+771336678+774642400+777872192+781032968+784179773+787315851+790386796
3146+793380188+796266740+798997692+801631402+804269205+806904397+809463589
3132+811913683+814294198+816657283+818954811+821134350+823255107+825342698
3119+827373552+829367923+831311133+833151174+834900818+836607133+838279365
3105+839899800+841466746+842963265+844350899+845664226+846959064+848214737
3092+849418191+850568789+851628850+852596751+853493801+854312169+855065757
3078+855772982+856430245+857043827+857608294+858066346+858370844+858585933
3065+858806596+859006796+859080750+859027754+858968830+858939968+858813300
3051+858476906+857981948+857428207+856807780+856073316+855245492+854327130
3038+853272008+852108002+850844707+849383401+847672075+845755187+843684180
3024+841459054+839012911+836255073+833168533+829769592+825978861+821683928
3011+816840193+811410539+805309507+798413819+790617480+781856276+771860922
2997+760622102+747858113+733322181+716681863+697550663+675497627+650053977
2984+620899337+588465825+554626262+522476255+494788037+472799746+456300140
2970+443589358+432630197+423803365+420392886+426215776+442695448+467198896
2957+494056361+517406705+533687094+541997762+542613920+535945422+522917864
2943+505998877+489740963+479333284+477714542+484197377+495726687+509344716
2930+523686236+538508495+553699891+569014568+584197531+598986800+612881982
2916+625127513+635003539+642056169+646309044+648383015+649239560+649661976
2903+649893013+649721605+648684408+646096284+641234625+633670171+623336870
2889+610066349+593345938+573285861+551862743+533468407+523935867+527059738
2876+541517270+562337743+585080186+607702982+629544810+650172459+669189340
2862+686432090+701986167+716178084+729678865+743208297+757033900+770879755
2849+784139126+796236185+806968684+816475361+824913931+832325255+838857734
2835+844850374+850569213+856116362+861547992+866838770+871883763+876646063
2822+881160531+885421098+889386483+893060001+896514055+899845393+903114703
2808+906354515+909568429+912684113+915627190+918390109+920973081+923368486
2795+925558117+927511629+929210606+930643262+931821805+932821037+933746103
2781+934635674+935441551+936103119+936622282+937039335+937365144+937606131
2768+937778315+937905053+938042377+938233332+938482999+938768796+939043444
2754+939269118+939426060+939470164+939368759+939146261+938823133+938464652
2741+938245117+938339183+938844374+939791457+941086013+942449301+943588185
2727+944413258+945018795+945588696+946326970+947378704+948796965+950498623
2714+952271695+953888461+955248927+956402983+957416611+958311262+959095194
2700+959794233+960427150+960943914+961307617+961573797+961759389+961784511
2687+961632721+961380019+961047295+960606602+960158289+959944752+960154760
2673+960804120+961732362+962760879+963842604+964915649+965869789+966702906
2660+967484508+968230051+968935441+969654451+970392019+971099738+971767163
2646+972373829+972917127+973444899+973971119+974479556+974956943+975353531
2633+975672283+976027025+976421425+976720700+976894649+977023646+977151443
2619+977226244+977180869+977087015+977038676+976976224+976869033+976778001
2606+976697837+976619507+976571168+976510128+976369699+976152775+975918069
2592+975735794+975609549+975474342+975306110+975132797+974982206+974885882
2579+974873603+974961248+975146345+975407868+975710319+976000985+976238444
2565+976441254+976630374+976785340+976909397+977031126+977138176+977215165
2552+977292718+977389819+977484732+977555793+977605402+977680909+977849635
2538+978136491+978508874+978913295+979301273+979660602+980025293+980411296
2525+980818328+981264383+981748263+982254300+982768030+983276467+983788503
2511+984313735+984847152+985371184+985869954+986353833+986837078+987308678
2498+987752758+988166776+988528080+988804351+988999116+989168054+989380885
2484+989628364+989870692+990125934+990395642+990675512+990980715+991281190
2471+991548075+991806281+992079941+992385214+992731064+993089334+993431021
2457+993788867+994189054+994553110+994850128+995160694+995495818+995827272
2444+996157809+996478678+996788610+997086827+997369166+997641979+997895457
2430+998130869+998376443+998610656+998794766+998935406+999043656+999112389
2417+999129325+999128690+999153177+999193682+999247454+999357257+999530006
2403+999706776+999854827+999990951+1000053614+1000152197+1000349997+1000668114
2390+1001115792+1001658596+1002160470+1002464897+1002545414+1002525232
2378+1002470472+1002283116+1001929503+1001548511+1001135198+1000571437
2367+999957502+999370947+998985650+998782910+998022619+996665329+996194293
2353+998637542+1002898532+1004669982+1002596646+1000050721+999648700+1000411602
2340+1001083684+1001519790+1001656761+1001592121+1001642577+1002030979
2328+1002636446+1003124277+1003204371+1003076009+1003319325+1003969249
2316+1004431747+1004455598+1004410365+1004574998+1004946817+1005415877
2305+1005818181+1006062132+1006222602+1006422660+1006622506+1006768439
2293+1006898918+1007045204+1007200805+1007359793+1007495705+1007560133
2282+1007545526+1007478769+1007394724+1007312301+1007211531+1007091426
2270+1006982964+1006896025+1006821859+1006768086+1006747763+1006769851
2259+1006825952+1006853896+1006825034+1006847616+1006981694+1006908727
2247+1006882194+1006870268+1006875702+1006896872+1006936742+1006995101
2235+1007100246+1007242016+1007383644+1007541503+1007708818+1007832805
2224+1007920732+1008018467+1008142736+1008264394+1008333973+1008336161
2212+1008280060+1008196720+1008112816+1007988900+1007817915+1007727801
2201+1007811000+1008006612+1008283518+1008678341+1009133853+1009552952
2189+1009920889+1010269915+1010611954+1010914617+1011148406+1011334069
2178+1011498490+1011645552+1011792756+1011965151+1012157306+1012334077
2166+1012458699+1012558269+1012722761+1012954222+1013168464+1013356243
2154+1013545363+1013738859+1013959875+1014213282+1014451164+1014624195
2143+1014747900+1014860384+1014975620+1015105958+1015240600+1015349626
2131+1015437483+1015544604+1015683198+1015822074+1015972241+1016167642
2120+1016372357+1016534521+1016667046+1016808110+1016980576+1017199476
2108+1017440745+1017661550+1017871840+1018105136+1018354379+1018636366
2097+1018838400+1019066191+1019281280+1019441044+1019509353+1019519726
2085+1019520855+1019481620+1019363067+1019169078+1018924633+1018643070
2073+1018319025+1017981572+1017687519+1017479839+1017386550+1017397699
2062+1017516252+1017786454+1018189040+1018667204+1019180086+1019671093
2050+1020108187+1020476195+1020760439+1020961133+1021080321+1021136633
2039+1021159356+1021179962+1021223713+1021331399+1021560954+1021914849
2027+1022335077+1022794540+1023304953+1023832372+1024331776+1024777973
2016+1025130456+1025414278+1025696829+1025977898+1026250852+1026503554
2004+1026692603+1026827457+1026963370+1027126733+1027266950+1027352619
1992+1027440192+1027490648+1027468419+1027478440+1027568978+1027690988
1981+1027763673+1027755628+1027740244+1027794581+1027901279+1027954910
1969+1027946371+1027949547+1027923649+1027835369+1027732764+1027600521
1958+1027409566+1027188479+1026930768+1026594232+1026184943+1025727949
1946+1025172514+1024542914+1023945915+1023363241+1022917539+1022798351
1935+1022916410+1023133474+1023393867+1023718688+1024152606+1024765977
1923+1025536289+1026196586+1026780036+1027416411+1027866277+1028199849
1911+1028634543+1029042633+1029293641+1029425390+1029521785+1029623331
1900+1029745977+1029898261+1030098460+1030258154+1030265140+1030266481
1888+1030272620+1030170015+1030108269+1030126264+1030148069+1030174320
1877+1030216872+1030303246+1030378965+1030496742+1030714794+1030726014
1865+1030473878+1030387080+1030551713+1030717970+1030768919+1030734200
1854+1030705127+1030772518+1030960439+1031048648+1030965096+1030849931
1842+1030483616+1030057319+1030079125+1030424763+1030738011+1031030300
1830+1031442836+1031659972+1031566470+1031573386+1031630898+1031629981
1819+1031758766+1031984158+1032172078+1032346026+1032539804+1032637257
1807+1032652712+1032738098+1032902731+1033084795+1033244912+1033362547
1796+1033432550+1033540236+1033647992+1033476019+1033183942+1033175968
1784+1033337002+1033428739+1033555478+1033780376+1033986856+1034166590
1773+1034277452+1033985091+1033478278+1033296708+1033365935+1033587233
1761+1033819541+1033822857+1033950231+1034297281+1034616668+1034985805
1749+1035246481+1035195390+1035103935+1035136537+1035303499+1035638552
1738+1035806926+1035760422+1035755694+1035384228+1034767964+1034531070
1726+1034634169+1034960613+1035404763+1035719846+1035834659+1035539476
1715+1034823854+1034279780+1034265243+1034603543+1035158131+1035666497
1703+1035814618+1035935640+1035799869+1034918484+1034123262+1033748974
1691+1033711714+1034204979+1034667406+1034696056+1034310900+1033423376
1680+1032685949+1032583909+1032873869+1033010840+1032742826+1032478975
1668+1032332548+1032014290+1031796519+1031864264+1032003634+1032398811
1657+1033071458+1033654061+1033795901+1033095521+1032171584+1031794120
1645+1031467253+1030978575+1031063890+1031693632+1032256900+1032500498
1634+1032303333+1032028403+1032295994+1032931099+1033393738+1033748691
1622+1034076335+1034148878+1034256423+1034689635+1035076343+1035461358
1610+1036139086+1036857742+1037363286+1037760721+1038180031+1038619736
1599+1039039328+1039417216+1039722843+1039926076+1040051121+1040127828
1587+1040136649+1040076667+1040042865+1040108351+1040095931+1039842595
1576+1039329219+1038487422+1037650212+1037094919+1036425800+1035747790
1564+1035585697+1035674824+1035501793+1034431782+1032282163+1030320394
1553+1029166761+1028367022+1027659586+1027158206+1026875090+1026218180
1541+1024546160+1022098253+1019616403+1017682367+1016184437+1014552146
1529+1012825578+1011369705+1009916444+1008035192+1005737240+1003139731
1518+1000467985+997981408+995766302+993914336+992067450+989211877+984846094
1504+979986481+975847572+972089373+967472018+961474227+954726729+947523155
1491+938819252+927529553+914141327+900082711+886338472+873493190+862228895
1477+852691240+843486803+832247349+818567820+805468213+795807065+789519031
1464+784243213+777979807+771994082+771334349+780732423+798113979+817882118
1450+836275538+850954298+860549113+865241763+866829949+867441626+868681210
1437+871190510+874088636+876374379+878169398+879678972+880951440+882348107
1423+883983009+885668154+887438404+889136816+890650695+892362444+894358862
1410+896310540+898043953+899591351+900917521+901948015+902654745+902495334
1396+900535611+896410181+890433136+882942707+874067254+864959777+858540628
1383+857820278+864204284+876401971+890553241+902682902+910812600+915392342
1369+918352849+921102149+923784692+925996692+927243050+927422573+926939117
1356+926081443+924895561+923397983+921651515+920133614+920045122+922288525
1342+926196327+930235313+933587468+936544235+939756385+943503293+947694775
1329+952189625+956871267+961628557+966382813+971073205+975575606+979719384
1315+983448086+986752961+989483631+991473768+992658098+992999643+992591412
1302+991777631+990967448+990391196+990113726+990212732+990780163+991767681
1288+992980802+994200980+995239871+995904896+996003338+995466744+994557062
1275+993874677+994045309+995352637+997596111+1000303140+1003013204+1005390473
1261+1007233266+1008413432+1008850949+1008477013+1007171943+1004762283
1250+1001057786+995980050+989692933+982573758+975186710+968319460+962984365
1236+960292931+961112287+965638046+973151692+982257264+991535797+999972109
1223+1007017259+1012659533+1017214436+1020883297+1023761664+1026018192
1211+1027822032+1029334923+1030717335+1032011114+1033141531+1034064268
1200+1034922789+1035646879+1036261732+1036772003+1037126674+1037300481
1188+1037346209+1037288485+1037127027+1036880042+1036572368+1036230470
1177+1035846302+1035386698+1034823219+1034140057+1033323877+1032341298
1165+1031194440+1029924865+1028548592+1027083828+1025577570+1024000534
1153+1022162540+1019852521+1017006051+1013609297+1009553657+1004809564
1142+999641008+994459327+989597244+985289962+981683905+978742099+976272316
1128+974142879+972305591+970565403+968534196+965809524+961977794+956479760
1115+948577077+937332048+921627169+900487979+873799310+843424775+814112911
1101+792268260+782201350+783324216+791476284+802498462+814064290+825029732
1088+834239603+840069585+840491224+833040030+814647175+781699264+731910766
1074+669307328+608111284+567565787+557732208+569254884+579602369+570889186
1061+541653464+504468803+476429019+470855584+493355946+541577428+607401025
1047+680787629+752782506+816801875+869205807+909022874+937015695+954786499
1034+964113864+966328617+961579725+948055444+921494714+876463435+812318598
1020+742230376+692571651+684739323+717015293+768852217+820875863+865860003
1007+904089307+936290122+962074683+981125436+993801569+1000957722+1003602793
993+1002546331+998231921+990797805+980117454+965764291+946703588+920841897
980+884658761+833505703+764627075+682982270+604889537+553469136+546667901
966+586958333+660496868+746036561+826429504+893395901+945194860+983288110
953+1010357912+1029176993+1042159247+1051226572+1057702526+1062371678
941+1065732442+1068131164+1069759008+1070703763+1071077063+1070994852
930+1070448733+1069412876+1067938303+1065975829+1063371757+1060022565
918+1055803562+1050555054+1044237028+1037041782+1029515010+1022631882
907+1017792311+1016323666+1018170269+1021198309+1022392518+1019491852
895+1011348747+997857562+980808942+964990239+956958912+960227868+972179205
881+987912663+1004658903+1020696929+1033890179+1042866189+1047633500+1048775630
868+1046663412+1041141526+1031865534+1019892392+1009458250+1006506070
856+1013303459+1025800563+1037988371+1046831997+1052345133+1055538935
845+1057291331+1058141596+1058352521+1058019444+1057256683+1056285325
833+1055300418+1054259975+1053026812+1051675873+1050275255+1048792637
822+1047275159+1045726844+1044083333+1042288949+1040318077+1038136350
810+1035721045+1033270104+1031050553+1029130207+1027503138+1026107742
798+1024758003+1023346728+1021783100+1019903894+1017744749+1015497535
787+1013255403+1010894646+1008257831+1005410514+1002412395+999111401+995370208
773+991314568+987395264+984321215+982463462+981164954+979170371+975580828
760+970214402+963869984+958790343+957642779+960742656+965428955+969040163
746+970961356+971677119+971582065+970832923+969653039+968382759+967062516
733+965503051+963807744+962257876+960819010+959352834+957833522+956209629
719+954596532+953128452+951601165+949965770+948297913+946661459+945172349
706+943877088+942706589+941553591+940284228+938867732+937474382+936234021
692+935085469+933960557+932873045+931841423+930912547+930082252+929186613
679+928118155+927227102+927357722+928176584+926538578+921778536+919952538
665+922674104+924208518+923303635+922373982+922206173+922277093+922218664
652+922034554+921888621+921947827+922254300+922716868+923198984+923610391
638+923989195+924470605+925090609+925776311+926475561+927251942+928257031
625+929307848+930194172+931002590+932109296+933402229+934567506+935701027
611+936864540+937931657+938992283+940318029+941960129+943685921+945263663
598+946745857+948491408+950558040+952509577+954142009+955696887+957338775
584+959042339+960835240+962721785+964567965+966257062+967880602+969592634
571+971425194+973305317+975084670+976732626+978329139+979986270+981812973
557+983682158+985409150+987067832+988771325+990510878+992330031+994190042
544+995892406+997460763+999049231+1000561134+1001973184+1003527357+1005091762
530+1006355833+1007559710+1008861887+1010037537+1011084825+1012108332
519+1013164018+1014279968+1015219289+1015888619+1016578555+1017328614
507+1017692035+1017431148+1016911279+1016353939+1015452796+1013976600
496+1012050397+1009877349+1007303480+1003952313+999986858+996283983+993792537
482+992987859+993620141+994757191+995417771+994809763+992285503+988335926
469+984678214+982636069+982849182+986313469+993959428+1004821631+1015583768
455+1023251886+1028198931+1032191484+1035788367+1038761082+1040894541
444+1042181123+1043038444+1044068302+1045344158+1046517479+1047542045
432+1049060369+1051519637+1054385655+1057248356+1059806559+1061319662
420+1061918636+1062457205+1063709491+1065903427+1067600075+1067725896
409+1068137091+1070291227+1072666802+1073741823+1072936369+1069858438
##END=
