##TITLE=3
##JCAMP-DX=4.24
##DATA TYPE=INFRARED SPECTRUM
##DATE=16/11/2015
##SAMPLING PROCEDURE=Instrument type and / or accessory
##ORIGIN=Default
##XUNITS=1/CM
##YUNITS=TRANSMITTANCE
##RESOLUTION=4
##FIRSTX=3996.3359
##LASTX=399.24785
##DELTAX=-1.9287336
##MAXY=0.90846646
##MINY=0.34279692
##XFACTOR=1
##YFACTOR=8.4607532e-010
##NPOINTS=1866
##FIRSTY=0.71280301
##XYDATA=(X++(Y..Y))
3996+842481736+842359227+842408611+842594031+842734998+842792132+842871246
3983+842995376+843133454+843307110+843528952+843716767+843774676+843783623
3969+843906626+844113744+844257106+844325582+844414840+844529601+844642459
3956+844743905+844787794+844792162+844897341+845102135+845077619+844939047
3942+845102557+845279242+845224715+845065502+844912135+845093258+845440287
3929+845332642+845040492+845173006+845355960+845144052+844993996+845210696
3915+845377095+845313128+845435778+845676712+845538422+845394918+845684673
3902+845942936+846049243+846082213+845535533+844778988+845039577+845624932
3888+845155464+844933904+845479949+845384915+845382731+845726448+845460013
3875+845206328+845096147+845167018+845622044+845386535+844900511+845213091
3861+845693479+845551455+844386872+843389887+844548904+846009158+845398370
3848+844184967+843842799+844170455+844331641+844152209+844438159+844864512
3834+844577576+844228363+844215401+844199832+844221530+843908880+843715992
3821+844314451+844054708+843324933+843822862+844102472+843304010+842816859
3807+843545084+843960871+843252724+843349590+843804194+843297247+842939581
3794+842871527+842609671+842483920+842494065+842568740+842616011+842332527
3780+842133228+842322805+842296105+841837768+841392182+841452556+841756822
3767+841778802+841695180+841373654+841056002+841486864+841864538+841181893
3753+840432393+841148007+842097229+840976043+839816533+840812321+841229446
3740+839900507+839068230+839406171+839737419+839580390+839012646+838316334
3726+838100481+838186498+838038134+837844682+837719989+837345908+836597182
3713+836219156+836476786+836278615+835274021+833973402+832972683+832299971
3699+831261280+829832587+828385507+826763292+824987076+823824748+823306459
3686+822345684+820957428+820066890+819638423+819313656+819785378+820178903
3672+819082797+818527452+819227779+819314854+819010235+819236163+819483296
3659+819381498+819736276+820275488+819794607+819274768+819880836+820323534
3645+819594111+818563592+818034877+817755901+817399010+817167305+816828589
3632+815876549+815393908+815865700+815359740+813767677+812444867+811850565
3618+811509806+810492109+809047564+807729968+806283944+804904283+803606765
3605+801897334+800063845+798553713+797040552+795303083+793689745+792097259
3591+789969647+787694939+785973321+784199501+781862094+779551528+777545791
3578+775545832+773458376+771418190+769239997+766771837+764486069+762442572
3564+759955181+757121042+754537558+752114979+749491692+746707008+744009187
3551+741285653+738312167+735327550+732475870+729576778+726564405+723445936
3537+720301965+717221539+714102789+710849834+707577647+704275872+700794383
3524+697269075+693842959+690405570+686934931+683484298+680005697+676524631
3510+673107743+669620759+665932645+662237204+658705979+655116563+651358916
3497+647639030+644050670+640490843+636815057+633011196+629195570+625432006
3483+621641883+617735378+613808867+609989367+606228832+602352550+598266543
3470+594108820+590147331+586441252+582758387+578952201+575083739+571247824
3456+567426598+563596283+559860229+556202866+552535851+548859220+545203089
3443+541654780+538179455+534556928+530813054+527261821+524015524+520908821
3429+517829592+514820671+511855498+508799799+505647797+502535669+499551229
3416+496609832+493648182+490757191+487999419+485337914+482617408+479657273
3402+476621651+474041338+471938101+469852089+467496929+464987593+462751631
3389+460850018+459047349+457252536+455470966+453711201+452022482+450517564
3375+449243364+448022000+446700106+445469866+444640970+444205458+443849624
3362+443387940+442948131+442667887+442523750+442393420+442254707+442343296
3348+442756370+443223795+443576037+443929266+444406413+445117589+446137963
3335+447311352+448469840+449642489+450834934+452014522+453312357+454847533
3321+456530193+458276785+460083222+461942250+463837558+465703278+467499536
3308+469313688+471366413+473801567+476383888+478798859+481088678+483433659
3294+485910025+488559695+491386014+494296730+497189764+500069518+502975161
3281+505897924+508851508+511882022+514963188+518050906+521276808+524787146
3267+528466806+532121070+535716967+539320508+542948670+546602335+550370056
3254+554282055+558245482+562200278+566186741+570317130+574593453+578871749
3240+583121442+587401816+591674053+595969785+600451711+605070096+609654314
3227+614249733+618909401+623532224+628093194+632660363+637217176+641757082
3213+646356376+651018087+655656761+660211602+664714592+669208847+673695635
3200+678200739+682723878+687202775+691606786+695990367+700381485+704750060
3186+709111732+713460229+717719116+721879728+726001240+730059349+734024466
3173+737965772+741907994+745792518+749579401+753301119+756980356+760576465
3159+764099659+767574315+770935126+774170609+777385451+780604661+783757508
3146+786838075+789867074+792816396+795666667+798414789+801074215+803691162
3132+806251397+808714273+811125087+813492153+815775456+818006486+820220045
3119+822399789+824519158+826561175+828526051+830414209+832225226+833968330
3105+835620556+837164855+838681328+840219779+841712088+843087452+844335304
3092+845524121+846709344+847847509+848908814+849888892+850769919+851596349
3078+852398615+853129588+853779404+854370748+854861350+855220919+855509335
3065+855765908+855949989+856014027+855992188+855985213+855982255+855836779
3051+855487989+855000627+854423232+853770246+853042725+852232850+851315260
3038+850257759+849073874+847749303+846234170+844503042+842542252+840380120
3024+838052576+835503823+832616214+829348184+825721289+821687203+817153990
3011+812066207+806367567+799942744+792647672+784383935+775093976+764536087
2997+752744154+739418770+724235663+706889930+687097807+664425965+638356891
2984+608621048+575679169+541331210+508685673+480540977+458073612+441187872
2970+428351788+417438170+408640821+405161234+410838741+427158991+451556431
2957+478414915+501852989+518252705+526718594+527521177+520979164+507918596
2943+490818094+474382520+463932205+462371774+468932773+480550030+494271122
2930+508709625+523631792+538936599+554355321+569658262+584634216+598781028
2916+611273289+621307605+628460582+632832891+635013199+635884363+636226038
2903+636343898+636083873+635002420+632406608+627529396+619913361+609538356
2889+596220299+579347275+559035877+537359471+518758912+509099487+512227924
2876+526848008+547982525+571106505+594078104+616276251+637340954+656842900
2862+674558698+690569152+705233759+719201702+733151259+747409379+761788036
2849+775632484+788269516+799505541+809470255+818270738+826018018+832921326
2835+839254496+845264800+851087148+856740632+862195098+867443996+872500712
2822+877311139+881794756+885941630+889802061+893465025+896991742+900403910
2808+903757747+907084249+910316280+913385083+916297349+919061532+921638182
2795+923963050+926004433+927777337+929304940+930607249+931705046+932653704
2781+933527616+934326219+935000340+935556037+936021489+936392048+936662358
2768+936832068+936929780+937051092+937262719+937539934+937850682+938167629
2754+938434135+938607297+938655555+938556927+938322615+937984111+937631376
2741+937416860+937527887+938106550+939149961+940521592+941953807+943139947
2727+943966800+944581532+945224233+946060878+947183191+948668525+950458196
2714+952306410+953988224+955429387+956661106+957745096+958709816+959554140
2700+960285113+960908510+961426024+961861748+962204831+962382925+962378346
2687+962248087+961982073+961554099+961063708+960637848+960397407+960549858
2673+961208550+962214130+963333696+964466788+965584241+966627511+967553978
2660+968396258+969201977+969988181+970765861+971521279+972217379+972836057
2646+973429444+974053476+974682580+975291465+975855334+976333326+976738616
2633+977103961+977466348+977837963+978165478+978393519+978527653+978625153
2619+978695250+978662984+978531246+978394224+978274320+978172663+978134621
2606+978126942+978055367+977925319+977803655+977681497+977495443+977251339
2592+977049012+976909312+976726992+976505432+976348684+976256326+976192430
2579+976183764+976243434+976369396+976587856+976862957+977123546+977388784
2565+977670085+977926235+978146386+978315674+978409722+978455655+978514479
2552+978600426+978669325+978697152+978729417+978816844+978959572+979164436
2538+979453627+979819183+980224755+980594468+980916206+981288596+981749892
2525+982262333+982789851+983288062+983759643+984254332+984777623+985303379
2511+985840055+986398640+986949828+987481080+987995423+988466230+988902658
2498+989337606+989765721+990158823+990468514+990689229+990896700+991131927
2484+991348767+991529608+991741305+992024437+992338989+992657064+992984790
2471+993305823+993599663+993869622+994154867+994484354+994850263+995229064
2457+995594128+995959614+996324889+996654165+996972169+997307080+997635159
2444+997945765+998264756+998584239+998872444+999145713+999421448+999677598
2430+999915009+1000174823+1000439357+1000651336+1000796530+1000884591
2419+1000938624+1000973144+1000995124+1001007805+1001020697+1001059443
2407+1001154337+1001303970+1001462901+1001613731+1001760969+1001809226
2395+1001866993+1002032336+1002327585+1002699341+1003081453+1003438274
2384+1003756208+1004012076+1004161920+1004206796+1004194608+1004112818
2372+1003871461+1003447573+1002944501+1002406064+1001790980+1001153562
2361+1000566868+999944668+999351352+999299924+1000428578+1001978302+1002460169
2347+1002268267+1002659960+1003182265+1002970990+1002623539+1002670105
2336+1002911250+1003031576+1003168598+1003578819+1004102884+1004432442
2324+1004546005+1004718603+1005100786+1005511007+1005740175+1005859445
2313+1006057616+1006353640+1006681084+1007026986+1007373944+1007686876
2301+1007961484+1008206644+1008430247+1008634195+1008808626+1008959315
2289+1009090771+1009190104+1009257100+1009323815+1009392713+1009408000
2278+1009347415+1009246674+1009135858+1009037371+1008961851+1008882455
2266+1008784603+1008709575+1008691047+1008708377+1008721199+1008709152
2255+1008688370+1008740431+1008897672+1008859701+1008837650+1008827083
2243+1008810669+1008786857+1008825322+1008940153+1009073793+1009201798
2232+1009341145+1009491200+1009631463+1009756438+1009882470+1010007234
2220+1010115091+1010202024+1010246970+1010227527+1010159333+1010079726
2208+1009989693+1009848937+1009680143+1009598493+1009669646+1009867113
2197+1010181806+1010605412+1011041840+1011419866+1011781407+1012154854
2185+1012496106+1012782690+1013040883+1013279562+1013477663+1013640822
2174+1013812363+1014013987+1014207297+1014344390+1014429844+1014518256
2162+1014675074+1014898678+1015117702+1015290582+1015451909+1015658675
2151+1015926026+1016204016+1016410923+1016537448+1016667425+1016832838
2139+1016973805+1017074335+1017161832+1017250668+1017371487+1017526684
2127+1017676035+1017817777+1017962619+1018107390+1018264209+1018437300
2116+1018604333+1018749387+1018910643+1019128963+1019355384+1019543481
2104+1019739046+1019983361+1020248951+1020543918+1020771044+1021027547
2093+1021248402+1021412829+1021502298+1021507723+1021476726+1021413463
2081+1021268832+1021034944+1020754841+1020464523+1020155325+1019805338
2070+1019451827+1019198988+1019109730+1019139530+1019270141+1019552921
2058+1019952152+1020395413+1020876858+1021373166+1021846650+1022268847
2046+1022585161+1022772060+1022882241+1022944659+1022949449+1022969175
2035+1023055967+1023178900+1023374887+1023713392+1024161161+1024651975
2023+1025190131+1025761890+1026297509+1026746758+1027090828+1027393404
2012+1027729372+1028053999+1028316137+1028529455+1028710578+1028868382
2000+1029014915+1029173212+1029309459+1029388009+1029479522+1029553634
1989+1029546800+1029560467+1029642258+1029734686+1029800062+1029834089
1977+1029852828+1029883191+1029953499+1030015211+1030030358+1030029090
1965+1029977028+1029867058+1029777448+1029693333+1029521016+1029248028
1954+1028910933+1028504164+1028031948+1027517816+1026909987+1026232556
1942+1025611553+1025032749+1024575116+1024413860+1024501779+1024720804
1931+1025020491+1025429867+1025945831+1026582191+1027357828+1028056535
1919+1028670211+1029314532+1029793792+1030155686+1030580208+1030988597
1908+1031287016+1031477931+1031614319+1031716117+1031795935+1031907737
1896+1032108585+1032298303+1032321833+1032313731+1032313872+1032227009
1884+1032198548+1032238351+1032244269+1032241381+1032272307+1032374317
1873+1032476326+1032569247+1032702818+1032673441+1032473367+1032450471
1861+1032626592+1032775450+1032829484+1032840896+1032879291+1032973198
1850+1033113461+1033087395+1032834204+1032594750+1032267587+1031960714
1838+1032064203+1032474917+1032845687+1033109234+1033408922+1033546719
1827+1033449782+1033485640+1033590890+1033635554+1033771872+1033987092
1815+1034171244+1034317072+1034467691+1034570757+1034641839+1034771887
1803+1034925323+1035048185+1035151040+1035233958+1035254810+1035286230
1792+1035343223+1035188096+1034945049+1034972665+1035150195+1035246991
1780+1035372882+1035582536+1035729069+1035801842+1035834742+1035564713
1769+1035125749+1034978160+1035035223+1035207680+1035390071+1035392326
1757+1035551821+1035893636+1036125693+1036357821+1036527742+1036492096
1746+1036476879+1036561558+1036723378+1037024615+1037138600+1036980655
1734+1036856877+1036480683+1035962817+1035823399+1035950981+1036243976
1722+1036642080+1036873433+1036842295+1036415659+1035661157+1035157239
1711+1035201481+1035544635+1036031152+1036466100+1036546200+1036526686
1699+1036216995+1035247907+1034470579+1034167087+1034177514+1034646489
1688+1034965338+1034719755+1034119957+1033277395+1032696125+1032626522
1676+1032793344+1032771293+1032366356+1032000518+1031871245+1031667931
1664+1031508858+1031554720+1031708016+1032168960+1032814971+1033188700
1653+1033126353+1032447301+1031641865+1031384305+1031242352+1030974084
1641+1031203324+1031821226+1032230602+1032361706+1032266178+1032207495
1630+1032643852+1033361510+1033850492+1034232463+1034630779+1034756318
1618+1034834797+1035240087+1035693986+1036172612+1036875898+1037558261
1607+1038025123+1038412096+1038836900+1039282697+1039715884+1040114270
1595+1040426568+1040613538+1040708009+1040747812+1040727101+1040663627
1583+1040654116+1040741965+1040683282+1040282642+1039628528+1038761731
1572+1037931215+1037345789+1036678361+1036060529+1035942528+1035916673
1560+1035388522+1033992939+1031871738+1030111444+1029080502+1028306767
1549+1027593196+1027040387+1026597126+1025633744+1023609269+1021053190
1537+1018758404+1017003253+1015540956+1013891970+1012115684+1010518901
1526+1008856460+1006765693+1004306269+1001620213+998900482+996379698+994131478
1512+992184426+990084923+986817526+982118619+977216961+973140817+969293278
1499+964379855+958001246+950901598+943330157+934151437+922308499+908375920
1485+893792751+879516737+866144435+854397095+844424844+834788702+823092015
1472+808991065+795554866+785600367+779060291+773603218+767168180+760948362
1458+760109744+769654233+787556156+807999715+827041281+842256372+852227637
1445+857126477+858801317+859451697+860736535+863332558+866352610+868749335
1431+870624953+872195600+873499811+874886798+876483300+878110094+879840941
1418+881580734+883157299+884864686+886827026+888748083+890409820+891864086
1404+893157730+894205790+894903441+894684980+892614291+888334974+882191029
1391+874472914+865251009+855779011+849157990+848483376+855176607+867905011
1377+882659792+895307885+903815162+908642990+911757020+914625468+917436429
1364+919773343+921109890+921326237+920835141+919962638+918749094+917174854
1350+915329388+913757332+913704144+916083256+920170390+924358899+927859973
1337+931015427+934441754+938384046+942763189+947454629+952356710+957374608
1323+962415049+967366233+972088177+976442099+980378543+983856862+986706077
1310+988756689+989949450+990268089+989816867+988947040+988085738+987473190
1296+987173854+987266423+987846566+988878635+990166009+991455285+992540542
1283+993223187+993314206+992784646+991891008+991191456+991336016+992654316
1269+994953893+997753864+1000580465+1003070111+1004993352+1006215702+1006642197
1256+1006199428+1004784191+1002198664+998242987+992876511+986237595+978665379
1242+970814118+963597878+958026960+955179788+955990649+960689557+968505101
1229+978019650+987794646+996742789+1004258294+1010313614+1015204917+1019104517
1215+1022134714+1024546937+1026539922+1028228218+1029741026+1031158659
1204+1032450683+1033553834+1034566459+1035389790+1036051652+1036598754
1192+1037032787+1037310847+1037419690+1037371855+1037188971+1036914927
1180+1036630597+1036361555+1036032842+1035583311+1034986120+1034225982
1169+1033315155+1032251032+1031022130+1029651980+1028180947+1026644256
1157+1025039512+1023295421+1021295673+1018902471+1015967661+1012353307
1146+1007976630+1002918788+997443891+991923203+986755391+982226898+978443537
1132+975327746+972695935+970455394+968531097+966643925+964401553+961442439
1119+957369254+951618974+943367566+931564713+915103319+893075798+865355131
1105+833835676+803456428+780811215+770287564+771298076+779580905+790827920
1092+802617458+813773595+823137524+829032152+829355158+821604779+802648737
1078+768835905+717959275+654237578+592069269+550743397+540350146+551575252
1065+561852545+553232198+524197774+487236005+459331221+453720641+476007236
1051+524000906+589868637+663840610+737133354+803079458+857668930+899514781
1038+929116702+948005394+957973067+960336047+955267144+941054040+913436721
1024+866843283+800726341+728821641+678050332+669880150+702466476+755214708
1011+808637836+855277137+895223699+929122831+956492523+976833510+990373198
997+997970916+1000717769+999518526+994879570+986914534+975412143+959963516
984+939680156+912519483+874888982+822145822+751677142+668648642+589541827
970+537518966+530422242+570648625+644588051+731349964+813838759+883460015
957+938016729+978605357+1007697091+1028058155+1042247306+1052239988+1059321601
943+1064333229+1067916727+1070500422+1072263675+1073299830+1073741823
932+1073676799+1073068477+1071888326+1070201650+1068010353+1065169029
920+1061540584+1056997368+1051350788+1044532934+1036793262+1028724597
908+1021322725+1016085522+1014454078+1016356748+1019519528+1020751318
897+1017629328+1008919441+994563045+976476266+959714410+951268141+954834661
883+967583777+984363950+1002273833+1019470919+1033592369+1043076554+1048016114
870+1049228178+1047116136+1041285404+1031294554+1018410812+1007174152
858+1003947546+1011272558+1024750744+1037797222+1047233009+1053204497
847+1056713249+1058550473+1059331464+1059481167+1059152032+1058418523
835+1057429287+1056306973+1055086244+1053763575+1052337982+1050786426
824+1049127789+1047446468+1045783604+1044070158+1042143677+1039960270
812+1037610605+1035119831+1032553115+1030105104+1027928530+1026089404
800+1024591813+1023258859+1021816780+1020063813+1017971214+1015682768
789+1013307601+1010894884+1008396855+1005677476+1002692296+999420039+995804557
775+991809992+987469244+983188237+979859902+977942861+976656825+974634534
762+970900699+965210441+958406888+952935162+951666456+954961398+960010505
748+963921236+965959237+966604897+966352339+965500759+964268899+962943764
735+961591930+960026003+958260567+956550925+955012332+953559193+951973752
721+950297433+948455207+946663000+944971323+943238152+941455455+939799918
708+938337480+936958312+935572803+934169542+932739158+931300602+929910232
694+928580942+927314209+926095381+924833228+923522747+922350275+921442829
681+920631827+919658442+918586287+917850524+917679264+917423396+916135106
667+914381434+913758530+913996504+914164453+914011721+913716472+913438976
654+913292232+913320975+913438835+913540351+913649335+913903724+914342829
640+914826175+915280567+915805549+916464241+917243471+918129852+919097391
627+920084372+920951874+921700529+922598676+923887881+925315095+926610359
613+927870399+929185318+930485936+931763941+933139023+934679166+936250728
600+937724368+939284518+941143792+943102398+944912921+946649474+948491277
586+950413039+952230396+954020419+956014249+958142425+960197968+962065837
573+963737506+965384660+967068447+968734904+970593896+972656695+974620726
559+976514872+978510393+980480694+982268744+983996280+985857597+987816485
546+989648636+991281277+992842414+994362338+995779900+997148078+998577265
532+999975525+1001263462+1002641573+1004107886+1005457607+1006731948+1007995369
519+1009090278+1009912974+1010611329+1011421204+1012415442+1013365932
507+1013846601+1013631100+1012929856+1011989934+1010843809+1009492116
496+1007854966+1005726579+1002765703+998789174+994333595+990400813+987739907
482+986565462+986625836+987379423+988121456+987817330+985395737+981098878
469+976744675+974279404+974945423+979419036+987737441+998677231+1009632731
455+1018177698+1024229144+1028837033+1032551424+1035735128+1038488955
444+1040440869+1041357895+1041723523+1042218563+1042959399+1043907423
432+1045696741+1048742578+1051983485+1054193310+1055354793+1055975584
420+1056449350+1057407096+1059748589+1063026975+1065148881+1065490978
409+1066109022+1067497137+1068615857+1069981711+1070503945+1067927506
##END=
