##TITLE=18
##JCAMP-DX=4.24
##DATA TYPE=INFRARED SPECTRUM
##DATE=16/11/2015
##SAMPLING PROCEDURE=Instrument type and / or accessory
##ORIGIN=Default
##XUNITS=1/CM
##YUNITS=TRANSMITTANCE
##RESOLUTION=4
##FIRSTX=3996.3359
##LASTX=399.24785
##DELTAX=-1.9287336
##MAXY=0.97182429
##MINY=0.20252664
##XFACTOR=1
##YFACTOR=9.050819e-010
##NPOINTS=1866
##FIRSTY=0.51443666
##XYDATA=(X++(Y..Y))
3996+568386864+568512187+568752099+569116280+569471307+569799333+570125120
3983+570384130+570550218+570707942+570920524+571190663+571539697+571927059
3969+572225648+572404446+572550316+572730892+573010712+573436139+573850831
3956+574083301+574239379+574456109+574612516+574652359+574883314+575251973
3942+575393233+575517503+575787708+576041976+576281558+576399111+576426046
3929+576682355+577032707+577106531+577147164+577452997+577677630+577634890
3915+577745066+578144941+578354822+578307406+578460059+578657297+578587885
3902+578614556+578824701+579017790+579484244+580049285+579826430+579277326
3888+579616548+580010430+579841972+580071544+580219521+580018662+580244151
3875+580472670+580538987+580498946+580194891+580424069+580889075+580690784
3861+580270296+580276355+581130896+582113460+581505087+580380802+580776330
3848+581779375+582123339+581859785+581732552+582036212+582096470+581958568
3834+582283631+582651698+582726905+582794143+582821605+583075083+583245780
3821+582714524+582870206+583650792+583416017+583045184+583493134+583861134
3807+583296028+582936391+583621091+583701435+583279367+583647631+584001999
3794+583991331+584046715+584103088+584131274+584033610+583877598+584027288
3780+584164136+583934036+583784808+583945232+584139308+584003975+583685959
3767+583572490+583504988+583606405+583771571+583339690+582844128+583183152
3753+583670351+582991183+582011516+582714656+583551218+582414684+581481643
3740+582075133+582380175+581638379+580920224+580784035+581043111+581280190
3726+581036262+580623282+580504017+580378628+580076615+579864889+579820239
3713+579217793+577742036+576461607+575872069+575456981+574460719+572742417
3699+571015355+569388395+567618527+566032002+564669056+562895040+560984834
3686+560083404+559985674+559633545+558914337+558005267+556360789+555039068
3672+555416947+555515665+554431749+553881196+553792489+553219019+552496847
3659+552026968+551264197+550506627+550662277+550598233+549144241+547677540
3645+547407730+547563807+547151947+546180018+545034856+543753440+542578281
3632+541865395+540541303+538080546+536343870+535618010+534560733+532634360
3618+530372222+528762384+527537800+525926579+523942385+521541161+519040297
3605+517106417+515364044+513164700+510768185+508457611+505912262+503282650
3591+501152027+498957161+495930276+493000825+490888838+488838690+486392486
3578+483792543+481125328+478344611+475666366+473109360+470122582+466816667
3564+464098481+461790738+459168371+456321634+453564790+450743869+447624161
3551+444516636+441649056+438563000+435230678+432190161+429442471+426606304
3537+423533123+420403569+417435757+414545753+411507607+408303308+405080569
3524+401939623+398972634+396170777+393281234+390205386+387155946+384233936
3510+381283806+378257514+375265270+372204568+369128424+366336676+363680295
3497+360855554+357942204+355117529+352353045+349523826+346641955+343834501
3483+341016247+338042146+335156389+332532607+329951696+327236637+324336162
3470+321321065+318457700+315905008+313435097+310806144+308200307+305804351
3456+303416265+300866141+298288029+295859244+293522690+291117844+288736047
3443+286487377+284259979+281951578+279615353+277476432+275597508+273769572
3429+271936550+270190967+268502661+266797053+265088398+263453074+261923250
3416+260376435+258781760+257296454+255935517+254634327+253336891+251904039
3402+250394664+249193755+248433173+247723102+246753396+245646497+244799611
3389+244315952+243894970+243394205+242898197+242456702+242095270+241837643
3375+241644242+241418918+241157372+241047838+241253126+241668806+242120427
3362+242585071+243120904+243735386+244358165+244925016+245463665+246132774
3348+247018201+248001671+249003301+250041382+251111419+252266903+253582977
3335+254982390+256365751+257734311+259072545+260413265+261894438+263572321
3321+265356759+267141312+268909533+270708262+272516210+274266847+275994501
3308+277805479+279826453+282112035+284474339+286650666+288656593+290735454
3294+292993739+295343760+297744096+300222173+302752836+305282150+307809454
3281+310349798+312880560+315424065+318011595+320630932+323381454+326362043
3267+329443291+332489307+335544081+338654273+341777339+344903699+348107702
3254+351417732+354763654+358105954+361512956+365073337+368748832+372420805
3240+376076313+379781181+383547458+387384366+391349725+395424799+399505471
3227+403568625+407688810+411898427+416131620+420343509+424568240+428827545
3213+433114805+437428935+441763381+446105302+450438661+454779792+459187305
3200+463646810+468075101+472472933+476885911+481296651+485674727+490034099
3186+494381881+498679613+502927195+507171847+511408959+515619728+519797142
3173+523912520+528002016+532115714+536200930+540196616+544094440+547929602
3159+551751692+555521197+559175651+562786642+566452555+570130718+573708122
3146+577126617+580430325+583712828+586995331+590251096+593462277+596576058
3132+599575909+602518861+605409655+608228074+610981889+613670046+616326987
3119+618941056+621418739+623783940+626155529+628547599+630864792+633023338
3105+635047606+637026301+639006576+640986457+642899560+644682467+646378115
3092+647994736+649508755+650993797+652481210+653907970+655214807+656404948
3078+657586133+658826785+660013765+661017337+661866083+662647591+663394327
3065+664079027+664662046+665170911+665621297+665928711+666034541+666005564
3051+665922850+665751625+665387510+664807520+664069807+663176872+662095722
3038+660817400+659320965+657548595+655438782+653033079+650404456+647495156
3024+644205014+640536927+636536336+632133630+627199207+621704156+615642616
3011+608924892+601464975+593187857+583960971+573622707+562016922+549002520
2997+534412591+517879297+498545366+475447528+449113253+421008880+391486968
2984+360602899+329912841+302507525+281937781+270866167+270599271+281246298
2970+301325780+327751759+357065667+386606513+414662285+440038395+461661102
2957+478551826+490098045+496413623+498218064+496180757+490836153+483082192
2943+474338521+466263152+460100918+456108361+453771478+452407314+451730121
2930+452204281+454550219+458943145+464842714+471324709+477456550+482394792
2916+485465932+486365156+485266422+482637042+478780641+473891197+468284916
2903+462623317+458420022+456667244+456222028+455591165+454627830+453620636
2889+452419464+450742914+448881968+447747377+448452590+451969967+458715647
2876+468404938+480368055+494002355+508873686+524485858+540195694+555374734
2862+569585566+582605138+594442735+605299216+615424700+624977505+633941496
2849+642243573+649862136+656788030+663058727+668818451+674214060+679329915
2835+684311491+689320264+694343263+699244692+703935120+708388403+712584256
2822+716487710+720085266+723420388+726562486+729602839+732632588+735740178
2808+739075234+742725474+746559451+750348515+753955619+757324261+760423883
2795+763261400+765826407+768060622+769953705+771611881+773146249+774528557
2781+775679250+776641597+777525642+778311430+778897215+779306968+779643489
2768+779920214+780102634+780180871+780162563+780116464+780101449+780089726
2754+780102107+780193186+780383706+780706924+781161196+781748956+782471392
2741+783238016+783990810+784785160+785674604+786628851+787571573+788493089
2727+789466105+790563719+791861336+793426524+795231032+797169225+799095236
2714+800822100+802237335+803391585+804378232+805302317+806367135+807709073
2700+809248710+810829835+812370196+813892314+815410679+816860423+818203678
2687+819470014+820680570+821821320+822883306+823878515+824886697+825983784
2673+827085020+828089976+829034278+829941767+830752383+831442088+832059615
2660+832635456+833182913+833728328+834267092+834775760+835233325+835663690
2646+836118423+836579543+837026900+837454236+837796422+838041009+838245556
2633+838468346+838747836+839059662+839374386+839716110+840128498+840625838
2619+841163351+841673797+842123130+842539205+842969110+843362333+843622792
2606+843789275+843977226+844199752+844400941+844588892+844806940+845062591
2592+845344123+845622824+845878409+846124577+846356718+846564295+846756395
2579+846934403+847106813+847271320+847389925+847457493+847507609+847544488
2565+847546266+847503592+847446693+847370959+847197430+846923339+846635550
2552+846379965+846173969+846064320+846071300+846201036+846511676+847009610
2538+847607907+848245323+848904207+849567834+850238572+850909903+851529275
2525+852083119+852600415+853088207+853562103+854028097+854470053+854874472
2511+855252153+855664738+856170048+856754318+857382119+858041859+858727745
2498+859472768+860289377+861116324+861910213+862684345+863497660+864359182
2484+865207138+866026315+866832057+867646097+868505380+869389491+870255623
2471+871134596+872037081+872909139+873744319+874592143+875481654+876377948
2457+877228603+877975273+878569751+879079868+879603354+880116500+880552727
2444+880891619+881141805+881348262+881568417+881793511+881932466+881935034
2430+881886762+881834407+881713233+881511781+881286753+881085366+880968802
2417+880991917+881151749+881463575+881936747+882520885+883180692+883859135
2403+884512290+885169463+885834999+886481041+887128401+887774576+888390061
2390+888972290+889491495+889788767+889667922+889108413+888293912+887372659
2376+886352557+885293074+884406395+883580237+882527405+881594759+881123365
2363+881491893+882627703+883555673+884005137+885149772+888505901+893873851
2349+897383226+895003800+889144634+886564875+888778609+891809214+893421358
2336+893758340+893781522+893818532+893910598+894527731+895621591+896310440
2322+896298849+896527763+897612338+898776597+899141239+898980618+899008277
2309+899454317+900128282+900762010+901133172+901307162+901563406+901896832
2295+902176323+902457921+902733132+902925298+903069719+903243248+903391028
2282+903383587+903237782+903083944+902956711+902802346+902624997+902431382
2268+902165918+901796534+901385135+901023522+900798230+900798230+901051840
2255+901546876+902277675+903226192+904275731+905009033+905597781+906111257
2241+906590948+907037119+907442329+907819878+908188340+908529340+908824702
2228+909107617+909395801+909650859+909877863+910137993+910446131+910764674
2214+911092700+911435544+911734792+911997424+912275005+912545012+912798359
2201+913092535+913444072+913800811+914127718+914418009+914699739+915004980
2187+915309825+915588855+915873614+916219619+916626145+917027271+917398301
2174+917772558+918143983+918504345+918883409+919275052+919653260+920005126
2160+920308062+920565491+920827069+921099316+921322566+921492276+921638014
2147+921755434+921846644+921930215+922045001+922212472+922427227+922739975
2133+923233232+923897912+924642475+925417199+926211351+927016632+927853656
2120+928709317+929503205+930193240+930825058+931419535+931963239+932481061
2106+932956669+933335273+933622995+933906240+934273121+934664698+935012284
2093+935326875+935652992+936022376+936412240+936754228+937097270+937540938
2079+938037226+938510793+938994897+939518448+940037192+940486458+940825944
2066+941124072+941536130+942050856+942501769+942864765+943212745+943552099
2052+943884604+944221652+944556791+944896737+945243927+945546797+945759708
2039+945922898+946103935+946323234+946542730+946746092+946973425+947246133
2025+947523121+947763296+947994186+948223692+948423827+948636211+948860515
2012+949050640+949255780+949455125+949550154+949606724+949740082+949871464
1998+949865668+949796652+949755755+949684500+949664677+949726384+949710644
1985+949651967+949631223+949577024+949450844+949328221+949293515+949292198
1971+949256834+949204347+949188739+949312745+949538366+949705113+949790856
1958+949812984+949715584+949498129+949194864+948772401+948184245+947488745
1944+946658307+945603169+944480135+943201813+941457103+939393849+937370241
1931+935594907+934253694+933701627+934152408+935538667+937791189+940443389
1917+942985873+945485881+947820130+949700108+951259698+952723535+954084110
1904+955225650+956167054+957006383+957747982+958333899+958871609+959483407
1890+959973899+960416053+961040363+961632536+962116047+962580987+962989687
1877+963338326+963634347+963946699+964199453+964314502+964722280+965527232
1863+966139162+966429914+966735549+967154259+967549128+967787986+967898360
1850+967980284+968252465+968564818+968597219+968964034+969800202+970328034
1836+970444071+970593629+970785005+970736602+970814048+971265685+971674121
1823+972136361+972693235+972982473+973102396+973318336+973540993+973640040
1809+973802045+974101226+974319867+974351873+974289376+974299254+974465934
1796+974692082+974651252+974394415+974631298+975241647+975395222+975172630
1782+975077930+974991066+974787375+974655730+974464551+974010741+973815611
1769+974061120+974274887+974399881+974267775+973968593+974045315+974263626
1755+974477591+974770516+974783819+974793631+975292026+975888611+976206628
1742+976163690+975815248+975783967+975876428+975267659+974940555+975476948
1728+975850020+975629470+974901371+974065599+973398614+972361916+971119156
1715+970654743+970737458+970501629+969656637+968151970+966546544+965480079
1701+964054241+962313153+961421601+960489548+959239017+957863098+955838369
1688+953714660+951341425+948241210+945967680+944776222+943302704+940858345
1674+938256195+936496470+934895127+933176363+932267952+931645683+930421166
1661+929134744+928272366+927679402+926607867+924722489+924012633+924675139
1647+924607308+924044638+924248725+924667302+924929473+925278573+925786451
1634+926993188+928870400+930442635+931615653+933038462+934567034+936013353
1620+937812658+939753223+941546008+943810384+946407595+948494820+950021680
1607+951406358+952795449+954112823+955291703+956325305+957220743+958020295
1593+958779148+959501122+960155199+960749545+961247150+961513667+961600069
1580+961788087+961854996+961542643+961674947+962189279+962012720+961498323
1566+961191304+960763507+960197083+958978690+957358183+957221928+957830170
1553+957625491+956758635+955704880+954503017+953068420+951714101+950468049
1539+949262893+948875399+948531172+947062923+945341328+943964289+942108743
1526+939880192+937820100+935504817+933221277+931361648+929313542+926884197
1512+924158832+921132046+917443412+913004618+909311835+906335495+902178035
1499+895968781+888159765+879804608+870926954+860239129+848768150+839739818
1485+834070645+830143614+826441809+822642077+818694499+813914705+807253682
1472+798944098+790768134+782739819+773039300+761544349+750115913+739684068
1458+731089395+727589438+730726268+737095090+743491835+749664342+756204915
1445+762545551+767500060+770485752+771423666+770490625+769002553+767945836
1431+766571892+764620658+762879702+761605463+760733536+760232441+759790617
1418+759859567+761018032+762499189+763738326+765158962+767167687+769680997
1404+772576730+775707634+778148635+778316369+775056125+769620476+764821452
1391+759810834+750727908+737505304+724982810+717540213+717277450+724584977
1377+738010548+755756307+776737680+799616878+822266174+841809723+855739221
1364+863576028+866832123+867749425+867747515+867270589+866384240+864959982
1350+862844176+860245122+857629472+855242143+852975857+850676248+848701175
1337+847565496+847204213+847360751+848063035+849401087+851355548+853898098
1323+856984285+860519147+864397510+868572816+873003971+877645996+882566721
1310+887751065+893020890+898245341+903353491+908217316+912661774+916560685
1296+919873020+922565457+924478495+925413314+925245777+923795507+920739415
1283+915861760+909546413+902925166+897662124+895481780+897402522+903158624
1269+911315160+920153367+928455378+935623423+941530927+946321390+950156947
1256+953159828+955391474+956917083+958274036+960016573+961391044+961116229
1242+960036330+960205579+961187880+961371353+961163447+961728158+963392196
1229+965951407+969026400+972226715+975258045+978070010+980765937+983351359
1215+985673425+987634735+989279871+990677984+991903556+992913187+993631736
1202+994196118+994779071+995316387+995753404+996134773+996505606+996864189
1188+997025272+996833434+996472941+996149854+995780075+995125142+994087061
1175+992745782+991079505+988892246+986100959+982879373+979384091+975566512
1161+971483930+967550709+964146373+961274282+958792253+956564690+954363996
1148+951875645+948967267+945748183+942245789+938357283+934050464+929444462
1134+924626406+919509037+914170458+908903992+903725377+898266283+892082976
1121+884851512+876245775+865676820+852288655+835220153+813784641+787313156
1107+754899066+715863729+670683085+621159268+570095551+521331806+479674663
1094+449615862+433760618+432687304+445068703+467580591+495911738+525863457
1080+553776025+576746301+592650213+600575794+601789972+598929603+593328591
1067+584130286+567337785+535288403+482997206+415212211+344560032+284196725
1053+242675622+223766097+228254579+255599983+304386514+371151143+449699038
1040+532064775+611029963+681665745+741213695+788930567+825461616+853718049
1026+876853820+892459801+896147908+890544854+885611156+891078679+908491275
1013+931704492+954464491+974251970+990859285+1004796355+1016653906+1026435230
999+1033754018+1038788146+1042291199+1044767235+1046092578+1046034559
988+1044698812+1042265384+1038543691+1032826114+1023970324+1010269081+989406117
974+960522936+929343440+909390928+911805652+934496898+965716369+995158136
961+1018589664+1035924550+1048386128+1057102634+1062995057+1066998217
949+1069892567+1071942979+1073100193+1073551764+1073712451+1073741823
937+1073484064+1072867327+1072019767+1070967000+1069555255+1067754897
926+1065687429+1063404152+1060736805+1057440341+1053551441+1049189632
914+1044215827+1038478691+1031993437+1024821901+1017150062+1009216974
903+1000767709+990784143+977779521+959992865+935170205+901009100+856443085
889+802383534+742467057+684116953+639032260+622456951+646523260+708145396
876+787161425+861078062+918217412+957580775+983000481+998570572+1007119607
862+1011016146+1012894280+1015020097+1018010069+1021040411+1023371038
851+1024939454+1025657279+1025163494+1023674105+1021957384+1020274511
839+1018263086+1015728636+1012954933+1010254461+1007513950+1004392924
827+1000954146+997546255+994115248+990223581+985591633+980260562+974250257
814+967247115+958856067+949209155+939358946+931288219+927150714+927919248
800+932488502+938166039+942612999+945024694+945625494+945109648+944147565
787+942842176+940999934+938778034+936506019+934272989+931936765+929289768
773+926481227+923901271+921604691+919262210+916614620+913821424+911040675
760+908074410+904880088+901974147+899951460+898644294+897352406+895873159
746+894338462+892620752+890637908+888452229+886169479+883930786+881777903
733+879665390+877540298+875489425+873523637+871558047+869811954+867352975
719+865085569+863404738+861580211+859476522+857450411+855616334+853943143
706+852343117+850736045+849153273+847609619+846084669+844610690+843212512
692+841852134+840530150+839361083+838342101+837306522+836197515+835052880
679+833836068+832949323+833447652+834515236+831232272+823622007+822673227
665+829500996+832531009+830086649+827699189+827126641+827236159+827307546
652+827350418+827477388+827682264+827864684+828018654+828364791+829004314
638+829730371+830367721+830962923+831657435+832463770+833264113+834079141
625+835111689+836257707+837430858+838837268+840384610+841838239+843263155
611+844631698+845890000+847310372+849051658+850892517+852796006+854904765
598+857009245+858922018+860957810+863237597+865325283+867139734+869096697
584+871219352+873208519+875154023+877298937+879604934+881940632+884033389
571+885797198+887661304+889731341+891572398+893183817+895085000+897355896
557+899664198+901917379+903999072+905828210+907737888+909987645+912352978
544+914582451+916679554+918699277+920853477+923134844+925011134+926526536
530+928432724+930653175+932354355+933476203+934734373+936395250+938008644
517+939409852+941132172+943173561+944885542+946055597+946922058+947843838
503+948979121+950162677+951337408+952384049+952817115+952495938+952103505
490+952048450+951842783+951288477+950925218+951367108+952569762+953474880
476+953379522+952741184+951841927+950654157+949286008+947774558+946675429
463+946550435+946935097+947053176+946582902+945525855+943788915+941116301
449+937226807+931817895+925304981+918940835+913273901+907607165+902135361
436+898587263+897407395+898012673+901481284+908351662+916633060+925028454
422+934120402+944032844+953598294+961387619+967317251+971997011+975898753
409+979318433+981987689+984319041+986898865+988987934+991302229
##END=
