##TITLE=18
##JCAMP-DX=4.24
##DATA TYPE=INFRARED SPECTRUM
##DATE=16/11/2015
##SAMPLING PROCEDURE=Instrument type and / or accessory
##ORIGIN=Default
##XUNITS=1/CM
##YUNITS=TRANSMITTANCE
##RESOLUTION=4
##FIRSTX=3996.3359
##LASTX=399.24785
##DELTAX=-1.9287336
##MAXY=0.89257479
##MINY=0.11868475
##XFACTOR=1
##YFACTOR=8.3127505e-010
##NPOINTS=1866
##FIRSTY=0.52822977
##XYDATA=(X++(Y..Y))
3996+635445240+635591298+635688097+635838600+636070128+636392360+636748221
3983+637056399+637335250+637660350+638030049+638394012+638794687+639259177
3969+639689249+640076157+640514332+640922464+641183748+641441017+641779095
3956+642102331+642451165+642861376+643130547+643214583+643514228+643984670
3942+644171168+644324971+644692232+645057055+645353330+645462749+645482754
3929+645830727+646306833+646390079+646357526+646682698+647046087+647083874
3915+647106102+647398004+647650326+647788066+648167015+648479424+648342902
3902+648220434+648241944+648268474+648783013+649538329+649331682+648642619
3888+648924482+649257756+648981199+649210074+649344158+649084379+649403241
3875+649796673+649875331+649551809+648773906+648723428+649177808+649023432
3861+648662122+648858587+650047418+651108689+649913549+648108577+648440776
3848+649788356+650449670+650306981+650167520+650396610+650286044+649984606
3834+650297086+650751968+650912152+651005007+651028812+651343444+651469784
3821+650661049+650660117+651419018+651056633+650702422+651434434+651999380
3807+651285508+650677397+651211224+651092556+650562960+651035409+651457236
3794+651450567+651537829+651561922+651491151+651334481+651154722+651265359
3780+651323152+650971880+650737771+650922334+651171142+650964782+650470177
3767+650214198+650046270+650059822+650103704+649496168+648930505+649366744
3753+649870742+648890352+647536318+648157335+648840518+647249221+646146147
3740+647022138+647502475+646431667+645071037+644416463+644509892+644803227
3726+644551910+643915692+643368313+642709151+641934690+641436070+641157577
3713+639991978+637522825+635213497+633752124+632403971+630096292+626610896
3699+622966751+619481069+615837283+612283913+608816157+604829273+600922660
3686+598660835+597888848+597218213+595938715+593664198+590166183+587699826
3672+587798203+587470342+585579327+584312234+583612595+582397844+581091098
3659+580117412+578867634+577810737+577919904+577530666+575085677+572478137
3645+571443181+571081548+570108328+568459776+566606369+564661147+562902854
3632+561510138+558935259+554743018+551733980+550479541+549039357+546247112
3618+542621430+539643116+537243945+534569686+531610481+528182089+524503025
3605+521360655+518403457+514936741+511299371+507812721+504085939+500307638
3591+497144690+493849378+489391587+484893893+481427105+478190625+474499049
3578+470585087+466700953+462881638+459306650+455825199+451594812+446741294
3564+442591000+439109011+435389327+431429224+427570437+423693617+419585985
3551+415534533+411704607+407580556+403146641+399033740+395302763+391579028
3537+387673240+383676963+379832839+376118569+372268960+368285733+364374101
3524+360565112+356852383+353257318+349636512+345933069+342283439+338729998
3510+335176593+331615981+328142166+324614215+321017214+317702292+314611692
3497+311372523+308018344+304791580+301663909+298467763+295207048+292019057
3483+288852721+285560349+282342709+279370329+276409241+273280639+270047296
3470+266840412+263796293+260941576+258118337+255211744+252323954+249583173
3456+246949283+244317042+241660996+239021602+236420462+233855550+231400809
3443+229024905+226555321+223976822+221458265+219183820+217093616+215005024
3429+212992617+211187359+209475565+207710514+205916710+204162433+202463617
3416+200731728+198945525+197291524+195861396+194588315+193356553+191949997
3402+190347191+188964674+188026212+187212153+186227030+185162245+184320707
3389+183750330+183188486+182539631+181926555+181410959+180963068+180605361
3375+180349938+180097742+179777912+179482695+179421604+179677027+180054290
3362+180349257+180658816+181121871+181624023+182021507+182373298+182882835
3348+183576469+184273491+184967680+185787206+186706076+187653412+188689228
3335+189840540+191012646+192155103+193311667+194528748+195812871+197158999
3321+198566559+200039260+201570704+203133822+204702515+206252763+207757372
3308+209278580+210989710+212940489+214972077+216913301+218731610+220550599
3294+222503457+224606927+226786437+228948093+231082592+233243442+235458141
3281+237762934+240128817+242447592+244751632+247150750+249675957+252351614
3267+255148735+257957831+260738496+263548775+266417778+269332169+272354383
3254+275518407+278686733+281778445+284933309+288279548+291771199+295320141
3240+298897835+302491251+306084236+309714901+313487071+317436060+321458257
3227+325467943+329505198+333630109+337824644+342064602+346370958+350736037
3213+355110187+359464726+363834682+368289246+372834300+377422124+382043433
3200+386687472+391317851+395961675+400653360+405374049+410123419+414872897
3186+419540849+424151223+428834555+433615618+438389223+443106937+447801167
3173+452472812+457126853+461797279+466457307+471063917+475625175+480151192
3159+484646376+489130159+493601717+498025665+502378626+506694769+511029411
3146+515345876+519529476+523562716+527586455+531729507+535899304+539881922
3132+543673488+547457776+551274079+555011007+558635075+562228347+565857829
3119+569442748+572865690+576161683+579421860+582645792+585801570+588919202
3105+592003708+594982954+597845468+600671844+603476745+606198292+608849068
3092+611429002+613886181+616272446+618643869+620955061+623140057+625216494
3078+627291426+629383495+631367508+633168465+634873769+636547453+638105409
3065+639486116+640750807+641956129+643060924+643979794+644695171+645291738
3051+645787490+646060964+646028841+645734573+645240685+644474256+643348308
3038+641935336+640284310+638260860+635726529+632750653+629428166+625702280
3024+621513553+616832372+611613852+605769008+599188710+591869158+583821321
3011+574944351+565158800+554409637+542569804+529505469+515043721+498977661
2997+481203034+461491610+438721673+411505524+380980154+349836993+318586314
2984+286759433+255726228+228436961+208043322+196632020+195044434+203358323
2970+220442417+243733239+270351907+298066299+325361428+351106202+374072175
2957+392910368+406511827+414548729+417599642+416273250+410985465+402743350
2943+393305234+384605907+378007791+373835233+371559641+370348009+369756462
2930+370217260+372562296+377058197+383176299+390028028+396645252+402052351
2916+405464610+406430445+405050132+402002410+397776004+392456167+386160170
2903+379579550+374817667+373332633+373383901+372782996+371546305+370266519
2889+368733229+366517473+363938185+362144614+362482728+365987734+373028578
2876+383229754+395875130+410452750+426594850+443761618+461319846+478675443
2862+495289311+510768521+525051658+538361897+550945286+562915653+574260271
2849+584895893+594689188+603595700+611735818+619299375+626460321+633363137
2835+640155317+646892858+653551886+660123579+666544626+672727547+678642875
2822+684248446+689454347+694228957+698661616+702951444+707328534+711930913
2808+716848785+722135997+727675172+733237650+738653640+743767188+748444855
2795+752733321+756706868+760279955+763395939+766135985+768575883+770734922
2781+772671683+774461741+776091686+777494262+778637203+779562597+780318200
2768+780909962+781368573+781691521+781862174+781981272+782120088+782224846
2754+782305225+782456015+782752147+783260519+783991743+784868739+785851639
2741+786965683+788201264+789518012+790889469+792289392+793720362+795210631
2727+796754963+798418106+800365766+802701983+805417004+808421633+811490866
2714+814258159+816501808+818325852+819940883+821554193+823374581+825489810
2700+827852628+830335333+832799396+835204160+837569058+839879820+842101097
2687+844226436+846246157+848104834+849794651+851397779+853015463+854731380
2673+856516489+858238071+859865650+861444184+862903692+864174909+865334556
2660+866442578+867461616+868363564+869184345+870025273+870943355+871883377
2646+872764889+873550751+874238523+874838459+875403118+875933000+876336543
2633+876681935+877124914+877629127+878123230+878671899+879333141+880089102
2619+880928311+881794264+882564709+883221004+883838364+884407468+884867154
2606+885216848+885483008+885701486+885936025+886220757+886551880+886930326
2592+887304686+887577300+887778426+888029026+888317128+888538044+888703032
2579+888889889+889060469+889176054+889297088+889401846+889390732+889273355
2565+889124715+888950262+888722463+888383023+887882610+887298591+886719951
2552+886166908+885648283+885209677+884964382+884982380+885266537+885805742
2538+886518968+887304471+888145041+889044767+889957685+890845579+891669443
2525+892397369+893074313+893720785+894298995+894839418+895386366+895907071
2511+896406910+896972573+897631664+898322591+899056898+899903348+900860005
2498+901936406+903105446+904251040+905366590+906514980+907687319+908879662
2484+910088641+911257682+912405857+913619424+914878021+916124501+917378796
2471+918676686+919990207+921268594+922512062+923783996+925148999+926552866
2457+927880800+929054716+930006067+930779882+931522220+932220963+932768341
2444+933204795+933579872+933852127+934057555+934274097+934433492+934386670
2430+934153278+933854995+933479631+932972837+932393336+931852769+931441985
2417+931233043+931267675+931558286+932096702+932852233+933776982+934786914
2403+935804806+936802835+937759277+938614977+939454328+940334622+941176196
2390+941842314+942249872+942388330+942245140+941768317+940906021+939706507
2376+938247716+936467195+934366020+932120149+929930205+927864738+925998246
2363+924899904+925376799+927542578+930707534+933963983+936285429+937920393
2349+939716760+940582068+939207098+937260513+937026404+938074912+939354877
2336+940588593+941740281+942619284+943270918+944169425+945476062+946841998
2322+948055925+949225826+950384469+951397269+952169364+952777833+953391536
2309+954087195+954808094+955456358+955954907+956296068+956569470+956841438
2295+957103870+957348161+957573953+957735714+957767478+957682009+957557533
2282+957384443+957108316+956726714+956255914+955726605+955171985+954558067
2268+953814223+952939881+952008033+951115048+950405119+950050048+950153802
2255+950721257+951671676+952933284+954378380+955385444+956206440+956907118
2241+957498952+957989255+958413448+958779777+959096272+959362504+959590591
2228+959845494+960119470+960336012+960513332+960705639+960906908+961075553
2214+961186262+961303926+961478952+961677067+961876687+962057521+962210391
2201+962384844+962605043+962839869+963054045+963250869+963468128+963689402
2187+963862779+964016653+964259725+964661977+965133423+965507782+965788785
2174+966102771+966461141+966824960+967211581+967608742+967961519+968219075
2160+968393385+968559950+968748815+968923196+969051328+969108260+969068465
2147+968957470+968815713+968674746+968579597+968561743+968658326+968925634
2133+969409340+970112098+970977908+971966257+973073347+974262822+975482055
2120+976682572+977791669+978751553+979603883+980415844+981158827+981792464
2106+982351816+982869366+983320448+983689071+984050381+984464034+984896544
2093+985310053+985753606+986297686+986916337+987515484+988094053+988703741
2079+989345982+990014107+990704317+991395244+992071042+992709268+993251340
2066+993729382+994317128+995036091+995687582+996219042+996757242+997347427
2052+997948295+998510588+999005695+999460146+999904272+1000297131+1000607246
2039+1000885595+1001163873+1001415478+1001635677+1001897320+1002260637
2027+1002669128+1003070017+1003474994+1003884846+1004272615+1004605172
2016+1004907829+1005219735+1005524256+1005798376+1006009684+1006140828
2004+1006251967+1006394368+1006509021+1006510527+1006475751+1006475608
1992+1006392934+1006245800+1006098667+1005875886+1005648374+1005470695
1981+1005255873+1005006276+1004809524+1004705268+1004616931+1004494032
1969+1004359016+1004252825+1004284804+1004439969+1004542288+1004531676
1958+1004431436+1004218766+1003858818+1003298821+1002462194+1001328359
1946+1000011611+998476242+996544787+994375064+991936456+988858332+985248891
1933+981572265+978204964+975531386+974148313+974449536+976305990+979443197
1919+983265810+987104986+990868373+994470357+997631369+1000348829+1002775965
1906+1004968059+1006870904+1008495687+1009931892+1011180235+1012179484
1894+1013087813+1014085914+1014903397+1015527927+1016277507+1017000772
1882+1017595474+1018168378+1018680478+1019089470+1019441746+1019900499
1871+1020344769+1020519437+1020841310+1021600857+1022278805+1022639900
1859+1022957830+1023333839+1023660516+1023875767+1024031147+1024191833
1848+1024532636+1024820522+1024677762+1024809408+1025472443+1025886956
1836+1025917860+1026046422+1026293008+1026262391+1026253787+1026585555
1825+1026825185+1027056570+1027430786+1027604235+1027587815+1027641879
1813+1027723548+1027663246+1027610831+1027722688+1027863297+1027850677
1801+1027591113+1027251673+1027133363+1027206357+1026956258+1026299318
1790+1026086217+1026364997+1026251636+1025710280+1025230374+1024724727
1778+1024120632+1023627748+1023009312+1022009992+1021266507+1020982851
1767+1020649506+1020320677+1019854681+1019214161+1018907632+1018769677
1755+1018797999+1019154863+1019247145+1019098433+1019306586+1019670262
1744+1019776525+1019419303+1018694604+1018380689+1018186734+1016970370
1732+1015782328+1015502401+1015099288+1014099681+1012628557+1011124881
1720+1009784112+1007767618+1005119638+1003146667+1001859604+1000360875
1709+998234317+995329212+992330176+989971588+986982160+983203285+980110032
1695+976930090+973575696+970395538+966706006+962901892+958453530+952635144
1682+947650016+944259913+940820838+936259329+931445283+927677021+924232137
1668+920773415+918442075+916697477+914461644+912378896+911216955+910795845
1655+909856755+907700584+906821079+907840117+908350784+908334292+909259041
1641+910749166+912351721+914199427+916345560+919291823+923038861+926701506
1628+930083864+933671866+937311135+940788428+944444619+948097871+951540388
1614+955367877+959408824+962836858+965647172+968305836+970943849+973408126
1601+975586095+977515829+979238988+980772278+982157789+983414163+984514154
1587+985480419+986299622+986833448+987133166+987455469+987471889+986920926
1574+986860911+987321027+987027117+986230070+985645909+985138899+984649743
1560+983272335+980987027+980147246+980373253+979922960+978734058+977271466
1547+975732440+974031581+972159281+969894337+967465695+966256645+965476376
1533+963455221+960937956+958801216+956291049+953361277+950449862+947042623
1520+943501873+940421669+937196985+933650714+929983481+926069160+920907141
1506+913974711+907637844+902684121+896735524+888121021+877096376+865165625
1493+852558287+837487173+820936977+807177162+797915256+791337969+785496137
1479+780034114+774906656+768887216+760090015+748607047+737028642+725898379
1466+713131431+698341320+683631086+670116423+658546909+652574794+654526755
1452+661069123+668523333+676199893+684303657+691938056+697832590+701446261
1439+702732034+701762255+699747697+697899847+695698718+692867968+690220562
1425+688132294+686543506+685317031+683922343+682631049+682239266+682346820
1412+682544863+683266550+685014446+687863767+691729904+696319377+700259941
1398+700858515+696008330+688252611+682709922+678131563+668412624+652828119
1385+637537380+628290818+627721356+636127706+651761757+672635553+697506199
1371+724915192+752664271+777364122+795717999+806824456+812014081+813760686
1358+814121996+813860496+812938041+811149777+808401055+805006650+801625439
1344+798674300+796022090+793337470+790847093+789135335+788341514+788318713
1331+789074029+790666043+793016816+796079452+799929312+804510898+809537112
1317+814843612+820505900+826575819+833014719+839698842+846487938+853295319
1304+860023324+866498434+872483886+877779846+882281483+885953664+888683744
1290+890225279+890272890+888466484+884380866+877783216+869187069+860028558
1277+852452454+848773389+850429865+857132057+867099661+878204326+888869525
1263+898248020+906053932+912398113+917544429+921675148+924725237+926725813
1250+928734277+931760201+934288007+933817494+931865317+932241756+934038697
1236+934129544+933317798+933925622+936639066+941046271+946384822+952011044
1223+957522542+962787311+967857049+972705727+977087908+980793143+983926837
1209+986712343+989203150+991262092+992868519+994224488+995481723+996572106
1196+997390162+998077145+998797111+999478789+999895668+999973824+999854081
1182+999634455+999257012+998548160+997404430+995855151+993865043+991239650
1169+987792400+983571192+978758723+973461043+967874329+962505520+957828067
1155+953879186+950479045+947460577+944506714+941195126+937306475+932851659
1142+927918515+922495785+916494343+910072508+903477511+896681747+889709665
1128+882881205+876318546+869575626+861958221+852932431+842046101+828584139
1115+811551455+789966154+763032191+730095352+690455532+643872670+591569978
1101+536151303+480859578+429420187+386078214+354520289+336599102+332671122
1088+341634996+360410485+385048671+411798322+437220039+458453102+473232170
1074+480368379+481065257+477689280+471320613+462501220+448790342+421329830
1061+373390211+310533315+246850065+194549560+159352151+142774340+144729008
1047+164857410+203050844+258261922+327029089+403213361+480543764+554176101
1034+619845677+674312535+716289360+749365087+778466048+799390968+804425858
1020+796346759+788181115+792970496+813789224+843729250+874888866+903504041
1007+928827203+951110100+970605125+987053647+1000022582+1009715851+1016939322
993+1022306913+1025767427+1027114792+1026491409+1024098763+1019642298
982+1012131013+999881901+980224469+949839099+908046477+863034980+832499105
968+831086204+857515093+898190514+939833349+975580717+1003769835+1025064168
955+1040557825+1051376898+1058869111+1064235841+1068053148+1070554281
943+1072122920+1073176232+1073741823+1073672200+1073094061+1072243954
932+1071104455+1069417004+1067051605+1064154889+1060925902+1057236584
920+1052680596+1047106072+1040560191+1033004880+1024400057+1014738767
908+1004153732+993144144+982190413+970903265+957860549+941102773+918414326
895+886970050+844228587+790061446+726686105+658363494+592911284+542188382
881+521173368+542630644+605415299+690453739+774211140+842754954+892763482
868+926613885+948127627+960523442+966756341+970214704+973948549+978961929
854+984248710+988524843+991305688+992585509+992340070+990904368+988982019
841+986860122+984241612+980948595+977290539+973609754+969849021+965718660
827+961172352+956501926+951837380+946711069+940592250+933526381+925640306
814+916539086+905657846+893128592+880306362+869742120+864115467+864510621
800+869622950+876398924+881960901+885033432+885752467+884990697+883484583
787+881423274+878849291+875929487+872927009+869985263+866843109+863280418
773+859647172+856306186+853268717+850271402+846954221+843393896+839789188
760+835892721+831731169+828100217+825625113+823975306+822328080+820368876
746+818300183+816115402+813762837+811308311+808773980+806209821+803560335
733+800798994+798165211+795762598+793205035+790488221+788360085+786041651
719+783514705+781072799+778684741+776234159+773822726+771646550+769709933
706+767846452+765914782+763919583+761948262+760103854+758387148+756694822
692+754947356+753147045+751421664+749921572+748610990+747379497+746225657
679+745155997+744129000+743101787+742116449+740871475+738928118+737729106
665+738512672+739206396+738742479+738050047+737818447+737780301+737612947
652+737536154+737852147+738428207+738950919+739346790+739814291+740515185
638+741374039+742210451+742968563+743798307+744908838+746288971+747588582
625+748732096+749749485+750979258+752811261+754872426+756607560+758068000
611+759453008+761001858+763008672+765323952+767623743+769986848+772386235
598+774545131+776629313+779002313+781600244+784096286+786390413+788666973
584+791126446+793659989+795875458+797948812+800580587+803699295+806478778
571+808699194+811025444+813777967+816387801+818472914+820531498+823177614
557+826345940+829470025+832111982+834356061+836780615+839830130+843097764
544+845892806+848134662+850202997+852604535+855306435+857731850+860035585
530+862722141+865346961+867334272+869048396+871001147+873184852+875414160
517+877565312+879675665+881726361+883605187+885380545+887077460+888709557
503+890293182+891686652+893038390+894498902+895694544+896236043+896248161
490+896164197+896142758+896210588+896561143+897394328+898651634+899615533
476+899790273+899578391+898926256+897337109+895060693+892947687+892286014
463+893642772+895556015+896229733+895260743+893113391+890448848+887477633
449+883486447+877736179+870805829+863763479+856646917+849221029+842146054
436+836818904+834340286+835091372+839707590+848770450+861238397+874665871
422+887037522+898927475+912265248+925330264+934414132+939539511+943797718
409+949281969+954972006+959949678+965027303+969138089+971491657
##END=
