##TITLE=18
##JCAMP-DX=4.24
##DATA TYPE=INFRARED SPECTRUM
##DATE=16/11/2015
##SAMPLING PROCEDURE=Instrument type and / or accessory
##ORIGIN=Default
##XUNITS=1/CM
##YUNITS=TRANSMITTANCE
##RESOLUTION=4
##FIRSTX=3996.3359
##LASTX=399.24785
##DELTAX=-1.9287336
##MAXY=0.94098485
##MINY=0.17003289
##XFACTOR=1
##YFACTOR=8.7636043e-010
##NPOINTS=1866
##FIRSTY=0.52337164
##XYDATA=(X++(Y..Y))
3996+597210485+597388817+597681685+597982374+598218314+598423036+598617215
3983+598807722+599022850+599269876+599515270+599814871+600218805+600642055
3969+601008718+601343278+601607648+601704976+601844948+602238408+602638806
3956+602869917+603080692+603354924+603502990+603622762+604057031+604345341
3942+604310994+604493748+604850956+605209253+605390918+605274615+605374187
3929+605959922+606406433+606374943+606481180+606780033+606781597+606651759
3915+606953808+607412902+607553691+607727534+608082362+607994624+607664145
3902+607780109+608012376+608384004+609117397+609454610+608745837+608475958
3888+609132564+609017417+608756175+608988375+608778960+608859284+609428832
3875+609606689+609612606+609099033+608707954+609258526+609475558+609215881
3861+609233293+609865889+610785981+610293696+608237094+607942118+609536634
3848+610762380+610920376+610658523+610717083+610722252+610210652+610173584
3834+610749729+611045386+611299281+611598746+611762796+612122045+611633773
3821+610761904+611381034+611671589+611162233+611508288+612334928+612298201
3807+611344442+611511280+612021724+611294792+611240585+611885697+611995607
3794+612047842+612223997+612293168+612250591+612077632+612059744+612254332
3780+611966497+611506859+611605956+612054983+612213387+611687300+611286971
3767+611257317+611304994+611596910+611471424+610783668+610699671+611416129
3753+611341246+609886498+609345855+610644988+610306279+608555671+608859148
3740+610046670+609787605+608360607+607408821+607303264+607880429+608153029
3726+607662241+607199542+606963126+606651895+606265508+606098466+605739149
3713+604278552+602340089+601257717+600830794+600036392+598032840+595335887
3699+593036611+590856155+588554974+586317727+583795297+580663396+578263119
3686+577647322+577595699+577184759+576387977+574519025+571407663+570266119
3672+571049094+570260814+568929069+568658407+568362139+567472892+566706036
3659+566095884+565119477+564916966+565519058+564696873+562496795+561202797
3645+561357801+561439894+560642635+559400907+558160538+556892284+555890168
3632+554925799+552296350+549157205+547908709+547443970+546006293+543240646
3618+540461329+538751970+537099268+535014133+532737506+529998792+527321903
3605+525172632+522881857+520083768+517278843+514550127+511563843+508782213
3591+506501368+503536645+499587182+496298951+493966008+491426133+488413766
3578+485308865+482201075+479143104+476350421+473410285+469596170+465682722
3564+462730887+460073075+457018029+453824779+450744126+447521018+443993514
3551+440589488+437328905+433744405+430090055+426832157+423801732+420603211
3537+417090262+413591392+410388314+407246108+403886904+400398848+396940071
3524+393523396+390262642+387137372+383948916+380694250+377491308+374352026
3510+371182513+368049625+364968700+361698492+358411417+355472403+352626907
3497+349560095+346472640+343585860+340757777+337781491+334751304+331811337
3483+328791080+325644216+322691190+319990190+317253823+314356875+311314582
3470+308228522+305332832+302745891+300229617+297523108+294720359+292006267
3456+289397460+286838337+284320804+281844981+279296264+276716074+274343377
3443+272107608+269807788+267470084+265211259+263108237+261113187+259143030
3429+257255714+255490193+253753000+251950820+250111539+248385194+246812714
3416+245217160+243562282+242049433+240718027+239457221+238190531+236781471
3402+235226572+233876991+232952767+232168704+231190342+230117355+229329143
3389+228836824+228352430+227808047+227280294+226789710+226377988+226082213
3375+225865946+225658248+225405339+225200039+225275959+225671528+226153627
3362+226566641+227010415+227568485+228131181+228600544+229069126+229755300
3348+230675358+231614578+232503570+233412422+234369207+235434984+236661682
3335+237980130+239319629+240672152+242030321+243424026+244927472+246536901
3321+248170628+249817073+251490911+253173624+254876538+256591575+258292653
3308+260039639+261981588+264196187+266525525+268717968+270708053+272644136
3294+274694413+276938717+279374293+281869177+284287596+286649496+289053752
3281+291573971+294172644+296742513+299282592+301867697+304552883+307386544
3267+310337869+313319562+316326284+319373067+322419101+325473637+328634444
3254+331927131+335240357+338521209+341863410+345337455+348943855+352642040
3240+356360153+360073097+363822225+367648378+371589814+375634394+379667411
3227+383691042+387819789+392037973+396266938+400530624+404840900+409153726
3213+413501103+417868749+422230511+426652907+431117982+435553879+439997904
3200+444516948+449083262+453643760+458163111+462641516+467137470+471669947
3186+476170797+480623732+485084998+489530587+493917922+498306040+502704835
3173+507065645+511404623+515732038+519999805+524173508+528270118+532338809
3159+536419538+540477584+544441669+548312269+552155902+556011777+559850070
3146+563597803+567208862+570726981+574249350+577820961+581388831+584855089
3132+588191372+591427675+594603582+597756704+600850110+603842719+606784794
3119+609684632+612495373+615229529+617891455+620481423+623048945+625581441
3105+628040210+630398794+632627336+634786911+636936829+639045870+641058060
3092+642954830+644798006+646624381+648399339+650110771+651754462+653295520
3078+654772100+656238887+657613243+658832459+659986382+661079364+662021356
3065+662860579+663671304+664400005+665000635+665467006+665770212+665912360
3051+665917189+665758785+665402665+664857058+664093874+663070606+661817383
3038+660349508+658607129+656520260+654021499+651164170+648032200+644550095
3024+640623792+636263288+631493545+626218663+620322678+613799810+606638836
3011+598764601+590120993+580625036+570146176+558567805+545728593+531445243
2997+515616380+497996509+477490674+452743665+424690980+395643761+365974251
2984+335269705+304896591+277858604+257544330+246465980+245849672+255788604
2970+274884954+300227679+328595336+357539819+385396761+410961330+433117725
2957+450758919+463135433+470212206+472605749+470939376+465683912+457787946
2943+448860789+440668215+434431209+430381256+428024508+426691879+426009598
2930+426371432+428614324+432992478+438885538+445335325+451466161+456466505
2916+459577629+460326427+458899258+456008874+452030608+446988537+441042155
2903+434862178+430401966+429017408+429113206+428692302+427745685+426769415
2889+425564515+423760958+421676878+420409236+421205032+424961267+431986689
2876+441949323+454179437+468159752+483529895+499781634+516256152+532323710
2862+547521030+561608500+574562486+586512179+597694063+608288172+618264511
2849+627508409+635938454+643568587+650516882+656914605+662912678+668708546
2835+674446058+680144870+685769139+691246499+696512607+701565423+706370330
2822+710867541+715051549+718929223+722541642+726028712+729530269+733133847
2808+737000842+741239805+745671452+750029507+754199844+758130160+761765772
2795+765088113+768100650+770783864+773118644+775170554+777009784+778604573
2781+779958524+781181821+782339689+783344662+784082068+784623254+785106152
2768+785502265+785748679+785872396+785915381+785938710+785986796+786040731
2754+786096570+786199407+786422084+786822550+787369653+788012180+788761421
2741+789603228+790511621+791507616+792564823+793637605+794736845+795867576
2727+797023947+798279211+799790546+801627736+803693657+805898326+808159038
2714+810253388+811989714+813398757+814600562+815738297+817032533+818609162
2700+820386228+822219949+824041904+825860118+827641129+829324471+830934155
2687+832480654+833916358+835235283+836481977+837691807+838897352+840152820
2673+841445491+842685588+843833389+844894745+845849388+846695752+847458459
2660+848156962+848845670+849537235+850170852+850748765+851321986+851918468
2646+852500870+853011586+853498701+853991326+854424302+854760970+855027040
2633+855319840+855682422+856029156+856343108+856707118+857173762+857729503
2619+858307076+858853227+859361971+859853031+860348852+860793390+861110403
2606+861350560+861591941+861825161+862027978+862230863+862454357+862701043
2592+862986157+863253791+863461166+863678402+863930461+864161028+864351671
2579+864535716+864706431+864839806+864956926+865045344+865062008+865022696
2565+864957946+864844567+864675689+864476476+864230198+863915226+863557337
2552+863211487+862916239+862706960+862637110+862739335+863020776+863464294
2538+864048329+864725951+865407654+866085140+866813228+867574031+868319667
2525+869008783+869587037+870041233+870459450+870958876+871493261+871918688
2511+872283990+872762127+873369219+873987329+874574288+875191582+875915113
2498+876779501+877707074+878617984+879538007+880474354+881393425+882286787
2484+883176068+884067661+884953201+885865539+886824398+887796860+888765514
2471+889773071+890834427+891879052+892843080+893752085+894673468+895623758
2457+896594860+897526989+898310917+898946643+899515238+900045406+900505996
2444+900894355+901240069+901498522+901629177+901728749+901852262+901890146
2430+901796083+901623804+901375417+901071123+900781452+900530141+900353169
2417+900323787+900439682+900707521+901176408+901809957+902540766+903327755
2403+904127597+904889488+905593500+906217527+906829311+907456535+908061994
2390+908572438+908893804+908975284+908803685+908373362+907723217+906942827
2376+906066196+905050137+903923284+902653669+901157637+899610050+898423208
2363+898063211+898842173+900618355+902852134+904951925+906184268+907024171
2349+908477899+909504772+908704793+907430010+907541144+908437431+909192725
2336+909774651+910393033+910974687+911542399+912409372+913518949+914491207
2322+915253235+916020499+916840746+917545097+918031600+918415130+918872251
2309+919428809+920003118+920535802+920976192+921307011+921620487+921971438
2295+922301374+922572409+922803520+923003957+923155491+923242481+923258260
2282+923184941+923049118+922887041+922674838+922400674+922099236+921771886
2268+921379106+920899472+920357198+919831383+919444520+919306452+919468121
2255+919930139+920672170+921709721+922960292+923848008+924564330+925170538
2241+925674724+926099403+926490346+926868095+927239723+927585982+927873408
2228+928093637+928301011+928561912+928848387+929099766+929345296+929612590
2214+929866078+930100930+930333945+930574306+930823237+931075976+931348916
2201+931658787+931965869+932222962+932458902+932705248+932960368+933224602
2187+933481558+933725251+933995607+934346286+934757430+935132458+935460829
2174+935832116+936248429+936633252+936989168+937349573+937686990+937966935
2160+938204235+938456567+938736104+938982926+939157313+939286268+939393934
2147+939430389+939377746+939330817+939364824+939479971+939651638+939902405
2133+940338510+940994027+941757687+942567596+943468779+944461577+945466754
2120+946404189+947242596+947995645+948687890+949332185+949907922+950423943
2106+950933639+951404703+951758579+952042197+952374444+952738455+953071858
2093+953374656+953715882+954163209+954667463+955127849+955552255+956020735
2079+956567770+957127728+957657012+958210645+958798148+959336886+959728714
2066+960008591+960433337+960984930+961452593+961879992+962337453+962782127
2052+963182457+963548099+963890549+964237692+964587011+964854101+965068209
2039+965324893+965588583+965834045+966057538+966264096+966475007+966719993
2025+966994225+967261724+967537384+967781349+967974781+968277850+968604929
2012+968804958+968988391+969157337+969218686+969245755+969378042+969540119
1998+969581132+969566781+969451497+969210388+969247252+969319959+969156385
1985+969000702+968902354+968785914+968621116+968482300+968447681+968488353
1971+968522564+968368173+968162023+968349945+968653967+968722729+968685797
1958+968583981+968363820+968079386+967742037+967269749+966587298+965710940
1944+964380181+962850821+961652281+960113672+957866699+955310602+952786880
1931+950503996+948741961+948017205+948410393+950002189+952773822+955434183
1917+958202347+961491905+964248506+966268449+968039734+969882093+971579447
1904+972928569+974065353+975128545+976015038+976614580+977359535+978113877
1890+978355258+978935824+979868974+980418866+980879252+981377998+981802608
1877+982186614+982656318+983222397+983123233+982730793+983525195+984774609
1863+985272539+985341777+985563502+985991173+986422041+986717901+986910448
1850+987118910+987530190+987136526+986577384+987774632+989027311+989132596
1836+989132324+989535374+989553670+989034793+989480759+990062006+990111724
1823+990748469+991348216+991341482+991367736+991774934+991924497+991683524
1809+991805677+992288507+992614905+992386379+991832270+991841180+992528936
1796+992886349+991978432+991186615+992151391+993096103+992730121+992267695
1782+992133639+991923817+992015635+992089771+991097312+989685753+989791583
1769+990360450+990692630+990774247+989916184+989462872+989785869+989869322
1755+990435130+990681340+989882925+989845654+990867494+991762148+991996047
1742+991513421+991229191+992016724+991017736+988714583+989131032+990356166
1728+990418398+989832799+988982694+988533530+987473399+984744955+982877703
1715+983053451+983459221+982947009+981423431+979172649+977754900+976711159
1701+973430035+971103554+970019073+968056261+967144128+965726651+963254620
1688+960566508+955824447+951048855+949829366+949188948+946629383+942469724
1674+939426784+937494171+934458985+932363818+932079724+930727337+928420920
1661+927514635+927834096+927507017+924012738+920640203+922936351+924684375
1647+922740607+922060673+923694841+924974998+925464834+924929225+924897734
1634+927989236+931651985+933397561+934797966+936803898+938608646+941168211
1620+944167690+945399828+946803906+950649069+954187082+956099971+957645246
1607+959455230+961258073+962832050+964278500+965599057+966686258+967640017
1593+968626625+969559231+970330780+970984121+971505788+971919584+972512121
1580+972945233+971785869+970744849+972319845+973025013+971472325+970962697
1566+971457906+971882720+971145314+967036938+964153763+966201456+967582953
1553+966923355+965693732+964701954+963715822+962072267+959808630+956617896
1539+955163284+956694004+956172610+953251687+951708181+950548341+948124531
1526+945675897+943076747+939597091+937323796+935466202+932923096+930531321
1512+928003451+924519373+918390509+911999044+909473758+907368457+901979924
1499+893790241+884575793+876016590+866361956+853306902+839633262+829395750
1485+822900563+817999009+813403246+809146735+804779906+799166383+791095860
1472+781949970+773724647+764683974+753093667+740607072+729055669+717360959
1458+706238111+701607252+705433847+712135660+718384160+724655377+731852330
1445+738948759+744395104+747737440+748245912+746569370+745576708+744932821
1431+742890773+740370248+738483068+736954593+735906567+734719726+732807108
1418+732184374+732999247+733462898+733620350+734439713+736196102+738598691
1404+742080320+746367981+749496210+749751330+745412727+738455522+733980891
1391+730086894+720736623+706474731+693174011+685119539+684664254+692471088
1377+706844114+725665790+748225984+773139796+797688918+819207071+834876850
1364+843682195+847777512+849547165+849910835+849470649+848618844+847183343
1350+844892637+842058908+839294825+836928011+834622886+831964361+829732418
1337+828619848+828270801+828366700+829036569+830456834+832595393+835402257
1323+838854640+842777814+847003651+851571461+856413707+861479446+866942863
1310+872666500+878408433+884119964+889712130+895079103+900041938+904393463
1296+908065327+911053175+913192347+914232483+914008921+912347751+908872651
1283+903342854+896220035+888720965+882634133+879824957+881391112+887118558
1269+895523029+904710204+913335720+920771674+926839530+931722856+935687995
1256+938846626+941129783+942564467+944074919+946524369+948596547+948200435
1242+946615848+947008968+948633547+948835140+948151125+948432022+950285195
1229+953478309+957456983+961707033+965903419+969928478+973783707+977441628
1215+980764853+983611708+985967436+987931540+989639368+991071671+992157648
1202+993026185+993876630+994654573+995239560+995722254+996231202+996753752
1188+997071513+997019958+996785107+996542229+996156046+995409322+994281857
1175+992877915+991186887+989000310+986080815+982494105+978496319+974171862
1161+969631258+965288778+961513397+958329057+955594832+953108178+950590917
1148+947768615+944502658+940813995+936752208+932311448+927428121+922149431
1134+916625006+910849338+904875206+898966230+893160909+887116586+880362811
1121+872461710+862988265+851274784+836339352+817299011+793585507+764627319
1107+729556522+687815812+640207411+588862193+536711011+487547065+445858793
1094+415543083+398770528+396187906+406671731+426922174+452782331+480341678
1080+506102875+527358393+542182929+549641430+550898428+548101630+541983240
1067+532623141+517527739+488409787+438782463+373565004+306344572+249969016
1053+211577732+194021641+197955188+222870344+267660285+329770684+404094788
1040+483317930+560841644+632257272+694242713+744530655+782483879+811703648
1026+836988408+855123892+859717479+853354784+847338959+852730553+871694922
1013+897706818+923765848+946923339+966899890+984140924+999005827+1011361358
999+1020926350+1027938917+1033090626+1036880970+1039228672+1039922957
988+1039085163+1036905047+1033134835+1026958294+1016998482+1001109903+976682458
974+943163125+907267049+883813153+884995846+909070436+943708732+977480464
961+1005161828+1026152534+1041529581+1052408940+1059773139+1064716385
949+1068245284+1070851847+1072520430+1073303678+1073636470+1073741823
937+1073453784+1072774122+1071874503+1070781724+1069339559+1067400892
926+1065010409+1062347055+1059345944+1055672176+1051165646+1045811936
914+1039614991+1032647652+1024931345+1016465253+1007453351+998205848+988531082
901+977386741+963077376+943554681+916379816+879299686+831672513+774831981
887+712519734+652193287+605506542+587514227+610569153+672432848+753364090
874+830388752+891187623+934140204+962459062+980049755+989995012+994873645
860+997474563+1000403443+1004425374+1008513278+1011737407+1013931738+1014968405
847+1014625207+1013241465+1011508608+1009707670+1007592643+1004883515
835+1001727333+998503408+995287442+991819416+988077566+984316400+980449133
822+975961171+970564952+964497981+957839833+950134340+940909146+930261578
808+919298018+910268160+905572143+906153866+910843557+916964395+921958584
795+924738718+925439056+924768984+923568131+922050811+919944830+917386149
781+914756189+912222537+909648894+906737765+903625655+900695891+898047023
768+895493035+892771189+889890463+886906831+883600678+879970847+876682173
754+874437240+872988409+871514141+869799920+868038566+866133838+864026565
741+861742796+859322931+856971352+854718870+852469040+850273281+848128532
727+845836941+843488627+841576894+839337538+836889176+834610236+832512008
714+830467172+828390301+826289557+824297704+822530840+820877288+819137697
700+817295746+815539833+813991430+812577830+811169535+809715603+808256434
687+806872420+805674016+804725291+803830569+802672021+801325143+800119257
673+799206443+798237450+796629875+795491391+796154118+796872888+796450182
660+795593480+795133162+795129897+795331830+795602049+795839146+796023599
646+796279739+796625454+797090805+797815764+798739120+799592354+800298950
633+800995616+801784508+802746360+803771873+804877302+806056662+807334438
619+808867538+810529729+812134788+813743519+815275327+816758437+818382676
606+820062074+821782552+823822695+826193590+828531634+830702772+832969674
592+835503938+838069964+840211652+842003409+843926840+846076010+848147168
579+849912875+851758907+854344998+857146148+859450865+861644720+864024252
565+865990193+867453715+869433190+872241957+875171042+877859153+880226919
552+882195512+884090650+886201256+888429729+890748049+893183489+895545066
538+897738581+900010175+902303942+904357416+906394703+908452938+910360250
525+912428483+914419929+915985472+917435595+919143151+921174452+923094687
511+924720626+926080903+927256931+928449145+929511249+931009663+933046405
498+934465378+934807760+934417428+933999755+934082528+934230254+933912494
484+933691585+934342817+935471915+936312294+936559661+935849460+934681866
471+933808024+932133727+929881925+929045423+929818468+930323335+929293333
457+928207764+927276859+924831693+921493641+917503609+912203426+905933025
444+899479191+893005021+886035234+879289620+874854913+873208978+873775874
430+877655996+885464734+895946076+907695876+918942034+928599932+939738084
417+951550729+959347020+964182533+967720885+970142382+973357669+978874544
403+984781002+987818909+988524621
##END=
