##TITLE=18
##JCAMP-DX=4.24
##DATA TYPE=INFRARED SPECTRUM
##DATE=16/11/2015
##SAMPLING PROCEDURE=Instrument type and / or accessory
##ORIGIN=Default
##XUNITS=1/CM
##YUNITS=TRANSMITTANCE
##RESOLUTION=4
##FIRSTX=3996.3359
##LASTX=399.24785
##DELTAX=-1.9287336
##MAXY=0.96829081
##MINY=0.21179429
##XFACTOR=1
##YFACTOR=9.0179109e-010
##NPOINTS=1866
##FIRSTY=0.50729012
##XYDATA=(X++(Y..Y))
3996+562536193+562743271+562975532+563210899+563456445+563730479+563990235
3983+564196124+564419792+564689860+564932035+565178308+565486910+565808598
3969+566083425+566370347+566695076+566895743+567032892+567294697+567557825
3956+567748379+567982689+568275097+568420970+568514232+568917482+569222383
3942+569244789+569460129+569802374+570122013+570267821+570100532+570090684
3929+570552231+570976566+571039622+571258002+571651141+571724309+571593042
3915+571844603+572319105+572525126+572688052+573012054+573025141+572782503
3902+572743705+572750711+573089452+573944336+574424985+573846051+573652324
3888+574360343+574352544+574201052+574512958+574336350+574349966+574862011
3875+575089777+575193283+574804375+574498417+575043510+575242128+574944366
3861+574912045+575628855+576894458+576912238+575094536+574475879+575600367
3848+576593986+576740917+576563648+576754202+576926184+576531195+576491471
3834+577035176+577278739+577351643+577466517+577672670+578302564+578199785
3821+577571213+578115050+578260196+577648413+577866133+578655978+578763450
3807+577978760+578174800+578758030+578182335+578088678+578596955+578654458
3794+578654061+578729080+578718042+578670123+578522266+578470646+578637538
3780+578477519+578217895+578386241+578773959+578900004+578439316+578112803
3767+578157285+578319088+578740647+578766424+578206064+578158673+578927764
3753+579069077+577876378+577373454+578547912+578283594+576746800+577075957
3740+578188284+578005926+576800602+576012078+575957020+576510111+576782624
3726+576388759+576038715+575847301+575576441+575333737+575451652+575549606
3713+574676413+573227130+572427568+572281166+572003101+570856933+569243665
3699+568058567+567000438+565859558+564816764+563472969+561302316+559471989
3686+559147261+559263457+559007336+558681285+557866455+555887083+555115216
3672+555761964+555015213+553844259+553673797+553543787+552899815+552281984
3659+551622381+550422609+549927815+550379316+549636828+547509633+546020031
3645+545791405+545562119+544670254+543513445+542421475+541283768+540391771
3632+539625092+537369968+534565885+533384587+532934639+531770824+529540849
3618+527251454+525827353+524454542+522769693+520899445+518500133+516158853
3605+514407379+512553622+510207616+507905564+505702391+503172110+500772467
3591+498902516+496480698+493145667+490361545+488450152+486400223+483925198
3578+481326408+478697347+476081504+473710613+471273395+468034203+464597054
3564+461976882+459639898+456960935+454172153+451508226+448723575+445664791
3551+442753533+439971923+436822687+433564856+430665528+427974271+425160306
3537+422128159+419127573+416293582+413423865+410360158+407173611+403989774
3524+400852568+397869133+394997798+392050947+389051055+386167723+383379668
3510+380460281+377498724+374639748+371622076+368505723+365649986+362942899
3497+360170674+357413584+354699788+351902711+348985240+346155115+343540199
3483+340846429+337911840+335057656+332453380+329879873+327140828+324194077
3470+321192069+318397174+315877501+313386216+310749124+308140486+305692627
3456+303295661+300878800+298480017+296085034+293587668+291079199+288799949
3443+286667499+284470308+282154640+279813756+277665311+275757438+273911530
3429+272104205+270439003+268839054+267127898+265353671+263748021+262304240
3416+260775823+259150989+257645375+256297962+255038869+253816096+252482992
3402+251062592+249879807+248987827+248058106+246930247+245841202+245185515
3389+244878665+244479380+243882650+243287242+242827050+242511095+242274538
3375+242053530+241817634+241590727+241495235+241665201+242099913+242638644
3362+243124580+243594340+244128328+244715920+245312799+245901763+246625578
3348+247571311+248581866+249561952+250558463+251597952+252720491+253996950
3335+255393258+256786939+258143192+259508848+260917004+262432350+264081359
3321+265766588+267470357+269269073+271146079+273008198+274739595+276326688
3308+277997542+280010127+282341229+284723191+286942656+289013340+291078009
3294+293255305+295586142+298047221+300563126+303055105+305499131+307933441
3281+310408598+312925991+315459511+317999673+320604477+323400034+326404917
3267+329475796+332504076+335515039+338576334+341679567+344799291+347989308
3254+351280650+354621432+357961453+361339909+364839287+368474096+372178074
3240+375906706+379633917+383303625+386979909+390838650+394869010+398888001
3227+402857684+406871751+410971379+415124577+419351242+423674141+428010822
3213+432318916+436579586+440806118+445092599+449441309+453783542+458119661
3200+462481127+466847452+471154687+475383004+479616575+483924867+488289572
3186+492642645+496909462+501073567+505185488+509328376+513538979+517721854
3173+521774323+525735315+529711971+533718735+537681742+541561800+545360097
3159+549097453+552790922+556421534+560006639+563597824+567164158+570660893
3146+574106601+577463477+580680164+583830490+587016177+590215481+593302355
3132+596255914+599163933+602020265+604772959+607435035+610083628+612759915
3119+615350343+617787495+620188427+622593060+624901920+627071714+629145075
3105+631190807+633206863+635151601+637037646+638853034+640604640+642320621
3092+643938779+645418863+646804100+648166798+649554481+650921673+652183773
3078+653367484+654561439+655741448+656791844+657678321+658450387+659145583
3065+659787902+660400941+660959583+661379622+661636272+661813475+661944874
3051+661941305+661727419+661352721+660911730+660383426+659663047+658715365
3038+657599270+656333138+654855896+653099465+651112426+648949109+646499663
3024+643668645+640479389+636960115+633061650+628709239+623868445+618508997
3011+612565659+605924679+598432120+589990557+580524442+569811693+557556730
2997+543577327+527588147+508854766+486581689+460957222+432858622+402727409
2984+371116046+339824852+311931083+290948725+279676145+279590650+290676113
2970+311167544+337887616+367425750+397143632+425346333+450865245+472595940
2957+489516245+501029117+507230923+508801790+506455817+500832350+492909672
2943+484091363+475915174+469557646+465365715+462871027+461322930+460440947
2930+460757150+463061052+467547506+473595243+480196500+486358880+491238538
2916+494302146+495366157+494519668+492054524+488271859+483505092+478167423
2903+472873113+468785184+466636838+465641566+464728386+463680437+462576372
2889+461285255+459613989+457745426+456431143+456800718+459941196+466313133
2876+475619098+487234253+500588026+515171612+530411232+545667244+560322907
2862+573942155+586369363+597682461+608063540+617694234+626718696+635195092
2849+643058581+650226543+656749873+662721566+668203820+673329421+678227387
2835+682979348+687691189+692408383+697075014+701617055+705953868+710030197
2822+713843134+717365712+720587290+723592734+726502736+729417166+732461541
2808+735790921+739417269+743174223+746890660+750433728+753704349+756678926
2795+759398109+761884239+764075051+765923818+767533583+769030389+770380000
2781+771517047+772480394+773313598+773997492+774501869+774884763+775234079
2768+775540764+775757624+775840112+775817177+775812418+775846061+775846193
2754+775829272+775862519+775991934+776281037+776763669+777369768+778035684
2741+778744099+779464742+780229008+781071532+781935207+782800005+783715961
2727+784697550+785773525+787037475+788537388+790263019+792164464+794063199
2714+795733243+797091248+798204633+799162758+800078120+801128978+802410113
2700+803880680+805445697+807010649+808536868+809991307+811359094+812663364
2687+813899158+815072028+816192551+817242021+818233195+819234811+820296575
2673+821380348+822418912+823395544+824300925+825083170+825728001+826308785
2660+826882365+827437900+827974400+828514139+829039072+829509476+829954764
2646+830405604+830827560+831228894+831603723+831896396+832157805+832441158
2633+832728873+833032054+833335170+833623811+833962089+834386623+834840569
2619+835303769+835815747+836308690+836698523+837049757+837413085+837728098
2606+837972190+838196916+838431292+838669832+838897664+839095423+839299130
2592+839564307+839852947+840107020+840353161+840614107+840845310+841017424
2579+841171097+841344136+841502832+841609180+841692263+841779641+841843688
2565+841851752+841812359+841750163+841645268+841457622+841200311+840933482
2552+840704328+840519127+840410135+840440011+840628648+840966464+841434291
2538+842003244+842616547+843234609+843888165+844586798+845285828+845943746
2525+846547597+847100026+847573868+847983530+848423728+848894463+849299432
2511+849669040+850124110+850688502+851313504+851944588+852532378+853136097
2498+853884699+854735617+855557585+856342076+857119562+857917140+858755963
2484+859590357+860379541+861176988+862032995+862909426+863772241+864628182
2471+865480819+866325788+867165668+868020948+868890108+869734879+870561144
2457+871419200+872252867+872928168+873430496+873864548+874303028+874710442
2444+875048721+875349391+875630034+875857602+876028394+876164617+876234348
2430+876225491+876179092+876090458+875908298+875657332+875465125+875417338
2417+875499164+875691107+876011671+876443542+876967946+877619122+878346111
2403+879050626+879710924+880345179+880956963+881570068+882183900+882775259
2390+883305216+883705294+883894394+883799943+883409185+882828268+882196392
2376+881514613+880722190+879938293+879237413+878500973+877767838+877131467
2363+876996566+877577085+878507583+879500607+880870245+882932634+885848848
2349+888401999+888121356+885188286+883296822+884249792+886103185+887307451
2336+887771246+888020361+888256191+888545294+889183714+890020025+890492875
2322+890576882+890895200+891754578+892640791+893011589+893047942+893239488
2309+893705067+894270517+894814221+895247281+895572142+895892707+896214263
2295+896492857+896779912+897073113+897340801+897585223+897801621+897957541
2282+898005461+897953377+897870956+897776703+897623559+897416415+897189970
2268+896937616+896644085+896320545+895994164+895743991+895711670+895996610
2255+896564505+897320576+898247966+899289174+900010280+900606729+901154465
2241+901664064+902097983+902442343+902751209+903088760+903443232+903764987
2228+904056271+904350199+904643202+904932768+905237668+905562397+905890166
2214+906203461+906483575+906731500+907014523+907348505+907656644+907917326
2201+908190963+908524615+908900039+909280751+909648112+909981764+910263001
2187+910517603+910793817+911122644+911533694+911980899+912369410+912718925
2174+913094746+913475590+913842620+914229942+914622287+914990771+915331495
2160+915616699+915876059+916176266+916475945+916687187+916830615+916966574
2147+917078673+917156137+917261957+917435855+917660382+917934614+918296819
2133+918798553+919456471+920214590+921017787+921846431+922676991+923501272
2120+924317358+925088630+925774903+926390917+926973221+927515075+927983959
2106+928397124+928801829+929169322+929478055+929818118+930190370+930529508
2093+930809226+931092182+931464566+931885795+932264127+932626267+933039696
2079+933513735+934008727+934503785+935002478+935474469+935895896+936238074
2066+936523344+936965591+937527141+937955112+938268538+938614154+939002401
2052+939348082+939643464+939932766+940252736+940601325+940889569+941138023
2039+941424615+941693427+941907974+942061449+942209371+942425835+942685592
2025+942938210+943199619+943488722+943709747+943858793+944140163+944467271
2012+944686115+944897357+945075287+945141647+945185204+945301533+945413830
1998+945444498+945483495+945445358+945277011+945388713+945576954+945545096
1985+945463600+945392283+945310919+945203248+945128891+945148323+945217525
1971+945285538+945226382+945119769+945316272+945612580+945746622+945790973
1958+945758718+945665060+945581779+945458709+945174629+944689353+944073340
1944+943075888+941895878+941034583+939907980+938198345+936221616+934220168
1931+932415751+931112011+930694087+931107450+932458449+934859183+937117215
1917+939422572+942212478+944533896+946178757+947601867+949130465+950525749
1904+951570394+952448279+953318827+954057051+954547020+955227014+955952416
1890+956137550+956589514+957395024+957853597+958225716+958659966+959066852
1877+959457809+959959741+960620567+960653880+960289625+960955078+962079435
1863+962560150+962662268+962896512+963318600+963764681+964099258+964338326
1850+964626108+965195920+965011645+964510837+965536380+966624251+966716058
1836+966800992+967328899+967504582+967118252+967597446+968180346+968222250
1823+968800589+969365973+969406886+969516143+969992826+970238174+970138171
1809+970364813+970902569+971320692+971266691+970922332+971080169+971841857
1796+972306445+971565444+970828344+971699355+972623110+972385165+972095996
1782+972127656+972072862+972355686+972775395+972275512+971226571+971328359
1769+971724735+972013706+972247554+971611645+971281959+971650906+971803786
1755+972447560+972810690+972187605+972235194+973168533+973942383+974206568
1742+973922621+973853088+974831240+974139745+972131952+972579553+973732595
1728+973837621+973446202+972899060+972846514+972374854+970354701+968922800
1715+969138735+969521232+969204964+968151197+966520216+965714772+965372726
1701+962986534+961407769+960720967+958977226+958249775+957180477+955351935
1688+953619431+950045364+946194884+945369083+945010447+943000340+939635070
1674+937451924+936338275+933984272+932293474+932233327+931130121+929044004
1661+928239287+928720200+928849550+925982576+922813479+924730986+926124815
1647+923944048+922796757+923793218+924579362+924852734+924181465+923611322
1634+925658178+928294807+929313080+930145028+931611100+932851059+934809478
1620+937340751+938268869+939214238+942373024+945318387+946824844+947995468
1607+949408200+950865614+952189712+953454852+954611001+955512151+956266173
1593+957085167+957905350+958602397+959210545+959735147+960200528+960896650
1580+961590325+960861619+960089950+961619011+962321147+960925269+960510716
1566+961054156+961697930+961569241+958381570+955989364+957722264+958637956
1553+957776860+956571470+955768934+955176054+954190829+952791845+950315432
1539+948932376+950126398+949537748+946858024+945556266+944689221+942758099
1526+940948659+939029632+936147919+934304572+932797455+930573858+928504397
1512+926516499+923973329+919011910+913465610+911249350+909465555+904861847
1499+897849607+889924450+882669836+874499927+863234882+851429965+842782514
1485+837538073+833700416+830091120+826746472+823233610+818499230+811364184
1472+803156534+795863981+787841664+777406385+766160111+755900648+745582954
1458+735870103+732368874+736703836+743316924+749084910+754568420+760844022
1445+767220156+772308016+775583528+776150696+774526788+773582014+773059262
1431+771297939+769230065+767875298+766918561+766598128+766396999+765732405
1418+766553447+768895289+770955960+772691703+774809281+777364216+779949886
1404+782918713+786064280+787915823+787984959+785458974+780635167+775955383
1391+770176095+759971755+746631961+734717987+727432374+726934936+734012281
1377+747078901+764087808+784466149+806963985+828920298+847917037+861471180
1364+868659170+871610019+872603241+872385852+871498250+870357436+868814495
1350+866601870+863968810+861399664+859148109+856936146+854440499+852403822
1337+851383368+850970004+850902587+851400949+852692528+854683930+857219829
1323+860283702+863781296+867566010+871658996+876004930+880562965+885490873
1310+890655669+895836922+900994976+906041394+910867514+915313187+919222690
1296+922549757+925273302+927233705+928210403+928089580+926755039+923872599
1283+919201804+913119598+906715968+901644169+899640540+901722691+907686784
1269+916161130+925392473+934110250+941702680+948007233+953141624+957277175
1256+960570467+963111323+964891416+966260922+967687601+968790278+968770119
1242+968102749+968081797+968560529+968692589+968855581+969833601+971780653
1229+974399436+977295095+980163589+982799425+985171274+987367507+989414231
1215+991202124+992631512+993782307+994828605+995807748+996533481+996934220
1202+997264104+997734773+998191627+998468371+998645838+998865673+999077179
1188+999093307+998861839+998509813+998127250+997647460+996883723+995767232
1175+994413523+992772825+990601841+987828724+984626578+981175318+977478577
1161+973557044+969739150+966411621+963630506+961188661+958915427+956706900
1148+954342982+951630607+948578565+945235702+941530302+937380342+932922640
1134+928328054+923483559+918325968+913188800+908282241+903207931+897394206
1121+890575627+882539429+872640915+859891886+843460062+822771137+797129915
1107+765455397+726876177+681817714+632220713+581017649+532024367+490064015
1094+459922987+444559074+444490598+458091471+481978510+511942467+543736717
1080+573408497+597783984+614700224+623244368+624731128+622300123+617802763
1067+609508462+591946729+557734726+503254928+433549951+360689658+297929372
1053+254606437+234859592+239386629+267489442+317486340+385685190+465699632
1040+549262627+628706066+698885974+757477761+804505947+841158274+869682994
1026+891920148+905876220+908498176+902478695+897292220+902457082+919360896
1013+941777303+963516292+982229480+997835569+1010831863+1021765834+1030705496
999+1037346740+1041907420+1045147703+1047506597+1048857728+1048939026
988+1047748574+1045508850+1042087465+1036697349+1028130732+1014652467+993953297
974+965353294+934670347+915042987+917241797+939380271+970037375+998946177
961+1021827502+1038575330+1050436163+1058601842+1064020710+1067629808
949+1070178265+1071961003+1073035721+1073542346+1073741823+1073739840
937+1073453777+1072860435+1072027892+1071033215+1069819696+1068201008
926+1066149195+1063881711+1061422813+1058470113+1054885736+1050760363
914+1046131209+1040926623+1035021092+1028426841+1021406603+1014182394
903+1006419899+997037660+984516661+967157182+942802053+909101036+864784763
889+810691791+750679869+692319418+647201138+630555031+654506580+715757931
876+794159038+867457283+924012788+962791684+987652116+1002731817+1010957181
862+1014670181+1016321784+1018107231+1020731302+1023397939+1025380550
851+1026738357+1027328196+1026657786+1025080343+1023429996+1021777401
839+1019703578+1017130202+1014373609+1011738500+1009153557+1006233311
827+1002880400+999438658+996057260+992337783+987849412+982584481+976622900
814+969761887+961631701+952194471+942377056+934278464+930184025+930929388
800+935318284+940887454+945419118+948000953+948733692+948150462+946998874
787+945651841+943845045+941544050+939181586+937005381+934773654+932074763
773+929162844+926668850+924594167+922461254+919993103+917341602+914615413
760+911577780+908251507+905287901+903327498+902180471+901045936+899589976
746+897945181+896060855+894011619+891960467+889850952+887704225+885612424
733+883552877+881474956+879456124+877493012+875541267+873828261+871529646
719+869242796+867397664+865547641+863507064+861541043+859813034+858256410
706+856717038+855068409+853306294+851591437+850119549+848852822+847566861
692+846149238+844688387+843354904+842242775+841367335+840645833+839820362
679+838673731+837530802+837139713+837180031+835030595+830400977+829342386
665+833122209+834990408+833461744+831822236+831405237+831515419+831639745
652+831850591+832199048+832496480+832639709+832808452+833257838+833937303
638+834552391+834984922+835408134+836063342+837003159+838094071+839156694
625+840223216+841219677+842256986+843591461+845086747+846540988+847941559
611+849257130+850532582+851906516+853496254+855260154+857045535+858860328
598+860632688+862299097+864360626+867026866+869547960+871426603+873234456
584+875303653+877166829+878826231+880700048+882813793+885135608+887383263
571+889479030+891576252+893371018+894642570+895964487+898009823+900411746
557+902556094+904865086+907620952+909997759+911693910+913488941+915771958
544+918065550+919896934+921540605+923517003+925669679+927390484+928804869
530+930665798+932800363+934572062+936239396+937840568+939085814+940126757
517+941480730+943441199+945321957+946609570+947569942+948642612+949794596
503+950549808+951591412+953311953+954710872+955127275+954599500+953927305
490+953919638+954191755+953997433+953679446+954280588+955751088+956856541
476+956839092+955755054+954417538+953475011+951982898+950195732+949787590
463+950892713+951731337+950765016+949188167+947648464+945182825+942416515
449+939208223+934599095+928593495+922485511+917667455+913359922+908419324
436+904069953+901791431+901952506+905243947+911614397+919598180+928159840
422+936847676+945422356+956243965+967476888+973705496+975726112+976647025
409+977949907+980015336+983052506+986761540+990049280+993543767
##END=
