##TITLE=18
##JCAMP-DX=4.24
##DATA TYPE=INFRARED SPECTRUM
##DATE=16/11/2015
##SAMPLING PROCEDURE=Instrument type and / or accessory
##ORIGIN=Default
##XUNITS=1/CM
##YUNITS=TRANSMITTANCE
##RESOLUTION=4
##FIRSTX=3996.3359
##LASTX=399.24785
##DELTAX=-1.9287336
##MAXY=0.9662692
##MINY=0.19062893
##XFACTOR=1
##YFACTOR=8.9990832e-010
##NPOINTS=1866
##FIRSTY=0.51929677
##XYDATA=(X++(Y..Y))
3996+577055192+577172625+577356358+577583939+577789331+578045723+578332848
3983+578569503+578797348+579059370+579314901+579582421+579932601+580288609
3969+580560964+580840870+581165814+581414126+581575737+581798218+582075540
3956+582275501+582428965+582649657+582864720+582983212+583236359+583581505
3942+583694368+583823657+584162577+584509909+584775111+584802995+584733317
3929+585036404+585526802+585682982+585707157+585937983+586092905+586031638
3915+586133308+586508921+586752729+586803133+586991967+587113043+586956995
3902+586955406+587143908+587295319+587740611+588314464+588099402+587523562
3888+587797639+588149541+588014158+588307311+588507669+588360033+588622651
3875+588840760+588858643+588756510+588402622+588624837+589122851+588954948
3861+588511113+588398383+589060658+589903686+589316255+588320491+588825063
3848+589846261+590134710+589787445+589559401+589786716+589876132+589879841
3834+590371232+590852357+590964293+590994628+590937799+591111730+591239032
3821+590701741+590893952+591759632+591636569+591338383+591764004+592063978
3807+591458333+591031322+591611533+591701147+591421507+591887332+592232146
3794+592193002+592225987+592207772+592146241+592045962+591940319+592084179
3780+592175781+591921177+591735589+591853950+592083517+592030000+591716580
3767+591534767+591434886+591569143+591761089+591293874+590697038+590899913
3753+591306723+590634248+589625568+590254197+591079474+590013171+589129475
3740+589717170+590014628+589285787+588588276+588481241+588767505+589021712
3726+588767903+588277505+588030982+587792075+587366190+586973355+586759551
3713+586138408+584792199+583581108+582856573+582178070+580890214+578839009
3699+576769259+574896886+572946688+571094650+569368721+567296189+565251144
3686+564300816+564149471+563727560+562828895+561514015+559468175+558128193
3672+558739335+559020433+558038578+557488437+557254035+556518306+555759726
3659+555364474+554729984+554093574+554305655+554301152+553035384+551833963
3645+551707953+551841348+551400229+550512857+549505536+548287655+547052621
3632+546223932+544850137+542435274+540768956+540112675+539134264+537217780
3618+534849148+533052679+531598310+529823269+527868998+525632602+523252015
3605+521261713+519295884+516852440+514313620+511962507+509431668+506796841
3591+504559452+502182475+498971941+495893610+493686987+491564845+489018474
3578+486307710+483551244+480683538+477912435+475271547+472183083+468733676
3564+465875408+463465711+460763193+457801964+454881238+451932196+448769318
3551+445610943+442623056+439398281+435940197+432790731+429969190+427074925
3537+423925492+420729231+417746874+414847508+411722946+408366995+404992432
3524+401720632+398634022+395722701+392763327+389658834+386550797+383530984
3510+380513291+377445393+374410214+371300322+368111679+365180057+362480718
3497+359682955+356767925+353905948+351090998+348219053+345328860+342519771
3483+339648952+336583670+333631780+330953404+328240752+325341618+322362341
3470+319405020+316593149+314016311+311556077+309009010+306364315+303760022
3456+301232428+298716392+296209066+293739626+291270848+288812303+286467549
3443+284211647+281939055+279609601+277255673+275049927+273050517+271151949
3429+269359836+267695190+266070384+264387093+262638876+260924224+259299434
3416+257655768+256009502+254548228+253239227+251963342+250672671+249234181
3402+247681471+246399394+245554379+244792951+243828963+242779135+241988565
3389+241523999+241088145+240522770+239921166+239394853+238979846+238682141
3375+238511107+238380361+238180367+238034752+238183050+238608273+239081930
3362+239509868+239989271+240548006+241114407+241673158+242256399+242986779
3348+243946048+244981039+245946452+246872504+247823924+248896718+250180617
3335+251583373+252984656+254395476+255790781+257172375+258696174+260406538
3321+262149439+263866228+265609113+267383840+269182179+270973415+272708534
3308+274456900+276406551+278629004+280971010+283229230+285331402+287386647
3294+289562338+291923055+294409716+296896344+299336608+301813136+304376165
3281+306973834+309544513+312123041+314743131+317331958+319965990+322851016
3267+325932659+328990390+331988710+335061013+338232535+341407535+344629030
3254+347994718+351419254+354770304+358110954+361614939+365292026+369043063
3240+372833609+376619751+380348004+384075926+387956749+392054456+396265490
3227+400459402+404584198+408684455+412852006+417130632+421468470+425795579
3213+430105070+434409792+438759884+443208068+447688940+452121659+456531859
3200+460980772+465468863+469941554+474370796+478783347+483210536+487642129
3186+492049514+496439512+500817124+505145194+509419083+513689728+517977891
3173+522232374+526405257+530533431+534649452+538715797+542722763+546669986
3159+550546902+554379838+558165218+561893669+565604436+569301228+572940860
3146+576492069+579952471+583324517+586627216+589913952+593196383+596432715
3132+599596786+602670977+605624688+608488585+611330029+614139880+616896677
3119+619597374+622214218+624740917+627178532+629523353+631806245+634040189
3105+636185447+638246189+640280239+642300711+644265944+646130634+647896767
3092+649597858+651263249+652890092+654423875+655832344+657150403+658458991
3078+659812817+661160350+662390517+663430260+664304948+665089094+665826478
3065+666537767+667213421+667807674+668266544+668537508+668620102+668606126
3051+668520684+668257470+667763827+667087775+666266207+665263886+664037163
3038+662568687+660826795+658772279+656373345+653664435+650697013+647407164
3024+643684276+639526097+634998597+630053358+624578246+618512525+611784197
3011+604338023+596190629+587274323+577406630+566457002+554288137+540731765
2997+525700426+508898417+489245260+465550232+438619103+410373392+381148410
2984+350735254+320523980+293498865+273178184+262221833+261913166+272376536
2970+292197232+318353189+347464083+376903531+404876357+430191042+451917261
2957+469118264+481042560+487672034+489746785+487945647+482723947+474985085
2943+466238437+458197250+452076719+448056407+445646081+444253077+443534040
2930+443863555+446062925+450380198+456197476+462599932+468707546+473643380
2916+476663954+477373322+475990983+473168216+469223411+464237504+458438342
2903+452459354+448104360+446665026+446716656+446354521+445445060+444468338
2889+443341298+441725384+439906993+438896856+439823802+443578119+450539558
2876+460414735+472536078+486332879+501376770+517214211+533267543+548856209
2862+563496072+576997833+589318640+600598643+611138414+621137052+630580648
2849+639333422+647261913+654395925+660883558+666906956+672627730+678077739
2835+683310766+688481598+693652099+698740801+703627820+708236060+712559758
2822+716636005+720475200+724029058+727282876+730380713+733533656+736878148
2808+740483802+744305776+748220809+752124318+755888602+759399011+762613817
2795+765524012+768137611+770463423+772518204+774357261+775997549+777407873
2781+778612340+779665794+780597112+781407156+782052077+782519028+782863114
2768+783126461+783303836+783355300+783311917+783318275+783402194+783458493
2754+783499293+783593677+783766283+784096791+784616663+785254100+785986716
2741+786800601+787644689+788499904+789364855+790268421+791254515+792290814
2727+793339632+794471176+795803806+797406275+799247584+801225600+803209378
2714+805025253+806539696+807750986+808750790+809727678+810898167+812319088
2700+813911886+815566945+817183058+818741282+820246651+821686184+823077961
2687+824446094+825790050+827045187+828160769+829209321+830284698+831387828
2673+832464066+833494404+834500302+835463214+836302400+836989116+837609465
2660+838239219+838849368+839354204+839769823+840223925+840756248+841315066
2646+841846594+842328448+842796326+843237577+843572126+843789970+843960324
2633+844185123+844529607+844914626+845240696+845541002+845903104+846377406
2619+846931587+847480933+847968152+848397150+848815286+849185137+849447690
2606+849676131+849920336+850133213+850318735+850549296+850822578+851078837
2592+851326553+851562810+851778204+852011215+852248466+852462601+852662628
2579+852827352+852944587+853066921+853223565+853366366+853439488+853430745
2565+853382659+853329208+853243104+853084804+852845500+852546652+852226542
2552+851959155+851799001+851723428+851717997+851830330+852117985+852573543
2538+853133420+853761783+854434126+855108853+855793780+856493941+857134425
2525+857696554+858248351+858789351+859258753+859661920+860063100+860473288
2511+860872613+861317309+861866920+862463888+863027475+863598678+864269961
2498+865056557+865884550+866710423+867562194+868414893+869242885+870099160
2484+870984379+871829262+872619104+873423849+874294960+875200447+876107457
2471+877018242+877906707+878754703+879580311+880413801+881293457+882202918
2457+883076413+883863275+884536479+885114570+885636826+886103048+886505950
2444+886851759+887136764+887372823+887578215+887752543+887856928+887861101
2430+887835071+887803477+887691806+887484229+887226048+886970450+886793870
2417+886774331+886934287+887252144+887696973+888262678+888945089+889671346
2403+890383893+891081868+891732684+892337799+892963579+893610687+894184804
2390+894579229+894723089+894616055+894300913+893824888+893219839+892519612
2376+891767590+890947744+890046165+889069278+888057816+887183592+886688094
2363+886844274+887934621+889917869+892272890+894295680+895065520+894995709
2349+895411394+895794559+895057439+894304688+894919540+896224418+897323905
2336+898002540+898416702+898731513+899092356+899716878+900553216+901305437
2322+901906446+902534941+903219736+903812068+904221395+904521237+904851546
2309+905259350+905708616+906165035+906587874+906952095+907292406+907609602
2295+907882354+908145105+908422228+908662592+908798107+908846193+908884079
2282+908897326+908835728+908730813+908612982+908440509+908191800+907906397
2268+907605230+907262469+906857314+906431694+906112710+906048927+906311413
2255+906877979+907681598+908696702+909844474+910601000+911158625+911674589
2241+912199826+912656046+913020400+913347729+913687577+914022125+914319450
2228+914600217+914895820+915203808+915482654+915721693+915976231+916264349
2214+916557700+916846613+917134070+917451596+917777468+918044193+918276145
2201+918540021+918851587+919180307+919486308+919767671+920057909+920357486
2187+920620171+920842519+921116065+921520690+921991813+922413393+922788080
2174+923161972+923496851+923788811+924126208+924513082+924874786+925184033
2160+925439167+925666152+925919762+926192448+926425592+926598596+926727355
2147+926812731+926850219+926886449+926979376+927128535+927334258+927646685
2133+928126551+928776837+929521375+930300885+931116028+931959520+932802614
2120+933645245+934480060+935219365+935827461+936383496+936933372+937462251
2106+937948211+938356677+938660162+938902446+939207653+939597772+939987626
2093+940295615+940581283+940967494+941436630+941870530+942271313+942721241
2079+943213626+943696407+944179518+944693429+945220255+945702506+946076000
2066+946380611+946777486+947285700+947747087+948122701+948494076+948863861
2052+949183772+949468843+949784449+950151585+950514945+950779948+950935400
2039+951106151+951365590+951650728+951886787+952087873+952318567+952584431
2025+952835789+953046944+953256111+953491176+953714981+953929778+954159015
2012+954383283+954597816+954768899+954869574+954953228+955057414+955139081
1998+955102189+954973363+954883616+954850632+954894545+954965945+954928589
1985+954838974+954763799+954647425+954465745+954277706+954199351+954224719
1971+954242072+954190940+954131594+954231409+954474687+954641597+954660805
1958+954598346+954474554+954271348+953950510+953461702+952779490+951965738
1944+951026604+949928840+948801071+947478508+945633887+943447764+941302241
1931+939413708+937988349+937399395+937854026+939260773+941531345+944224359
1917+946843058+949419300+951826182+953791084+955455482+957043842+958523645
1904+959756196+960757656+961627045+962389533+963018227+963606519+964248857
1890+964768199+965245880+965884178+966462733+966927101+967376897+967761253
1877+968077521+968350538+968626668+968814906+968921079+969431413+970356041
1863+971005798+971253978+971500700+971886182+972291469+972589589+972736165
1850+972753386+972885324+973094823+973169204+973667284+974572705+975067673
1836+975096948+975150068+975287636+975273793+975422423+975897917+976292739
1823+976741939+977275587+977518004+977584967+977750022+977938194+978052315
1809+978248236+978541719+978715252+978681937+978557019+978537612+978699091
1796+978906735+978822949+978529797+978755192+979355803+979497411+979276653
1782+979196443+979148026+978976745+978763073+978382161+977813342+977657096
1769+977969456+978175842+978245719+978088214+977792081+977827516+977968860
1755+978136697+978416603+978420047+978429850+978947734+979555167+979853353
1742+979791557+979445152+979380309+979402895+978794733+978551058+979146304
1728+979500061+979201875+978381499+977430708+976600198+975462494+974301874
1715+973959642+974009516+973602905+972557796+970883861+969144752+967953200
1701+966421403+964625597+963723091+962819856+961582933+960119557+957892566
1688+955498004+952921761+949814917+947579449+946255958+944538441+941925173
1674+939250043+937396945+935710226+933987410+933053377+932326589+931017538
1661+929692127+928737296+927965602+926802597+925089782+924572759+925213110
1647+925097333+924614950+924908764+925341935+925569781+925933009+926626282
1634+928105488+930154772+931806254+933052979+934576695+936251823+937851443
1620+939711894+941656197+943530026+945914058+948543486+950608600+952162652
1607+953641594+955125106+956475090+957640943+958677441+959611408+960471856
1593+961303757+962083001+962749780+963312704+963756340+963971866+964012865
1580+964141624+964162024+963855890+963977628+964416032+964192691+963691298
1566+963330653+962697919+961834160+960446422+958979137+959121276+959872636
1553+959689962+958804544+957683995+956308842+954593776+952974616+951648675
1539+950541307+950212918+949820017+948291797+946489831+944942668+942891861
1526+940531342+938389132+936018745+933702935+931819104+929745379+927226032
1512+924269274+920923523+917005377+912507152+908759029+905607211+901219796
1499+894806942+886823742+878250396+869025770+857889561+845996891+836650527
1485+830731249+826554127+822578026+818516682+814377115+809483804+802720173
1472+794247105+785834709+777523385+767543226+755774680+744006994+733174733
1458+724213454+720407508+723264584+729428398+735817674+742227283+749084436
1445+755607902+760584205+763501553+764365975+763437770+761983666+760875304
1431+759387354+757320187+755423837+753916084+752750893+751895810+750979593
1418+750407860+750813015+751543975+752135313+753046562+754716987+757167782
1404+760364374+764050965+767014347+767226097+763228602+756966761+752336797
1391+748200542+739604743+726179349+713213753+705496351+705243006+712768594
1377+726540060+744778489+766409232+790006200+813355321+833545935+848087241
1364+856533880+860318300+861578007+861774325+861433418+860648013+859317635
1350+857281796+854683895+852022939+849654539+847466229+845227648+843287319
1337+842161670+841765590+841876797+842594643+844010927+846021001+848573134
1323+851727601+855417769+859412350+863625768+868127039+872909342+877979498
1310+883282004+888625045+893927617+899200583+904271269+908854340+912827725
1296+916202619+918923252+920800195+921657265+921391335+919806484+916556044
1283+911435219+904849559+897934054+892368598+889904026+891569881+897070824
1269+904931491+913447147+921446110+928345918+933985158+938484708+942043865
1256+944832454+946860477+948154626+949506332+951702325+953604039+953321087
1242+951969646+952386060+953902556+954144245+953555026+953734057+955245188
1229+957940387+961366282+965068571+968708467+972146218+975423151+978581857
1215+981475295+983906882+985914306+987641427+989127854+990296489+991181575
1202+991983472+992785965+993460957+993970695+994372935+994744177+995127076
1188+995361810+995255769+994924864+994595216+994220795+993526264+992433732
1175+991100372+989508833+987406296+984648108+981370247+977755851+973831611
1161+969696482+965723428+962224146+959201684+956578879+954254988+951961764
1148+949362604+946322789+942928885+939224940+935145315+930641726+925794646
1134+920719058+915336674+909659415+904063559+898705549+893121349+886713263
1121+879155618+870162944+859113302+845100412+827284756+805037374+777718577
1107+744421024+704513635+658626762+608696494+557537252+508902126+467392468
1094+437203547+420775893+418794069+430027708+451100561+477806791+506146952
1080+532500585+554119836+569215720+577014656+578614409+575992068+569858522
1067+560195559+544365866+514274343+463633350+397165313+328233235+269936487
1053+230036119+211831503+216156178+242589938+289803563+354582166+431128983
1040+511787947+589797314+660646175+721272592+770045684+806824834+835063027
1026+859206494+876392264+880885256+875288406+870265540+876037183+894290448
1013+918677656+942679183+963700505+981606372+996875790+1009933054+1020724713
999+1028943574+1034808275+1039089914+1042273590+1044123509+1044370629
988+1043223653+1040949173+1037342194+1031623473+1022538402+1008240441+986348074
974+956170214+923816497+903086142+905231598+928321809+960558821+991211580
961+1015711386+1033955577+1047164915+1056365961+1062481292+1066573436
949+1069520921+1071619350+1072861240+1073461918+1073741823+1073718840
937+1073319382+1072655583+1071809575+1070720818+1069247374+1067302872
926+1064963549+1062375848+1059532549+1056164742+1052010140+1047093647
914+1041572634+1035390672+1028352434+1020506207+1012187266+1003649819+994635884
901+984205201+970844121+952646956+927151319+891997356+846556768+792086813
887+731957085+673336899+627908366+610869901+634544827+696236687+775807590
874+850488625+908485018+948768815+975055883+991365839+1000490650+1004805009
860+1007094259+1009677523+1013109775+1016624622+1019452223+1021355063
849+1022192462+1021777107+1020422090+1018741134+1017006395+1014979432
837+1012383187+1009469945+1006636581+1003802953+1000602188+997028725+993439828
824+989845832+985768194+980931115+975427191+969193765+961917946+953287970
810+943343180+933016683+924441747+920083012+920899612+925554944+931395073
797+936135913+938833430+939579492+938995505+937841707+936401644+934539406
783+932309898+929920105+927525940+925050770+922262843+919386494+916786539
770+914408336+911970192+909326456+906603969+903740336+900502944+897086588
756+894113007+892133798+890941518+889681546+888014168+886242405+884471503
743+882567272+880404794+878053614+875757410+873551151+871341249+869152078
729+867068154+865015293+862940973+861107612+858814520+856335509+854151902
716+852212037+850275020+848283757+846350979+844577030+842886470+841129875
702+839344865+837679011+836211527+834843461+833421017+831936776+830446111
689+828993000+827629240+826363439+825228186+824275342+823370319+822312030
675+821162669+820242147+819395410+817973098+816849105+817276249+817776979
662+817399709+816784990+816469517+816374273+816376260+816569067+816920704
648+817202199+817427925+817831556+818516483+819293873+819880641+820279768
635+820755859+821495032+822452777+823471458+824408804+825426160+826404306
621+827438817+828813373+830361530+831855772+833370017+834892209+836363402
608+837881422+839526214+841288638+843242545+845343425+847302101+849118638
594+851234554+853770460+856243642+858377044+860359034+862320889+864316391
581+866453170+868676120+870855157+873079299+875322582+877377298+879393332
567+881611381+883744120+885453291+887071259+889070271+891390718+893713085
554+895878742+898032544+900336101+902731524+905035876+907138213+909140007
540+911193530+913393365+915631217+917632150+919480480+921509165+923565470
527+925252453+926708412+928327042+930110992+931741411+933246780+935179161
513+937449402+939221496+940171161+940741768+941618708+943049696+944657596
500+946141969+947327825+947831933+947546861+946926976+946543613+946471683
486+946324908+946249865+947026791+948509310+949404067+949118134+948126211
473+946787222+945276091+943729259+942519823+942362915+942965977+943196538
459+942642555+941423516+939478816+936563388+932857191+928970241+924616009
446+919126922+912928335+906495345+899648789+892986761+887971977+885619208
432+886505487+891231822+899130639+908073439+917189243+927128601+937907676
419+948536399+957574245+964468953+969574942+973687420+977715249+981376606
405+984491001+987935375+991619052+995787629
##END=
