##TITLE=павел 11-многокр
##JCAMP-DX=4.24
##DATA TYPE=INFRARED SPECTRUM
##DATE=3/2/2015
##SAMPLING PROCEDURE=Instrument type and / or accessory
##ORIGIN=Default
##XUNITS=1/CM
##YUNITS=TRANSMITTANCE
##RESOLUTION=4
##FIRSTX=3996.3347
##LASTX=399.24773
##DELTAX=-1.928733
##MAXY=2.3212028
##MINY=0.82178545
##XFACTOR=1
##YFACTOR=2.1617885e-009
##NPOINTS=1866
##FIRSTY=1.5352728
##XYDATA=(X++(Y..Y))
3996+710186411+709702083+709749507+710241004+709998757+708674809+708260734
3983+710089689+711799423+711250522+709977471+709885436+710852549+711695422
3969+711509973+709931316+708153369+708930125+711730714+712672240+711641767
3956+711098490+710441286+708606155+708216233+710876702+712370769+712520870
3942+715660263+718243090+716612211+713234872+710752463+712549655+716835433
3929+715843947+711284270+711581495+714734178+714052600+713292773+717997424
3915+723296139+722509733+718161367+712808831+705792772+703322273+709905068
3902+718698026+726407188+730938246+724164765+711803835+711750125+719519504
3888+716052281+712795817+718039830+718297461+721274235+725378370+717532286
3875+710269678+708995856+713749033+724351978+723790724+718477947+721766118
3861+723250535+714596318+696549288+686451682+716026142+751568654+745409364
3848+725566521+713979093+712147932+711971913+710457388+718615641+729726460
3834+728553165+724511840+723548918+720824813+717278238+709202756+704115572
3821+715757261+720919826+719243840+729753095+730756823+716132405+705516998
3807+711435364+718063155+713490409+720849132+731803012+727352905+723903769
3794+723151276+719198567+716527565+715349583+715304530+715622324+713108152
3780+713767286+719667675+720040172+713446514+707484970+709811378+717949173
3767+722572983+723594026+718798939+712819364+716210874+717989593+706970920
3753+696583312+707089920+724722269+717571603+711917266+733411281+738344889
3740+715709176+700130769+706246164+720882163+728116978+724361904+716538153
3726+715103035+718847356+721185509+722318880+720352617+711943514+699125166
3713+696690897+712251382+723733043+720044418+710009400+705476798+709828473
3699+710683147+704823729+697708742+689331844+683440112+691870445+708094585
3686+708002992+694594219+683132850+674256404+666095008+674546736+691185834
3672+688433606+688814815+699386879+695545560+684394265+678654455+674559088
3659+669323623+671132892+673733916+662094378+653591090+668906019+686183848
3645+683112172+671835700+664521975+660576985+655930236+651201873+645591927
3632+637236810+641063130+660911929+663657154+649550261+639084569+639927608
3618+647055499+646667452+640949478+636847274+633256639+633948473+636524131
3605+632342189+625559057+622663896+620478050+616846663+616320812+616667115
3591+610472313+604741546+610148012+615828764+610891130+603460390+599890544
3578+598042288+595418104+591657460+585528941+578914439+579599656+586537632
3564+586944373+581128629+577097891+574482475+570648049+566597955+564215191
3551+561774966+557285597+554970549+556243599+555406516+549815980+543022536
3537+539803901+539347641+537180048+533051430+529567553+527324578+525382909
3524+523773812+522094131+519457374+516683419+514213747+511483687+508871303
3510+506986873+505038587+501730729+498422706+496693396+494629638+491533698
3497+489060663+487137522+484954323+482738810+480732181+478378808+475506918
3483+473179297+471675414+469583644+466838032+464850925+463174001+460646236
3470+457669131+455359514+453876256+452328341+450580392+448632960+446067366
3456+443337030+441250084+439652788+437793200+436215453+435058094+433033075
3443+430471644+427782142+424812123+422758347+421529411+419617630+417187607
3429+415185087+413498154+411415455+408886283+407140126+406482040+405050038
3416+402398061+399912618+397951125+396735396+396708045+396708293+395229722
3402+392938165+391469023+390861145+389853750+388129486+387167005+387568342
3389+387659467+386690480+385743192+385121969+384392747+383743015+383322157
3375+383083412+382784367+381795142+380565021+380141461+380370584+380633592
3362+380717411+380689536+380714240+380716832+380657607+381055112+382208335
3348+383610173+384585061+384780491+384610813+384842500+385864039+387835569
3335+390013833+390909313+390495983+390262752+390805753+391737408+393170348
3321+395120758+396877916+397920106+398712192+400223409+402020932+402841941
3308+403272311+404431379+406197332+408485911+411074776+413138231+414643188
3294+416353116+418454123+420588079+422466470+424047609+425654363+427512737
3281+429289692+430410242+431093391+432561237+435333179+438445966+440797519
3267+442606236+445072516+448276566+450887488+452470805+454001046+455933010
3254+458063299+460333460+462388339+464317904+466821324+469837415+472759156
3240+475278346+477804816+480869765+484070533+486910936+489740421+493039787
3227+496402898+499185897+501804071+504745938+507705783+510584567+513455189
3213+516102975+518766752+521838098+524976168+527703416+530213783+533353783
3200+537422295+541353443+544168756+546228047+548532507+551665173+555130025
3186+557944731+560687805+564386908+567970099+570741573+573899274+577858931
3173+581587150+584315942+586633361+589289198+592067510+594686290+597227317
3159+600020352+603287734+606469864+609114231+611651178+614322565+617065640
3146+620008390+622829713+624932623+626562785+628743448+631711013+634597020
3132+637112791+639643286+642125917+644312369+646330909+648510358+650582608
3119+652077171+653724814+656184118+658634379+660571581+662626351+665043746
3105+667316002+669253756+671011135+672414325+673712851+675653087+677895621
3092+679532179+680750361+682128516+683512075+684464408+684964287+685650387
3078+687278784+689496338+691286637+692504433+693683298+695073253+696220190
3065+696737108+697074257+697883824+699528985+701252284+701746869+701407183
3051+701770857+703311189+704610102+704489227+703898637+703761439+703815976
3038+703680102+703105117+702339114+702016412+701850871+700852547+699196412
3024+697878309+696734461+694889569+692589520+690450932+688096677+685115878
3011+681460063+677184376+672639642+667727540+661468496+653058676+643061321
2997+632324432+620224168+605359157+586921709+565236454+541248063+515366419
2984+487991535+460905880+437054328+419893487+412785476+417176964+432015093
2970+455164801+483536134+513124326+540822683+565069148+585029393+600423068
2957+611362831+617934872+620791322+621431762+620476230+617609082+613205186
2943+607726481+601740509+596325881+591770781+587840294+584479609+581594208
2930+579433067+578766819+580559269+584732499+589422867+592967292+595092755
2916+595909159+595560375+593994511+591179474+587578361+583633758+579582176
2903+575548405+572055981+569953457+569214750+569175433+569642887+570706667
2889+571700083+572216780+573353625+575718358+578593337+581503276+584956383
2876+589983790+597002000+605515104+614741769+623937608+632722019+641381585
2862+650131091+658139298+664598735+670303750+676115854+681542006+686324134
2849+690535688+694355887+698696975+703415577+707240077+710034711+712754294
2835+715986218+719459066+722696615+725749267+728867761+731719689+734360803
2822+737553575+740986058+743717331+745500241+746632951+747892877+750050600
2808+752942232+755863972+758963937+762480404+765590516+768064047+770514418
2795+772688078+774189864+775535153+777075596+778508674+779829203+781274743
2781+782488238+783311260+784182973+784981952+785621455+786498022+787228346
2768+787401939+787479637+787572554+787515425+787548070+787634315+787559540
2754+787603931+788125812+788799228+789064581+789144098+789563908+790394705
2741+791435158+792447654+793216194+793406605+793231303+793669476+794765404
2727+795632486+796283735+797457361+799165827+800823781+802434146+803968743
2714+804843600+805466229+806553996+807657645+808544358+809420648+810076308
2700+810861336+812476388+814646518+816713088+818515960+820105316+821409302
2687+822371837+823143189+823978397+825168401+826701951+827935518+828486957
2673+828982589+829961172+831064986+831926167+832548299+833069409+833557983
2660+833799513+834049204+834971705+836350356+837186998+837186667+837150383
2646+837443858+837749410+838284360+839239782+840009535+840220680+840315804
2633+840714438+841243709+841424580+841322730+841497205+842037559+842781339
2619+843499973+843983916+844300717+844221586+843945811+844255775+844749698
2606+844641837+844466534+844885627+845782487+846843454+847678111+848119261
2592+848178982+847966954+847920082+848040681+848218686+848741394+849521073
2579+850175520+850325125+850100965+850085194+850084477+849770157+849495486
2565+849457216+849660035+849994593+850119769+850055030+849918108+849382937
2552+848387371+847716546+847848009+848046913+847816687+847721178+848341270
2538+849546990+850624611+851168936+851348870+851293561+851152337+851211562
2525+851540329+852076162+852819225+853513320+853779058+853652724+853496612
2511+853684101+854352333+855103006+855255700+854726098+854226881+854246402
2498+854840687+856052859+857248708+857935028+858637229+859365845+859966912
2484+860885719+861954627+862656332+863023700+863428125+864203502+865377680
2471+866540332+867220862+867391973+867457429+868069140+869465657+870885390
2457+871452103+871393871+871634519+872332364+872822868+873067210+873655319
2444+874475694+874991068+875226918+875418598+875496737+875332298+874952633
2430+874696324+875022169+875582045+875727679+875558498+875171719+874489590
2417+873895085+873847882+874380736+875119388+875650258+876053083+876651835
2403+877603452+878709416+879306955+879497753+879864624+880281567+880714501
2390+880833943+879625796+876427455+871519158+866363320+862941425+861898104
2376+861583233+860469548+859590280+861565036+867084988+874236094+884106949
2363+897977992+912732936+927423306+941180698+950849617+956218861+944153833
2349+909456014+874075184+866801218+888865861+907251419+914041885+916516850
2336+914903728+910332360+910342231+917168154+921554790+920206248+920180275
2322+924291358+927079650+924905936+919390726+914962511+914975029+917128781
2309+917201516+914750208+911601385+909398720+908539579+907803409+906800122
2295+906288112+905924438+905250967+904726328+904572036+904060081+902630808
2282+901111816+900493819+900796779+901504881+901923643+901913552+901998584
2268+902028637+901556606+900945668+900381546+899680999+899357691+900015391
2255+901090861+901701083+901995661+902406979+902863294+903069422+902976008
2241+903110118+903835645+904567183+904669641+904532718+904607052+904617033
2228+904584223+904710668+904649844+904371037+904490368+905265249+906139720
2214+906454701+906255136+906006603+906035277+906275153+906193044+905853468
2201+906077132+906788928+907119626+907020808+907243865+907821441+908016264
2187+907777988+907625294+907714738+907880721+907962223+907993931+908043285
2174+908036281+907902447+907849840+908206566+908694533+908729494+908417380
2160+908265018+908591139+909361663+909844282+909457669+908817614+908582536
2147+908539800+908478645+908522871+908743777+909224741+909730024+909609204
2133+909167612+909450665+910372560+911284749+912127347+912879122+913608124
2120+914432303+915001333+915248542+915564020+916068145+916640538+917069667
2106+917299341+917471776+917704483+918043342+918313050+918382807+918307812
2093+918308087+918650806+919135410+919613011+920333520+921229662+921959877
2079+922356526+922597174+923029502+923621857+924072051+924367346+924852777
2066+925847627+926762904+926950393+927219715+927885081+928219804+928562026
2052+929331724+930003376+930440335+930847848+931155330+931725848+932750200
2039+933605812+934089533+934278897+934274375+934618142+935407360+936051440
2025+936334549+936507149+936486856+936639273+937820785+939301397+939603254
2012+939043985+938875797+939335365+939877650+940293324+940820499+941487298
1998+942096637+942162589+941908707+943042905+945084440+945806493+945515996
1985+945219212+945097675+945173442+945387400+945623857+945673486+945681207
1971+945607314+945923950+947579478+949371983+949512820+948658532+948304178
1958+948889364+950008122+950790172+950643158+950019261+949420730+948271863
1944+947808214+950001725+951593286+950025878+947782407+946375798+945474858
1931+944344189+942825859+941347453+941275987+943119224+943853630+945253180
1917+950176972+952822994+951804267+952163915+954804973+957454524+958718310
1904+959178099+959620573+959661821+959419078+960285277+961271028+960771645
1890+962240897+965562761+965937409+964889124+964956731+965461738+965826569
1877+965984391+965391264+962493787+960807489+966204525+972565145+971786735
1863+968354693+966911359+966833496+967175608+967481325+967443607+966785631
1850+965478833+962663961+962912990+971483003+976354408+971970474+968588724
1836+968474355+966242575+963142499+966296174+971141883+971120377+972176050
1823+972992620+970257045+968501927+968687321+967792116+966376023+967760243
1809+970033271+969272617+966287351+964376177+966410322+969931807+968450754
1796+961928232+961001485+971017478+975977665+969851297+965487876+965988803
1782+966010419+966163057+965170909+959071671+954770674+962756492+972443057
1769+972661206+968799042+961923710+959113140+963087686+963106325+961808570
1755+959408049+953232602+954717294+963387227+965030182+960585039+956061370
1742+955197377+958358662+953531923+946615343+960958473+976140009+971335769
1728+964002081+959480287+956577957+951365101+942718108+945903216+963894992
1715+971552373+964930703+955695436+948410164+947740387+948542068+940611614
1701+941745371+956844081+960746389+963086914+961056077+949003953+939711446
1688+929683211+927497530+948212529+957415592+943467072+928909984+927534146
1674+932630869+929152286+928979134+936760921+932853429+924559081+927763103
1661+931867789+924132047+907450378+902707348+936215989+954269747+936923705
1647+933581879+946316905+945109144+935650876+927095201+926399947+945019481
1634+959883278+952893357+945089072+945956815+948105991+953678164+960617684
1620+956158975+953272747+967912330+976740525+970463724+966278308+968057909
1607+970132530+970947887+972259207+973810954+974190675+974381252+975906751
1593+977822116+978859372+979534111+980151832+980697646+981579506+980695109
1580+974746194+974344857+990022577+995626513+985759849+986549399+994473677
1566+992711942+983257864+967828842+967365193+1001585907+1016678220+1005909955
1553+997726721+993704531+989891335+983333521+976929117+975294544+988427046
1539+1012683491+1010189998+993586302+991885667+994530806+986980954+981388929
1526+980403950+978412486+984364380+992885204+992203516+989812148+985546443
1512+976498223+965247780+964435842+987582794+997669592+980595079+963738935
1499+959511609+964493743+962665064+948979138+939391502+940950528+941418258
1485+935664661+929789307+926844186+923845299+919557260+917136446+921541335
1472+928026580+920361312+903736111+895168911+892967183+880865761+862095464
1458+858519663+873795164+877245072+868947526+864668585+868419413+875653290
1445+879821447+880718527+877943965+874448122+880742294+888006996+882808202
1431+876960144+876717291+874767901+871230204+867791049+864195175+868710903
1418+878343317+878663482+874664506+874217069+875508869+875826883+877708446
1404+881613676+882387675+882195664+883907494+884602527+885245890+882736184
1391+873682505+865141885+860570737+854407312+847414192+845384845+848922431
1377+856342584+869021749+885733361+900512954+913286690+924565974+931349547
1364+936887421+943143157+945293325+943488909+942163913+942130054+941590307
1350+940162302+938202932+935913029+933046653+929902021+928723157+929693357
1337+929661925+927754280+926050005+925890860+926700591+927524220+928381927
1323+929528587+931303226+934210519+937180455+939379039+941986129+945233770
1310+948471484+951845404+955381667+958848890+962299460+965742530+968993700
1296+971868127+974141156+975678014+976603989+977161383+977147266+975941712
1283+973405537+969918352+966136588+963138859+962098737+963800585+968250582
1269+974201593+980078271+985713639+991384409+996435363+1000364250+1003527631
1256+1006321107+1008545278+1010161433+1011771743+1013632627+1015393259
1244+1016738878+1017949616+1019673081+1021561316+1022561515+1022723197
1232+1023010937+1023825963+1024793958+1025765040+1026922178+1028132696
1221+1029241197+1030156805+1030987381+1032244109+1033723508+1034738705
1209+1035402968+1035966648+1036331590+1036536394+1036646902+1036758955
1198+1036987802+1037271130+1037738640+1038481979+1038988530+1038932614
1186+1038781961+1038821334+1038728692+1038542085+1038627448+1038742919
1175+1038204274+1036748588+1035061628+1033727588+1032120035+1029841382
1163+1027459500+1025369990+1023739167+1022716028+1022227785+1021995188
1151+1021577749+1020680559+1019546361+1018644649+1017898443+1016750790
1140+1014697013+1011800969+1008726591+1005714635+1002662314+999874573+997636616
1126+995777607+993702766+990860874+987345455+983419214+978462887+971567814
1113+962384051+950360712+934855040+915353591+890765511+859903221+822573333
1099+780396523+737222933+698514890+669375789+653003532+650606044+661002144
1086+680954669+706814477+735076735+762705115+787869504+809630139+827363346
1072+840504285+847706841+846988096+837728400+819595401+789062154+741307546
1059+675980586+600360590+527920572+472396640+442082784+439298020+462839498
1045+508953964+571500572+642850782+714721329+780200597+835567975+879855415
1032+914251046+941266943+963370353+981967719+997303327+1009676829+1019817448
1018+1028173171+1034940091+1040446643+1045015419+1048864789+1052475938
1007+1055984077+1058826962+1060869710+1062561964+1064366931+1066398099
995+1068258542+1069563906+1070318935+1070940737+1071665107+1072232426
984+1072688576+1073234500+1073615764+1073619073+1073445039+1073287217
972+1073305194+1073591722+1073741823+1073529078+1073119801+1072470758
961+1071460192+1069794628+1067376681+1065048178+1064149885+1064995792
949+1066557906+1068126307+1069433215+1070036158+1069975941+1069695369
937+1069534790+1069547694+1069464978+1069071031+1068453089+1067739307
926+1066936744+1066250314+1065890997+1065434957+1064312780+1062821360
914+1061431846+1059611879+1056811455+1053530067+1050277684+1046702489
903+1042223928+1036650101+1029585736+1019803221+1005762059+986074169+959196627
889+923888918+881547173+837623296+801480654+785703234+799854518+841171967
876+894703166+944318713+982094770+1008059351+1025078610+1035672180+1041747155
862+1045286286+1047860840+1049749296+1050474878+1050423153+1050306249
851+1049959284+1049479091+1048946733+1047966606+1046818071+1045868273
839+1044801351+1043346657+1041669733+1039959833+1038360442+1036925268
827+1035222537+1032949950+1030325435+1027255137+1023796075+1020549207
816+1017513429+1014197520+1010100334+1004985965+999568745+995282195+993463883
802+994187480+996512344+999653888+1002536255+1004236891+1004911190+1004847112
789+1004054696+1002925902+1001921291+1001103729+1000296865+999187481+997699480
775+996059503+994334935+992586103+991101852+989802443+988340580+986708875
762+984850528+982830720+980982629+979424485+978205366+977141200+975807050
748+974154390+972365635+970493391+968767500+967332878+965894507+964223980
735+962265492+960124257+958029453+956169231+954715089+953220912+951278084
721+950062935+949888019+948691949+946298928+943992041+941867680+940079697
708+938805874+937784280+936446049+934470026+932450328+930931115+929790079
694+928477215+927116155+926036770+924849799+923409773+921950392+920803290
681+919831601+918738319+917225007+915061109+910401290+903038100+905716932
667+922079815+920584369+910515272+905745000+905128933+905225987+905446617
654+905087410+904039898+903298103+903206399+902518425+901085237+899835181
640+899039401+898184451+897176036+896346673+895498285+894723238+894034492
627+893267221+892680932+892148573+891380089+891057222+891561347+891508188
613+890772018+890471870+890344212+890033036+889489869+888808898+888424380
600+888236450+888031590+887850774+887620052+887323930+887173442+887188827
586+887059570+886543259+885789718+885569474+886490155+887846693+888138018
573+887170244+886371541+886179475+885738379+885086745+885068216+885910428
559+886481332+885896035+885332852+885509753+885465969+884988478+884667817
546+884588630+884364857+883403810+881678911+880541349+880846515+881434845
532+881032240+879770880+878887696+878977029+879054727+878305102+876946523
519+875696468+874865120+873731418+872213694+871397897+871179306+870017316
505+867720024+866012054+865641267+865032424+863471027+861924298+860581159
492+859460141+858829240+858406397+857398313+855186715+852815199+851359457
478+850513275+850052439+849697367+849128228+848829790+848786888+847778528
465+845931265+844385749+842739485+840988999+839490190+837435862+835156823
451+832703474+829436809+825822186+821547658+817080070+813997144+810894863
438+806827620+804060779+803178367+802214012+800978018+801030294+802809455
424+805581204+808297258+810883834+813743207+815323574+814683023+812150598
411+809013411+807322260+806386028+804480423+802082990+799861300+798319920
##END=
