##TITLE=павел 11-многокр
##JCAMP-DX=4.24
##DATA TYPE=INFRARED SPECTRUM
##DATE=3/2/2015
##SAMPLING PROCEDURE=Instrument type and / or accessory
##ORIGIN=Default
##XUNITS=1/CM
##YUNITS=TRANSMITTANCE
##RESOLUTION=4
##FIRSTX=3996.3347
##LASTX=399.24773
##DELTAX=-1.928733
##MAXY=2.3960595
##MINY=0.73076093
##XFACTOR=1
##YFACTOR=2.2315043e-009
##NPOINTS=1866
##FIRSTY=1.7113974
##XYDATA=(X++(Y..Y))
3996+766925431+765545458+764515340+764928712+766124329+766521033+766651007
3983+767572947+767804848+766558321+765800864+766187900+767067638+768572989
3969+769801460+769030487+767251566+767619156+770186251+771506980+770806897
3956+769749427+768092093+766007176+766617512+770596311+772334792+771620446
3942+774178192+776809659+775011614+771011339+768239909+770923836+776251997
3929+774988750+769686978+769978657+773178631+772089269+771388599+776544050
3915+781778885+780486576+775621682+769986083+762670925+759265868+764702581
3902+773659581+783025732+788955361+782088513+768970014+768501726+775965607
3888+772405789+770208955+776677442+776103700+777549327+781314656+773408876
3875+765943659+764210573+768734481+779783235+778390762+772035634+776330152
3861+779217506+770570936+751136521+739443669+769258809+806394287+801154911
3848+781646988+769780732+767385172+767161765+765505339+773118319+784467459
3834+783933783+780312744+779688466+776696353+772537792+763546603+757007066
3821+768146422+773782930+773287289+786500237+788760214+772208024+759127668
3807+764778279+771704638+765500318+771805443+783701188+780709396+779555394
3794+780596357+776227103+772047013+769819890+769803276+770669338+767965859
3780+767796301+773530622+774387923+767786151+761142336+762821626+770598395
3767+774758345+775210127+770047784+764492316+769247216+771750152+759831864
3753+747799148+757061876+773943460+765567842+759495525+782835286+788873467
3740+765338772+748884023+755247270+770868652+779158476+775574458+766386519
3726+763355623+766804218+769751564+771228549+768592595+758651526+744146698
3713+740817124+756623236+768263307+763712849+751957709+745784266+749222178
3699+749004968+741314207+731974019+721112292+712778929+719794929+735658414
3686+735097547+721275333+710055738+700654062+689520475+695147207+711591860
3672+708261325+707979850+719623447+716537474+705144368+698943253+694417369
3659+688970826+691273220+694612676+682243194+671936832+686818759+705942532
3645+705122465+695197690+688305627+684224580+679501305+675086163+669208512
3632+659217281+662138878+683791709+687960260+673238169+661425654+661110203
3618+668241966+668403297+662000091+656653071+652749756+653833242+657130121
3605+652896984+644499570+640319961+638151067+634659948+634232580+634556044
3591+627594641+620710485+625731476+631972709+627507832+619801847+615245940
3578+612465909+609534108+605953723+599814737+592290650+591568985+597588094
3564+597768070+591766910+587451772+584844344+580916188+576498642+573732500
3551+570487866+564929353+562062887+563175487+561905936+555998476+549356157
3537+546078723+545387882+543071973+538580385+534501314+531143855+527916049
3524+525688765+523636863+520654152+518133587+516189435+513126860+509404322
3510+506541969+503700824+499783299+496322737+494402945+492436089+489683089
3497+487085277+484612203+481605880+478304834+475297443+472433380+469832149
3483+468444110+467664377+465451357+461964405+459105738+456886628+453898629
3470+450327645+447688993+446006551+444105697+441921283+439640445+437014026
3456+434248686+431578382+428698774+425611999+423439579+422262740+420639408
3443+418418642+416030374+413559998+411480477+409852497+408028569+405434657
3429+402603849+400411343+398440988+396182533+394330051+393260055+391867448
3416+389605334+387352275+385464028+383744004+382560514+381962252+380695746
3402+378402834+376627867+375864373+375287693+374475373+373373297+372138950
3389+371030463+370182618+369459083+368568100+367500828+366729642+366562434
3375+366899200+367348044+366949656+365749606+365174101+365679999+366453215
3362+366776866+366645611+366380989+366023710+365725727+366453722+368422902
3348+369962710+370163039+369833725+369779369+370195252+370883716+372028742
3335+373801894+375493150+376686710+377973222+379404158+380137149+380513153
3321+381755192+383656367+385297728+386847713+388759198+390439717+391363928
3308+392091015+393271887+395291283+398014047+400593883+402609058+404298899
3294+405982036+407789029+409730751+411986160+414472777+416745949+418692051
3281+420456014+421976296+423404027+425256669+427571616+430103507+432944251
3267+436085195+439326410+442407548+444871354+446638602+448411326+450656505
3254+453181291+455985094+458866038+461577102+464775901+468400946+471317308
3240+473629584+476433815+479965427+483695979+487321131+490932286+494657069
3227+498013352+500621582+503464970+507167903+510935743+514212750+517082475
3213+520018282+523875869+528544120+532641300+535688437+538738084+542642147
3200+547143404+551415325+554852221+557420117+559884697+563243385+567423795
3186+571573168+575628573+580001353+584046020+587143639+590129502+593817904
3173+597737246+601183277+604399331+607840982+611204317+614084673+616814382
3159+619996192+623647841+627337739+630788899+634140268+637448313+640581190
3146+643879672+647508243+650954488+653832868+656229710+658476492+660918528
3132+663973838+667509136+670496868+672545565+674642715+677626440+680690832
3119+682823133+684787798+687543736+690585050+692999147+694962263+697215403
3105+699400323+701212098+703429339+705793006+707528122+709408008+711872000
3092+713995914+715596622+717045561+718173386+719072249+719999692+721177145
3078+723209602+725635184+727063342+727734524+728904873+730603448+731968409
3065+732905147+733879440+734959614+736381041+737777788+738116050+737635314
3051+737506355+738476855+739734547+739851325+738999954+737939440+736943351
3038+735909119+734271658+731910768+729452759+727250316+724928798+722159665
3024+719130959+715868482+711958115+707500823+702915001+697789626+691689316
3011+684666906+676712727+668268088+659785949+650201732+638180876+624476882
2997+610429498+595756661+578179481+555131827+528114027+500982654+474024526
2984+445893913+417911436+393455816+376213052+369123866+373612222+389552180
2970+415381976+447498414+481113392+512720647+540344882+562948341+580600683
2957+593461372+601583561+606051323+607971115+607082510+603557896+598831576
2943+593627672+588118734+582849923+578064199+573512886+568993573+565046345
2930+562685295+562507510+564624266+568511608+572878885+576473747+578704343
2916+579148860+577392429+573983472+570144903+566044250+561124119+555266288
2903+549101766+544986156+544595488+545858521+546569449+547375519+549038623
2889+550659684+551748085+553570116+557110115+561791882+566815543+572374537
2876+579269645+587832878+597855680+609028371+620982505+633328749+645710786
2862+657579766+668026251+676730676+684877759+693338424+701249279+707929474
2849+713645579+718917862+724320760+729597370+734040344+737829980+741794729
2835+746152284+750512830+754893195+759237395+763063410+766409704+769970537
2822+774001101+777834542+780897277+783207524+784937618+786542974+789029830
2808+792746011+796709853+800518186+804279081+807225251+809442224+812048904
2795+814935457+817421512+819668615+821942802+824056780+825816736+827281060
2781+828367003+828999882+829487937+830010502+830848090+832229505+833418657
2768+833870760+833875995+833504558+832997486+832971630+833435592+833955699
2754+834279110+834294282+834081666+834166552+834982184+836175984+837412094
2741+838704937+839724905+840378244+840909570+841337579+841979914+843005277
2727+843916533+844822394+846368025+848290488+850114016+852161056+854210448
2714+855533153+856651042+858085076+859233468+860075705+860998874+861854038
2700+862939607+864749512+866897198+868765492+870446011+872497059+874911370
2687+876902425+878125019+879186175+880674539+882356073+883710296+884739720
2673+885620312+886331186+886966362+887626860+888214598+888881400+889728284
2660+890265486+890447224+890972567+892077688+893127678+893637475+894004051
2646+894380615+894483504+894807824+895691888+896293570+896171983+895997991
2633+896244476+896871799+897565311+898012018+898410752+898946459+899679609
2619+900743863+901836537+902330575+901959192+901503297+901957055+902712108
2606+902645011+902257495+902593086+903542164+904424787+905006969+905376322
2592+905444701+905423653+905660629+905739479+905726337+906322943+907139858
2579+907446388+907246379+906896365+906661526+906560026+906742192+907062504
2565+907036648+906812387+906531713+906059898+905798455+905798349+905114880
2552+903531694+902463059+902668623+903054537+902803779+902563491+903226873
2538+904622338+905801874+906295378+906396451+906388758+906217704+906099002
2525+906401472+907046371+907881983+908718022+909176909+909258536+909113765
2511+908886726+909115154+909728321+909917966+909545835+909235245+909547117
2498+910521837+911838452+912976427+913940998+915089336+915751330+915851868
2484+916502857+917675983+918585744+919221241+920086768+921258078+922455992
2471+923423340+923926459+924151575+924517082+925406115+927016332+928727729
2457+929555114+929616121+929939104+930730911+931333394+931640885+932204157
2444+933054940+933552611+933679646+934057974+934511839+934337686+933544811
2430+932719349+932422542+932502353+932360039+932127551+932065903+931768027
2417+931038830+930584003+931071737+931881280+932182254+932494767+933454850
2403+934774457+936007094+936656480+936773259+937107033+937763044+938302703
2390+938251953+936876041+933502715+928391817+923051422+919373170+918036469
2376+917756222+917060573+916586835+919160447+925524389+933224392+943914584
2363+959348351+974915563+988794350+1001570100+1010363524+1014996624+1002872825
2349+967877982+931773904+924150080+945750344+962742083+969086686+972803829
2336+972113843+967265883+967659597+976046487+981383463+980246449+980488981
2322+984874955+987766957+985464510+979505927+974326115+973578755+975555547
2309+976271710+974461378+971053863+967886743+966115301+965167505+964576134
2295+964256249+963396063+961992906+961044255+960621588+959823584+958256638
2282+956641613+955783244+955822348+956401860+956692256+956306663+955822989
2268+955439212+954890258+954159030+953290725+952625205+952544753+952953317
2255+953593195+954326025+955089946+955825981+956452716+956815232+956872713
2241+956954554+957441647+957962822+957768156+957153494+956924852+957135330
2228+957484490+957770827+957791982+957553190+957517611+958024257+958635180
2214+958805913+958587849+958334206+958368929+958603875+958573104+958458890
2201+958846513+959375916+959364377+959147487+959362026+959647829+959353800
2187+958831769+958733581+958921944+958980493+958922158+958999725+959252406
2174+959435641+959354654+959176121+959298349+959614281+959553594+959160950
2160+958938504+959140329+959657017+959859697+959434038+958926752+958700353
2147+958520218+958157702+957816769+957877562+958361771+958769908+958508251
2133+958009726+958381643+959525174+960540067+961251849+961907753+962668789
2120+963475233+964063612+964474207+965003502+965857598+966768213+967115557
2106+967091517+967234899+967386295+967521770+967899137+968262827+968207590
2093+968099893+968589230+969395887+969910866+970276266+970880565+971524716
2079+971838939+972195684+973138138+974430821+975430328+975670830+975627132
2066+976437529+977533408+977633626+977663755+978438788+979096080+979535308
2052+980284378+981109947+981733050+982100053+982219716+982703710+983696273
2039+984473870+984929338+985138535+985195482+985654368+986467543+987003250
2025+987208173+987333499+987149623+987065218+988078615+989558699+990072716
2012+989785097+989661908+989901021+990210008+990435872+990645924+990938671
1998+991359736+991411982+991187186+992357748+994341805+994939800+994588717
1985+994181970+993869563+993856422+994047669+994138485+993960058+993736011
1971+993315373+993256931+994829326+996759962+996883899+995909286+995525616
1958+995955869+996663270+997050466+996666903+995800520+994896850+993512283
1944+992988650+995058395+996031406+993601603+990698383+988739327+987286168
1931+985507247+983177982+981044132+980759719+982883953+984207620+986121161
1917+991464014+994691713+994291483+995066301+998044525+1001156194+1002936824
1904+1003815707+1004576209+1004940327+1004989047+1005858634+1006491781
1892+1005701470+1007392673+1011260463+1011971284+1010975409+1010881708
1881+1011137488+1011516030+1011902478+1011356087+1008100502+1005832672
1869+1010938014+1017373006+1016681631+1013282343+1011854719+1011802260
1857+1012220440+1012714691+1012843115+1011959852+1010128044+1006709097
1846+1006396691+1015105497+1020599103+1016353626+1012915234+1012885318
1834+1010369294+1006534624+1009162619+1013917199+1013858756+1014952819
1823+1015849331+1012991092+1011123278+1011273819+1010123557+1008397843
1811+1009758905+1012145864+1011406517+1008201788+1005674011+1006973532
1800+1010218646+1008813673+1001932401+1000198675+1010089154+1015628595
1788+1009574602+1004863614+1005091508+1004751109+1004608902+1003438127
1776+996623632+991002776+998268145+1008528832+1009491159+1005937056+998908343
1763+995582562+999174487+998978111+997588736+995110107+988304586+988964229
1749+997629977+999870029+995714726+990894759+989459870+992319712+987141610
1736+979182302+992789710+1008454042+1004257072+997228999+992581689+989121501
1722+983065478+972949135+974425692+991926747+1000301671+994382512+985210439
1709+977022062+974961399+974660852+965427879+964861616+979284443+983548831
1695+986517439+984977417+972522942+962161930+950573624+946338831+966128870
1682+976132281+962621565+947537492+945370628+949926054+945624912+944459906
1668+952193457+948582728+939760884+942262271+946405073+938854756+921425072
1655+914729172+947255322+966619916+949843358+946771114+961245332+961835741
1641+952871370+943645876+941929458+961126523+978320834+972923813+965637610
1628+966760948+969232098+975381181+983149669+978919150+975674249+990880549
1614+1001204700+995788661+991779411+993732164+996101388+997026533+998333105
1601+999965332+1000285110+1000212457+1001644676+1003616767+1004592662
1589+1005176341+1005685871+1005997102+1006594776+1005398466+998795518+997398237
1576+1012735098+1018607780+1008341431+1008548704+1016662613+1015224946
1564+1005436288+988410787+985013636+1018003374+1035124285+1025935224+1018098464
1551+1014012075+1010030391+1002736281+994756566+991074254+1002673885+1027697691
1537+1026877785+1010539814+1008485240+1011182362+1003394856+996843192+994491918
1524+990930017+995809174+1004344361+1003830344+1001480246+997156453+987162551
1510+973775879+970351162+992421960+1003618049+987174624+969439693+963481857
1497+967090235+964358603+949098562+936995918+936399632+936119919+930270849
1483+924115463+920692456+917017729+911498908+907424806+910467455+916565680
1470+908982991+891566128+881102227+876965622+863320232+842342482+835274878
1456+847622138+850688612+843160732+839697606+844414311+852860872+858095387
1443+859756621+857422976+853727949+859198317+866064684+861048128+854899526
1429+853617742+850356387+845460722+840770408+835812134+838209991+845399769
1416+843598945+837385437+834681905+834091175+833155879+834633879+839389474
1402+842089053+843744197+845367022+842333775+838961144+837770122+832645281
1389+824883203+817836326+809113792+800908106+799114227+804357983+814559960
1375+830639855+851486402+871053996+888583257+903889401+913594188+921215875
1362+929139712+932544983+931558189+930731018+930969703+930515945+928943550
1348+926743885+924208736+920854001+916982792+915219577+915987024+915930932
1335+913891957+911988993+911670924+912435379+913446426+914643912+916179019
1321+918436485+921878831+925436458+928282518+931406046+934989423+938670240
1308+942785263+947196025+951491504+955654713+959596011+963149685+966261461
1294+968754407+970455975+971313596+971377701+970570616+968414436+964643979
1281+959553167+954002079+949412036+947123800+948070420+952327971+958329398
1267+964152185+969488199+974564587+978845322+982034558+984506350+986633683
1254+988124878+988965618+990683746+994194791+997620468+998686218+999123630
1240+1002238290+1006165805+1007296622+1006283332+1005251130+1005180508
1229+1006188135+1007963851+1010347177+1013018443+1015704453+1018372514
1217+1021090042+1024054483+1026923620+1029134397+1030882974+1032480264
1205+1033769848+1034654607+1035216169+1035641294+1036160760+1036773499
1194+1037398205+1038011906+1038468015+1038653813+1038779459+1038971989
1182+1038951261+1038670694+1038406474+1038135950+1037350126+1035515540
1171+1033074519+1030790449+1028302524+1025260303+1022285178+1019760606
1159+1017543312+1015735865+1014515621+1013702233+1012974104+1011978549
1148+1010625715+1009203967+1007647278+1005425283+1002055056+997816310+993571046
1134+989343626+984904657+980799678+977318014+974047364+970300306+965611113
1121+960090583+953640739+945475333+935028848+921857142+905026949+884048719
1107+858646158+827835357+790769807+747598392+700176478+652552152+610124624
1094+577559744+557519641+551328890+558391045+575424451+598303349+623462043
1080+648314153+671634683+692814631+711276195+726121049+733618478+729175130
1067+715581023+697825792+669871201+621385887+553038203+477132455+408343807
1053+357226840+329675631+327474577+349536319+393306932+454530279+526885931
1040+602363615+674604252+740070619+795669638+839181826+870839457+896023152
1026+921377741+945466572+963865527+977417698+988406620+997720900+1006239633
1013+1014493719+1022161348+1029125529+1035586377+1041366534+1046411083
1001+1050832849+1054783122+1058434450+1061686723+1064390149+1066459894
989+1068073316+1069464186+1070567545+1071529551+1072541345+1073252593
978+1073332084+1073100343+1072988586+1073180795+1073619061+1073741823
966+1073284325+1072602886+1071732978+1070321167+1067980150+1064751275
955+1061649115+1060226406+1060959770+1062710698+1064488016+1065946945
943+1066651462+1066605947+1066323029+1066155607+1065947052+1065272237
932+1064212470+1063262965+1062429169+1061293224+1059869340+1058447058
920+1056763547+1054335026+1051366419+1048235839+1044532585+1039748624
908+1034181403+1028344193+1022066686+1014826104+1006444984+996535166+983674584
895+965565492+940471063+907839139+866841159+818032756+767218392+725566752
881+707237511+723323763+771529043+834486651+893138309+938399929+970065360
868+991156629+1004793739+1013511733+1019283129+1023400823+1026332997+1027868959
854+1028654890+1029642324+1030244913+1030036999+1029444773+1028449325
843+1026987726+1025304642+1023529781+1021686435+1019751097+1017562651
831+1015255823+1013062996+1010589175+1007582318+1004216685+1000272396+995904905
818+991845013+987996347+983630779+978219334+971734447+964876253+959137765
804+956352712+957071759+960246572+964311700+967659490+969479117+970040893
791+969767698+968891700+967749023+966553567+965359821+964208811+962840912
777+961040729+958926965+956661379+954424533+952405538+950493172+948533260
764+946608180+944441102+941975934+939786205+937983566+936337557+934636844
750+932653748+930586995+928494065+926125056+923947293+922301391+920555484
737+918399304+916091729+913781055+911569638+909571156+907771401+905825166
723+903589495+902061653+901335341+899534197+896658008+893957895+891609452
710+889826792+888519739+887172407+885349414+883011923+880728814+878870724
696+877411261+875943518+874459695+873014655+871270351+869525994+868112099
683+866965897+865717608+864266105+862699586+860735294+856195841+848964502
669+851473421+866881973+865107914+855348583+850726221+849966841+849751073
656+849681038+849267399+848280178+847444833+847308716+846878730+845606027
642+844134010+843075259+842222766+841381331+840663352+839775708+838962960
629+838492214+838131729+837933216+837725195+837244245+837211391+837801106
615+837435599+836331707+836015080+836253392+836386089+836077316+835512655
602+835282197+835317508+835391550+835363611+835283853+835400792+835504268
588+835317027+835027539+834829614+834816686+835289249+836262473+837155139
575+837217481+836508584+836250347+836866451+837257333+836926069+836734288
561+837325819+837885404+837576684+837129123+837241681+837501254+837493668
548+837369571+837407233+837362519+836575894+835179094+834441991+834727740
534+834881005+834285627+833339701+832858217+833279068+833744739+833246909
521+832016141+831116157+830901244+830308324+829086638+828387196+828159302
507+827023731+824778284+823121965+823124155+823169830+822069517+820622554
494+819174844+817879063+817125880+816695093+815907720+814402368+812784833
480+811390490+809995346+808834720+808261352+808287742+808402544+808002474
467+806734205+804777285+802647922+800236176+797947245+796287773+794233734
453+791550235+788231880+783638632+778637621+773588317+768102670+763046315
440+758049311+752903315+749646501+748374920+747221880+746453151+747285985
426+749975040+754473413+759377144+763299584+767009409+769937042+770608491
413+769344816+767107757+765271996+764449633+763928564+763381265+762342119
399+760292247
##END=
