##TITLE=павел 11-многокр
##JCAMP-DX=4.24
##DATA TYPE=INFRARED SPECTRUM
##DATE=3/2/2015
##SAMPLING PROCEDURE=Instrument type and / or accessory
##ORIGIN=Default
##XUNITS=1/CM
##YUNITS=TRANSMITTANCE
##RESOLUTION=4
##FIRSTX=3996.3347
##LASTX=399.24773
##DELTAX=-1.928733
##MAXY=2.2548146
##MINY=0.84721559
##XFACTOR=1
##YFACTOR=2.0999598e-009
##NPOINTS=1866
##FIRSTY=1.369446
##XYDATA=(X++(Y..Y))
3996+652129656+652391752+652058867+651085533+650672380+650641272+650677659
3983+651495735+652291500+651940110+650810325+649058312+647790242+648728721
3969+650761221+651229552+650488340+651501695+654127586+655139181+654567249
3956+653983680+652231157+649565416+649954726+653804125+655113182+653961484
3942+655743868+657686392+656312847+653492131+651678923+654367428+658976999
3929+657469767+652582888+653030896+656016124+654779616+653730838+658143142
3915+662789215+661744183+657618441+652439152+645555819+643015875+649638418
3902+659000103+666475464+669679076+662626917+651785703+652781744+660018738
3888+656954149+655220756+661092096+660691602+662020584+665302876+658193495
3875+651353986+650084099+654607497+664098158+662528823+657180651+661137283
3861+663562671+656281625+640269638+631725347+659471443+690951473+684036975
3848+666279332+656307454+654116119+653564226+652661283+660380914+670303801
3834+668856119+664829947+664033273+661849998+658710817+651649518+648142994
3821+660056261+664925884+662746355+671749157+672526530+659331057+650008145
3807+655901340+661663858+656537873+662930793+672987140+668904996+666500668
3794+666550453+662356363+658941179+657669362+658173456+659383851+657656873
3780+658067926+663444254+664558087+658936694+652718675+653595845+660385001
3767+664792083+666294943+662755211+658174194+661473176+662559250+652258575
3753+643347680+653210565+668289296+660920204+656231727+676799072+681510314
3740+661110602+647971273+654843650+668634329+674794729+670725810+663056249
3726+661740777+666017805+669236574+670481597+667736098+659027238+647331731
3713+646115149+661396086+672355433+668902895+659505958+655844062+660983386
3699+663006918+659187833+654101416+646876286+641544180+650270694+666231477
3686+665666869+652426039+642204498+635425447+629151966+637643293+652865760
3672+649686955+649993839+660116832+656673320+646498386+641341633+637535889
3659+632988989+635515253+638469429+627625717+619803451+634517111+650910746
3645+648009988+637970273+632194586+629149696+625266804+621899134+617519244
3632+609929895+614064947+633132100+634932706+620657233+610491495+611719885
3618+619163512+619259336+614419459+611703763+609364775+610223212+612530353
3605+608748962+602582885+599722262+597693451+595447619+596402163+596891441
3591+590584127+585335525+591090947+597188732+593625271+587753420+584402269
3578+581693441+578862848+576156745+571244604+565223908+566267237+573489755
3564+574515996+569922774+566582693+563880451+560525837+557818883+556345995
3551+553969087+549599131+547588940+549310015+549435357+545287873+539708942
3537+536626074+536154620+535095567+532121125+528880841+526624166+524617551
3524+522908625+521655598+519571779+517141737+515650003+514169735+511889331
3510+509808465+508165105+505815559+503353499+501787343+499625583+496448992
3497+493907117+492401134+491322951+490043356+488206704+486216438+484146187
3483+481967964+480388525+478952650+476880469+474978732+473461850+471589689
3470+469212865+466885572+465195237+463958161+462674111+460989992+458955192
3456+456982127+455164349+453204965+451226223+450338097+450178637+448729450
3443+446244371+443950684+441859912+440243289+439040161+437306824+435113587
3429+433544394+432625783+431373097+429401791+427510131+426517552+425475076
3416+423435280+421290806+419798760+419170827+419280558+418863942+417147353
3402+414956755+413378535+412834845+412689549+412061645+411365648+411209055
3389+411086664+410595229+409896649+408880796+407616472+406782417+406462334
3375+406553219+407016072+406524125+404689175+403443727+403955286+405341461
3362+406190787+406086363+405653597+405330108+405214898+405623766+406321125
3348+406978577+408040269+409061856+409183792+408744242+408413317+408953373
3335+410697609+412873362+414707290+415872498+416490781+417100832+417884506
3321+418978698+420492429+421725701+422579796+423899950+425231714+425668227
3308+425887008+426786148+428375664+430299086+432113429+433663179+435040839
3294+436519829+438328666+440062485+441547435+443236578+445069797+446879060
3281+448874207+450308521+450508825+450853886+452523813+454846792+457215214
3267+459658540+461897248+463503085+464784638+466571960+469160639+472072666
3254+474495102+476066708+477186104+478484035+480433371+483118526+485946282
3240+488034641+489578942+491743370+494680119+497357554+499512389+502043023
3227+504854259+506865869+508535002+510976171+513928190+516693104+519054799
3213+521034051+522999055+525427168+528123847+530578414+533106210+536310560
3200+539784386+542783011+545077493+546727608+548476045+551089730+553859412
3186+555931139+558143138+561238041+564419798+567351608+570403027+573196495
3173+575325386+577023754+578869660+581305833+584037425+586474791+588656816
3159+590984791+593396612+595597201+597564986+599490594+601577535+603833188
3146+606284348+608936976+611350897+613170860+614690864+616270418+617953004
3132+619866406+622164011+624597289+626621843+628134467+629711920+631389397
3119+632687441+634093513+636153603+638224364+639778429+641219527+642769788
3105+644234615+645759047+647140198+647932614+648962205+651055844+653177299
3092+654200986+654883784+656151117+657248091+657578420+658046297+659242670
3078+660750129+662039317+662890885+663684267+664933604+666372488+667352009
3065+668002337+668825805+669864762+671098091+672088910+672342887+672291342
3051+672515687+673306514+674218710+674497040+674449866+674355576+674071171
3038+673963199+674217404+674547620+674702936+674480634+673836154+673136723
3024+672798502+672483443+671396461+669807711+668571430+667305403+665381215
3011+662933404+659980874+656643461+653219080+649033335+642911025+635192133
2997+627042603+618173148+607294524+593555277+576792199+557263925+535488171
2984+512417723+489520131+468883671+453369449+446023631+448594060+460666446
2970+480202838+503900112+527982894+550143928+569422313+585049134+597066455
2957+605903609+611575639+614724584+616100399+615435085+612831675+609240000
2943+605120048+600635252+596215057+592197968+588704671+585456326+582436867
2930+580392900+579761022+580872301+583883642+587569664+590680972+593087513
2916+594705782+595088338+593911549+591549230+588596529+585427034+582611541
2903+580310247+578317994+576918280+576297358+576095323+576185980+576796854
2889+577671754+578557269+579875351+581868171+584149313+586310449+588686676
2876+592044526+596746400+602821422+610048766+617654578+624797678+631457007
2862+637827957+643407854+647866707+652096731+656728044+660843114+664103380
2849+667335149+671074646+675262322+678937274+681437538+683418948+685611078
2835+688137512+690842934+693525421+696043851+698376538+700495779+702754214
2822+705564655+708326106+710238714+711227716+711868960+713037120+715017054
2808+717258686+719180320+721195676+723838029+726326599+728091385+729632904
2795+731008378+732037231+733023849+734278863+735882996+737466353+738510703
2781+738918861+739092967+739626864+740299558+740785374+741587724+742557028
2768+743303009+743948114+743985807+743481826+743360571+743554942+743747554
2754+744098490+744531683+744801271+745046109+745747186+746558109+746787960
2741+746935839+747560678+748383692+748965785+749154537+749496958+750294767
2727+750969278+751482909+752364621+753541353+754743743+756128244+757423620
2714+757988115+758373793+759302394+760214760+760811499+761377924+761934585
2700+762771280+764086184+765444572+766685848+768004385+769280119+770418022
2687+771471795+772168502+772447343+773016891+774191181+775333285+776051166
2673+776426171+776577116+776907446+777627086+778403040+779156173+779819330
2660+780087727+780336992+780976534+781640997+781949925+782040696+782360978
2646+782853151+783171616+783594704+784269725+784652111+784647456+785011392
2633+785930399+786593329+786625573+786572212+786728719+786870354+787277206
2619+788256898+789327816+789762654+789265031+788638319+788773709+789223874
2606+789419211+789595190+789960205+790564380+791433262+792172715+792457346
2592+792421924+792515420+793045854+793306019+793054313+793208550+793856550
2579+794477585+794871040+795079604+795019771+794462655+794092078+794507558
2565+795096293+795440701+795488954+795262224+795460797+796256279+796352045
2552+795164755+794211346+794604517+795310931+795402213+795404540+795807078
2538+796546985+797377378+797886866+797902363+797740747+797839579+798257273
2525+798719247+799107309+799594884+800231020+800660919+800726088+800644684
2511+800543865+800825829+801662013+802283786+802152143+801532469+801051309
2498+801484898+802891254+804157281+804833779+805629544+806272151+806394542
2484+806844367+807679245+808102560+808231308+808677160+809377159+810166112
2471+811160621+812005206+812331221+812312204+812529396+813580729+814918851
2457+815359763+815015866+814983963+815650015+816442999+816975875+817566823
2444+818366052+818940141+819200079+819558622+819876349+819699291+819205869
2430+819023589+819629695+820525711+820758061+820465935+820262822+820111934
2417+819829857+819745784+820184199+820656049+820700612+820926319+821847598
2403+823088817+824158883+824662410+824729736+824966116+825502511+826008081
2390+825928096+824639249+821543211+816681309+811601590+808447195+807855281
2376+808254186+807863910+807117248+808926766+814961994+823385029+833398631
2363+845353054+858669214+873011786+885599563+893230920+897008224+885464911
2349+853213752+820285358+813675020+834216196+850414097+856070913+859222186
2336+858857114+854817602+854740966+861252699+865530749+864359580+864470277
2322+868490431+870795586+868182922+862990747+859349799+859900272+862176305
2309+862323049+860247632+857391607+854799209+853367705+852772896+852298548
2295+852042697+851687106+851010495+850692995+850832416+850497885+849222492
2282+847783722+847154285+847566870+848572789+849275569+849290215+849270744
2268+849607772+849848977+849528525+848760802+848210045+848346854+849016256
2255+849754800+850235733+850547670+850962300+851457084+851693975+851562501
2241+851454587+851866945+852532146+852700404+852648122+852967438+853293681
2228+853358906+853384565+853260301+852950749+853126103+854134179+855221843
2214+855706863+855737631+855630625+855636472+855893799+856041337+855912418
2201+855994334+856377230+856669014+856935708+857482094+858057489+858208944
2187+858092684+858150474+858436070+858669385+858659337+858663992+858971671
2174+859241146+859198741+859218098+859468102+859687168+859667185+859365580
2160+859061193+859241089+859950057+860533229+860592608+860487872+860413166
2147+860238663+860101797+860226174+860554120+861050607+861665796+861862154
2133+861702013+862162454+863213219+863977762+864288167+864581200+865229541
2120+865897750+866001748+865883218+866245848+867269535+868476069+868992709
2106+868814517+868720850+868899441+869180950+869561065+869949751+870148948
2093+870216785+870534058+871138631+871705511+872268871+873070427+873855066
2079+874203164+874440224+875035374+875659475+875903915+875983390+876424416
2066+877465984+878339862+878375228+878499378+879219132+879797876+880323656
2052+881131854+881813971+882244609+882524188+882738826+883446205+884604203
2039+885345245+885582930+885640776+885776904+886432341+887374566+888000768
2025+888317360+888421698+888242313+888511902+889955724+891484641+891823145
2012+891528976+891599595+892143938+892737384+893078216+893332988+893710662
1998+894212031+894403338+894464192+895923626+898201248+899216874+899150342
1985+898829209+898647951+898698814+898858671+899229249+899706379+900062368
1971+899906712+899921868+901423423+903236234+903566847+903179523+903344376
1958+904032681+904870057+905540594+905652482+905298027+904751867+903710242
1944+903703260+906383647+908147581+906899890+905477582+904952824+904644066
1931+903983918+902890237+901676720+901662982+903474430+904259978+905487914
1917+909729972+911639855+910193421+910345842+912795129+915175898+916253059
1904+916610580+916851104+916649580+916268103+916941364+917685926+917261703
1890+918981869+922345395+922634909+921387275+921091176+921413274+922011659
1877+922573600+922281929+919638384+918272787+923799209+929945076+929015226
1863+925574610+924068627+923910530+924206061+924585494+924720430+924184319
1850+923059643+920665874+921267666+929618834+934116062+929841930+926824685
1836+926928229+924843048+922008651+925287310+930074563+929990774+930823665
1823+931534621+929048946+927587582+927954016+927255095+926152842+927839743
1809+930277109+929597319+926762752+925136025+927368744+930861132+929403061
1796+923322135+922951160+932888126+937479077+931435732+927421594+928238875
1782+928491490+928748816+927802049+921896138+917908227+926186960+936265787
1769+936689045+932765452+926259054+924083103+928255905+928114895+926549022
1755+924109613+918180143+919679768+928185059+929942011+925745650+921375637
1742+920590601+923879762+919671934+913719757+928216281+942897754+938067415
1728+930819011+926295329+923693451+919295736+911648711+915319406+933062459
1715+940528509+934273932+925756890+919246803+919140704+920274236+912935288
1701+914911929+930606927+934910749+937448196+935651223+924064880+915185832
1688+905786453+904496471+925675712+935127374+921849475+908298468+908016164
1674+913949381+910954105+910919988+918464207+914504566+906500020+909878078
1661+914112871+906812070+890786061+886367058+918995039+936114616+918722328
1647+915197696+927413477+925844709+916067032+907258205+906432353+924460208
1634+938297891+930667896+922411189+922629743+924271741+929536180+935998186
1620+931259980+928349912+942633161+951033831+944718115+940631883+942361416
1607+944204483+944780105+945956666+947473322+947933592+948249957+949842396
1593+951831640+953039196+953994251+954875849+955439550+956154138+955345770
1580+949965014+950189188+965962526+971592150+962138786+963167639+971001656
1566+969387758+960383311+945576609+945560487+979542313+994489742+984008206
1553+976177141+972371340+968514335+962105293+956485092+955909698+969318615
1539+992869827+990482189+974861159+973653489+976217673+968946335+963799460
1526+963192503+961865054+968453593+977232334+976833599+974850032+971001769
1512+962430003+951917018+952268919+976472332+986945239+970275714+954202361
1499+951074136+957412331+957000540+944800541+936907884+940064833+941778528
1485+936930761+931556022+928892608+926201379+922329160+920519869+925880075
1472+933750593+927583779+912381749+905446928+905245744+895206653+878479850
1458+877101651+893763115+896942771+887970795+883250016+886350993+892452014
1445+895425832+895656705+892922616+889944484+896991251+904867502+900050674
1431+894544348+894558086+892762532+889430001+886361268+883294465+888490727
1418+898541682+898780219+894827844+894760121+896174765+896079623+897415984
1404+900823562+901095932+900594789+902322222+903581210+905325161+903728691
1391+895384733+888179074+885618466+881268834+875357245+873402573+875855720
1377+881339339+891488274+905120799+916540416+925936956+934112713+938640085
1364+943024005+948870992+950841900+948886490+947533949+947743080+947645951
1350+946736197+945455013+943994217+941870945+939363188+938866814+940445856
1337+940848053+939261007+937645576+937293448+937874803+938589051+939331966
1323+940298715+941880369+944514320+947084067+948732423+950559936+952917714
1310+955349971+958100125+961207119+964201828+966941877+969573388+972089660
1296+974301432+976011607+977300909+978258348+978956701+979386998+978964535
1283+977264805+974698577+972066385+970091560+969427949+970821589+974531340
1269+979450123+984184639+988764407+993400943+997416329+1000579296+1003342053
1256+1005764318+1007470747+1008711342+1010116222+1011587179+1012857293
1244+1014046684+1015310668+1016720543+1018016884+1018837741+1019369084
1232+1020030424+1020870695+1021684399+1022481414+1023404112+1024327717
1221+1025140173+1025773924+1026302883+1027248628+1028528847+1029487421
1209+1030225965+1031011172+1031577371+1031763114+1031795244+1032001650
1198+1032415258+1032851799+1033350671+1034007924+1034566175+1034769629
1186+1034916316+1035217184+1035343889+1035324134+1035540417+1035985928
1175+1036082887+1035163709+1033795387+1033016879+1032311033+1030820888
1163+1028980375+1027579469+1026854662+1026622597+1026579567+1026503158
1151+1026338306+1026069909+1025762684+1025535047+1025149028+1024249038
1140+1022635708+1020465830+1018417775+1016553647+1014453593+1012482855
1128+1011100910+1010123715+1008952263+1007088816+1004734217+1002200914
1117+999101413+994782207+988631231+979998156+968603687+954109262+935442887
1103+911474946+881943912+848049336+812737676+780380760+755588272+741837671
1090+740339636+749520630+766535301+788675899+812957025+836562393+857762128
1076+875753425+890320568+901199419+907441905+907794885+901468667+887275621
1063+862199126+822652332+767735875+702328969+637634948+586682048+558460014
1049+556067665+578101086+620109825+675702950+737447620+797754825+850907349
1036+894369504+928306939+954729276+975870143+993023439+1006896374+1018093520
1022+1027315500+1035076741+1041310371+1045959736+1049680727+1053026485
1011+1055942286+1058612285+1061069973+1062888574+1064108620+1065091264
999+1066154063+1067502516+1068922156+1069998693+1070530831+1070781289
988+1071115762+1071587954+1072161759+1072726481+1073083435+1073121242
976+1072955708+1072863518+1073104438+1073583442+1073741823+1073507828
964+1073263614+1073015087+1072547437+1071507685+1069794217+1067997528
953+1067208461+1067944962+1069412172+1070867235+1072030399+1072596484
941+1072751686+1072891901+1073155302+1073336617+1073120106+1072688901
930+1072442530+1072378837+1072215234+1071973064+1071954671+1071925152
918+1071360657+1070511189+1069853936+1069027403+1067558943+1065719565
907+1063857026+1061731427+1058892602+1055216344+1050434939+1043579024
895+1033494633+1019097735+998963128+971953191+939143895+904651673+875908003
881+863408215+874706180+906978229+948334086+986368141+1015081554+1034741019
868+1047607126+1055533674+1060073478+1062770385+1064667324+1065925517
856+1066251362+1066156788+1066402931+1066624324+1066522143+1066184377
845+1065539386+1064786082+1064046289+1063246550+1062400602+1061507082
833+1060513426+1059561095+1058777819+1057695378+1055949212+1053819752
822+1051457320+1049096136+1047167520+1045364246+1043049725+1039969752
810+1036295083+1032485990+1029294412+1027885672+1028527257+1030436346
798+1033018241+1035398953+1036777947+1037321211+1037326320+1036768864
787+1035902366+1035196748+1034767018+1034349778+1033628150+1032554111
775+1031289560+1029964495+1028748423+1027743753+1026678229+1025468402
764+1024446929+1023416600+1022077798+1020648962+1019360569+1018379855
752+1017571146+1016559891+1015343479+1014083015+1012753295+1011510316
741+1010537890+1009575910+1008369602+1006882409+1005199255+1003570485
729+1002239629+1001193747+999812822+997951419+997115689+997442669+996598765
716+994562177+992670800+990854697+989390779+988583206+987948773+986797076
702+984923751+983035440+981829586+981151216+980135760+978864738+977793763
689+976702126+975727657+974855596+974041324+973177891+972018133+970574311
675+968895812+964555261+956982602+960072339+977860408+976383320+965587861
662+960306447+959412361+959384204+959721516+959775786+959122847+958514981
648+958623066+958132937+956513362+955106552+954574641+953920000+952676112
635+951455329+950393040+949598467+949032212+948539641+948177975+947494155
621+946208998+945471986+945877646+945551915+944201248+943453961+943309715
608+943144409+942602961+941797942+941441500+941498665+941360266+940814674
594+940065912+939400030+938931528+938497087+937904209+937129674+936461465
581+936388632+936908622+937489125+937230777+936038207+935332928+935377718
567+935002656+934268369+933998951+934394904+934722735+934206606+933496389
554+933289699+933145737+932795255+932469864+932074819+931072477+929232532
540+927242550+926395864+926793690+926944124+925971811+924430576+923619597
527+923863924+923744882+922555889+921014313+919909676+919345010+918519669
513+917201075+916150253+915423403+913879954+911051802+908732342+908322254
500+908054652+906757801+905271403+903510421+901657135+900507595+899941510
486+899097889+897103707+894739117+893180340+892000032+890756769+890084756
473+890355253+890756996+890559105+889522021+887982375+886400892+884619417
459+883402550+882656513+880903876+879064214+877348419+874437159+871022939
446+867337428+863527483+861403076+859807060+857030453+854955263+854033190
432+852538106+850717916+849948377+850921257+852811271+853887184+854264858
419+854805340+854466325+852664698+849869073+846540061+843624487+841953594
405+841130694+839194074+834633266+830201661
##END=
