##TITLE=павел 11-многокр
##JCAMP-DX=4.24
##DATA TYPE=INFRARED SPECTRUM
##DATE=3/2/2015
##SAMPLING PROCEDURE=Instrument type and / or accessory
##ORIGIN=Default
##XUNITS=1/CM
##YUNITS=TRANSMITTANCE
##RESOLUTION=4
##FIRSTX=3996.3347
##LASTX=399.24773
##DELTAX=-1.928733
##MAXY=2.238723
##MINY=0.86026132
##XFACTOR=1
##YFACTOR=2.0849733e-009
##NPOINTS=1866
##FIRSTY=1.3095039
##XYDATA=(X++(Y..Y))
3996+628067471+628740541+629707835+629736366+628860609+627712240+627312813
3983+628266213+629126875+628820701+628204578+627940485+628203149+628983308
3969+629709436+629365183+628478277+629294399+631395083+632100342+631380789
3956+630840138+630535736+629678047+629940882+632536419+633020181+631341681
3942+632733160+634395708+632743966+630086966+628438083+630183821+634237274
3929+634178155+630797085+630953688+632801770+631224128+630771298+636054653
3915+641118111+639732121+635379182+630802974+624797379+622563248+628626304
3902+636911999+643428971+646976079+641849728+632501771+633071238+638914055
3888+634726925+632013492+637363228+637484954+639259909+642462135+636414801
3875+631601315+631285020+635343333+644253270+642812220+637552021+640732634
3861+642164193+634341677+618454105+610384248+637429837+667601437+660621287
3848+643429486+634308286+632799026+632362034+631469925+639197759+649120559
3834+647814900+644042121+643504329+641139552+637407482+630185079+626718417
3821+637974891+642358704+640224459+649140856+649997802+636951050+627357238
3807+633020066+639679977+635504568+641088208+650244914+646924564+645591004
3794+646095463+641690666+637498962+635861114+636885127+638518401+636714973
3780+637075292+642368710+643068709+637608282+632916464+635091133+641042697
3767+643873796+645051897+641744811+636828008+639895071+641841609+632676099
3753+623776683+632903543+648151607+641439837+636228638+655197966+659288184
3740+639297416+626582282+633734931+647748748+654140621+650584479+643435089
3726+641885177+645316962+647899577+649197060+646878824+638472031+627408181
3713+626801321+641322799+650728676+646810328+638458767+635882384+640662880
3699+641408791+636859912+632131846+626138829+622325398+631391709+646418561
3686+645637145+632805258+622691893+616343073+611625241+621319339+635572721
3672+631126873+631466724+642310791+639463168+629618127+624660100+621013507
3659+616481953+618745872+621494810+611090479+603946578+618671315+634998737
3645+632244424+622099727+616807052+614792475+611148226+607360010+602895750
3632+595379980+599128460+618218028+621357360+608439025+598333835+598518112
3618+605484255+606102436+601160761+597599417+595213028+596852305+599658133
3605+595574091+588677874+586037969+585312984+583634542+584245061+585027278
3591+579900641+575606022+581417563+587283707+583693261+577793726+574789042
3578+572848679+570423582+567606547+562709470+557214394+558664307+565710838
3564+566554576+561858356+558627200+556279176+552624921+549162719+547768781
3551+546264495+542591944+541120877+543389142+543641686+539632486+534640440
3537+532034897+531662685+530465031+527581044+525003518+523248060+521238514
3524+519381170+517974539+516419081+515025315+513470372+511110112+509091189
3510+508343392+507285417+504242368+501115614+499756668+498212988+496040778
3497+494694697+493261651+490891957+488554168+487144964+486182816+484415580
3483+482251203+480707180+478657640+475881457+474496382+474344153+473148271
3470+470582751+468356939+467194134+465951111+464258832+462706461+461270214
3456+459542343+457606154+456018763+454584660+453393638+453018081+452602272
3443+451054133+448342215+445469864+443768980+442981731+441595341+439344829
3429+437496547+436476394+435227853+433500955+432292008+431481318+430177260
3416+428623374+427241043+426105310+425614259+425780182+425251109+423250111
3402+421379673+420482362+419651174+418453891+417083853+416272505+416108154
3389+415940344+415990287+416227079+415831139+414882798+414327510+414438602
3375+414863587+415060814+414305469+413015505+412600640+413212618+413676310
3362+413700553+413967019+414324051+414153239+413504184+413127598+413982771
3348+415962671+417522417+417557666+416790400+416491229+417097003+418510066
3335+420300858+421730988+422428071+422743994+423120351+423681986+424662688
3321+426030639+427037642+427653964+428750990+430164310+431102302+431712164
3308+432490179+433518765+434865218+436424193+438031280+440018727+442130560
3294+443644023+444805113+445978554+447072234+448177064+449450333+450961394
3281+452574114+454072282+455587088+457189259+458807581+460839854+463300743
3267+465474125+467241990+468907996+470575890+472387894+474206989+475771738
3254+477200124+478585285+479750806+480938283+482835365+485478929+488082299
3240+490050278+491661939+493555590+495668337+497567592+499745233+502856321
3227+505937677+507843106+509263631+511262656+513770543+516205645+518260531
3213+520095920+522490428+525801230+528878527+530891789+532610254+534976860
3200+538049869+541188973+543727277+545399202+546707834+548581645+551045278
3186+553486498+555972429+558619424+560790605+562403124+564422275+567387737
3173+570689619+573289901+574866114+576182922+577905618+579747640+581644493
3159+584096805+586904177+589341166+591209088+593040932+595352307+597872144
3146+600054188+601807416+603219992+604371735+605638971+607289455+609289452
3132+611589221+613670064+615101852+616244960+617621860+619573544+621485148
3119+622442322+623113104+624384858+625995090+627345117+628348089+629746943
3105+631707318+633447510+634756656+635796963+636870318+638643157+640889695
3092+642572655+643517193+644225254+644808329+645229827+645671793+646258184
3078+647339315+649044916+650443084+651205462+652097227+653112149+653878814
3065+654603742+655295965+655950681+657156511+658488356+658577321+657856796
3051+658027179+659524090+660976689+661219628+660933121+660838153+660665598
3038+660350847+660267771+660470286+660592013+660420715+659972402+659672003
3024+659802534+659529064+658249763+656788416+655703512+654391449+652627758
3011+650511695+647860641+645069850+642484490+639361167+634491305+627700862
2997+620011164+611905172+602595694+590663749+575471374+557735892+538076170
2984+516963563+495712363+476439633+462111465+455570622+457995261+468933154
2970+486632158+508026125+529742905+549661746+566967554+581192464+592180156
2957+600119196+605086142+607470873+608220672+607687053+605717530+602721365
2943+599000101+594773577+590790049+587334193+584207211+581328198+578702130
2930+576781549+576338039+577876402+580953413+584133912+586648774+588796856
2916+590333503+590512119+589442595+588037623+586472617+584126822+581218764
2903+578407047+576052333+574653536+574284926+574524434+575104136+575773603
2889+576079263+576153591+577053761+579136835+581460445+583325279+585398118
2876+588832819+593704625+599513365+606106266+612924896+619108993+624767533
2862+630269984+634871121+638199647+641512736+645440690+649054464+652032619
2849+655079384+658864056+663318596+667276395+669955122+672062094+674236534
2835+676117435+677732698+679779580+682508964+685399297+687544749+689172934
2822+691260639+693542625+695227414+696127985+696755028+697786016+699435413
2808+701409510+703192527+705186578+707707272+709693604+710918702+712219616
2795+713567870+714708520+715922927+717366950+718804798+719933270+720763286
2781+721416916+721961912+722484210+722818229+723219829+724227146+725208391
2768+725464938+725428002+725346699+725172600+725185636+725516167+725975057
2754+726314565+726626686+726990379+727197525+727512276+728136918+728936803
2741+729920792+730686429+731022620+731273335+731497062+731865386+732605923
2727+733297174+733713411+734309122+735121986+735891796+736924156+738075555
2714+738848453+739918663+741360456+741882754+741709227+741812486+742101908
2700+742831638+744222717+745764224+747199499+748418766+749400011+750375253
2687+751319620+751984456+752484455+753215958+754129450+754883651+755315212
2673+755480048+755804405+756550602+757386278+757903373+758145454+758384676
2660+758570610+758819552+759535846+760432929+760853169+760938131+761195592
2646+761493991+761838187+762749335+763931838+764513770+764574890+764744644
2633+765059567+765375861+765697416+765892156+765906278+765896844+766226803
2619+767155276+768419711+769196611+768819310+768047098+768092724+768611534
2606+768664536+768454187+768698441+769592036+770808901+771719477+771957499
2592+771779054+771803411+772258756+772513873+772510614+772965273+773829309
2579+774581166+774742058+774335655+774084483+774192201+774338342+774337884
2565+774357839+774833996+775402663+775448918+775430622+775691570+775575390
2552+774834167+774417072+774857952+775215185+774917472+774851777+775686139
2538+776991226+778007691+778272699+778046456+777916382+777932391+778037765
2525+778445026+779026271+779495339+779822897+780056344+780351598+780622724
2511+780629300+780793793+781355371+781655256+781290133+780828384+781021466
2498+781791562+782617061+783200079+783794533+784825921+785699847+785987669
2484+786498531+787418827+787927174+787921800+788225687+789106018+790087777
2471+790881430+791290520+791217393+791129057+791577369+792541748+793564559
2457+794051351+793896577+793896463+794590687+795413499+795936369+796491256
2444+797230821+797989196+798606062+799009435+799146827+798830990+798233564
2430+797997715+798457406+799089766+799373585+799689480+800151743+800171240
2417+799846140+799933847+800485648+800835790+800905373+801278557+802056543
2403+803024295+804064259+804704681+804786614+804686442+804687929+804991988
2390+805135384+803989874+800822926+796002292+790982745+787547529+786367657
2376+786238669+785856451+785613570+787738324+793699436+801621552+810539779
2363+821596196+834857356+849630521+863528958+873309677+877909785+865797623
2349+833431229+800745739+793246721+811766879+827452163+834190347+837999204
2336+837493145+832893665+832142837+838837111+844382043+844069008+843808802
2322+847051565+849071345+846827380+842124013+838352149+838279764+840327274
2309+840911951+839349060+836836542+834635973+833415220+832635690+832008361
2295+831827858+831516423+830771427+830277488+830212651+829852160+828817742
2282+827890585+827823404+828418428+829164282+829636837+829724430+829757420
2268+829874630+829881948+829738552+829457021+829184408+829379948+830158792
2255+831012536+831432032+831496355+831664679+831995553+832222140+832358618
2241+832610704+833079200+833461189+833444665+833396581+833569879+833784116
2228+834171365+834764561+835107956+835008071+835035458+835678110+836386742
2214+836480224+836189487+836080511+836442488+837033511+837233740+837124877
2201+837309611+837687655+837883996+838063355+838598460+839321444+839610752
2187+839327276+838930993+838926647+839296287+839592398+839829105+840188510
2174+840512237+840705662+840777531+840858663+841054318+841162208+841073014
2160+841008920+841329789+842017895+842369353+842161063+842086906+842277529
2147+842287020+842277987+842684161+843318637+843722181+843803885+843590220
2133+843422811+843962947+844946365+845592447+846002681+846514116+847122577
2120+847776035+848209311+848414742+848808567+849490670+850174774+850538810
2106+850676146+850875631+851099758+851369855+851801930+852209534+852241438
2093+852096384+852396383+853024055+853492665+853893808+854513933+855193521
2079+855552354+855865332+856600380+857453438+858022391+858280709+858508210
2066+859201634+859921759+860104549+860496658+861182878+861484536+861800830
2052+862651201+863698369+864453828+864868293+865138218+865593792+866288074
2039+866836958+867227467+867484985+867686071+868326550+869274519+869909796
2025+870282122+870640327+870765141+871067084+872269427+873566509+873851643
2012+873612650+873808075+874567422+875458845+876107901+876464561+876605670
1998+876677940+876508700+876473823+878137114+880592857+881443742+881203205
1985+881037854+881113097+881414011+881940082+882529333+882750830+882699544
1971+882503146+882811837+884628129+886583930+886843964+886280671+886340362
1958+887079527+887944134+888501823+888646649+888575694+888305711+887474152
1944+887632528+890303650+891937553+890617258+889235441+888868203+888764544
1931+888327266+887477868+886383473+886249225+887723265+888132069+889220461
1917+893687922+895959160+894553502+894409705+896585574+898746864+899647777
1904+900029080+900417187+900361212+900051607+900583282+901054236+900468702
1890+902207236+905757775+906294366+905248513+905116323+905473784+906004144
1877+906552456+906247539+903491111+901849775+906967607+912969143+912353935
1863+909376009+908242391+908292762+908615918+908897850+908924265+908330098
1850+907071895+904526387+905140909+913599330+918247866+914022029+910915229
1836+911100535+909117633+906104544+909245077+914197443+914368626+915323742
1823+915957532+913356106+911907280+912387497+911774633+910583211+912081265
1809+914514595+914008078+911299391+909759770+912136039+915838836+914653703
1796+908713803+908188303+917897323+922486111+916582117+912656221+913599902
1782+914108192+914562737+913712252+907977383+904212265+912426776+922246260
1769+922761296+919078397+912472574+909843304+913719227+913920428+912917971
1755+910738728+904854402+906288877+914642668+916292351+912147303+908065604
1742+907564633+910942330+906868465+900914156+914865538+929129041+924576674
1728+917844608+913661880+911173833+906841364+899274593+902921815+920554953
1715+928117321+922249061+914044499+907429013+907039419+908318549+901538626
1701+903791854+919330884+923681478+926401886+924713781+913328891+904823814
1688+895914849+894891123+915889665+925227617+912072746+898553153+898111587
1674+904082534+901539198+901993343+909895962+906178071+898214217+901495630
1661+905642966+898370020+882619670+878493546+910710083+927255973+909953080
1647+906655086+918851010+917157473+907206715+898121135+896991863+914812536
1634+928567578+920903323+912641184+912872859+914384349+919278854+925380447
1620+920555582+917711503+931995703+940403697+934175460+930074437+931645790
1607+933439612+934168199+935481233+936986720+937329029+937542866+939152812
1593+941192832+942425992+943409982+944310209+944945200+945797114+945147487
1580+940023651+940471907+956098415+961493148+952064172+953189557+961168505
1566+959751812+950859714+936198328+936355675+970191135+984924448+974341729
1553+966347572+962604867+959228371+953364056+947949427+947232732+960484115
1539+984060756+981741262+966146315+965000290+967693711+960593663+955728890
1526+955427175+954244787+961009786+970139791+969866607+967727673+963917844
1512+955623859+945286366+945568984+969607602+980249669+964069702+948567322
1499+945958349+952671890+952561313+940820506+933805535+938036804+940206670
1485+935243726+929792390+927224240+924727732+921011670+919252382+924876960
1472+933236125+927387248+912510024+906215521+906942164+897860758+881852032
1458+880941342+898078254+901466242+892209365+887147165+890083239+895924455
1445+898535314+898602896+895945781+893104618+900265672+908236845+903523644
1431+898177968+898440289+897004384+894083348+891290727+888255797+893301474
1418+903161037+903232278+899013587+898594434+899839829+899827194+901216671
1404+904519354+904724900+904256747+906068123+907572466+909669776+908260458
1391+900043603+893318969+891686096+888301995+882954832+881015956+883076159
1377+887913545+897149324+909534899+919460157+927534760+934909364+938966649
1364+942998833+948678871+950629354+948826269+947696597+947882246+947678015
1350+946868296+945739538+944405692+942501464+940255784+940036745+942005467
1337+942758182+941318104+939837717+939642348+940194034+940763216+941398206
1323+942268074+943769101+946324901+948717693+950154798+951870919+954130493
1310+956373429+958815393+961451753+963942430+966331563+968811948+971335902
1296+973596962+975287183+976468656+977375230+978118968+978486149+978035492
1283+976724459+974774548+972485586+970576040+969940935+971260087+974675977
1269+979164707+983433198+987490825+991612146+995310826+998206534+1000532431
1256+1002712074+1004591088+1005874905+1006905093+1008027790+1009256262
1244+1010526929+1011723382+1012940419+1014216918+1015187872+1015767288
1232+1016286326+1016973804+1017867571+1018903247+1019963737+1020830860
1221+1021422626+1021900498+1022586604+1023743606+1024953096+1025753438
1209+1026429480+1027187055+1027821474+1028214040+1028464240+1028699346
1198+1028882421+1029093513+1029687795+1030653031+1031396769+1031667438
1186+1031860348+1032052915+1032061148+1032191622+1032669152+1033275326
1175+1033510545+1032855772+1031830045+1031209691+1030517639+1029358007
1163+1028222617+1027363498+1026778136+1026579166+1026665500+1026751378
1151+1026631881+1026210841+1025690659+1025440116+1025370133+1024938687
1140+1023641720+1021771968+1020146927+1018677633+1017019201+1015500621
1128+1014339617+1013396793+1012285646+1010755974+1008955176+1006812240
1117+1003917904+1000013050+994738385+987356806+977587465+965115441+948653085
1103+927216979+900873104+870577148+838766099+809441267+786879834+774224734
1090+772680883+781023581+796575704+816645889+838532937+859823989+878960212
1076+895074027+907988132+917706014+923410009+923806864+918204413+905648684
1063+883427216+848135040+798596342+738935760+679354194+632024356+605609011
1049+603363846+624079369+663246555+714509550+771039147+826047591+874268681
1036+913452104+943764412+966954089+985466586+1000772225+1013131614+1022918793
1022+1030912379+1037616429+1043101041+1047438485+1051027503+1054080443
1011+1056519091+1058680437+1060768713+1062458591+1063741951+1064817307
999+1065801982+1066925594+1068147777+1069124791+1069715985+1070156808
988+1070578305+1070879506+1071238339+1071788138+1072221070+1072233649
976+1071954518+1071801631+1072101574+1072771556+1073225872+1073206318
964+1072971441+1072605289+1072100316+1071254233+1069798890+1068208840
953+1067673335+1068546518+1069805408+1070892427+1071890253+1072516782
941+1072733820+1072909120+1073259948+1073646340+1073741823+1073492652
930+1073223013+1073107175+1072898828+1072631590+1072769383+1073115066
918+1072889566+1072187566+1071663495+1071009179+1069601634+1067855839
907+1066338746+1064655157+1062290152+1059298961+1055448309+1049696687
895+1040876116+1028193686+1010719953+987326846+958488235+927696681+901807408
881+890483867+900696604+929784214+966667526+1000210877+1025402838+1042660905
868+1053983474+1060950074+1064928685+1067377738+1069227249+1070486482
856+1070806092+1070736681+1070950975+1071003919+1070870357+1070793514
845+1070452405+1069910267+1069302721+1068561384+1067756125+1066948007
833+1066117134+1065320451+1064680200+1063878029+1062520340+1060739668
822+1058678722+1056627038+1054929270+1053272097+1051353746+1048982909
810+1045882856+1042433346+1039693156+1038679321+1039285495+1040910993
798+1043338777+1045569191+1046675651+1047110641+1047248205+1046889601
787+1046305382+1045970792+1045805097+1045406699+1044653698+1043814019
775+1042926313+1041800872+1040621685+1039679434+1038870858+1037981323
764+1036974692+1035739016+1034368749+1033128842+1032022726+1031131246
752+1030407977+1029551145+1028497402+1027285968+1026077165+1025261500
741+1024688259+1023711245+1022345095+1020999642+1019674772+1018334351
729+1017221717+1016410740+1015319604+1013710915+1012939733+1013221722
717+1012288047+1010114808+1008251003+1006695602+1005482339+1004787085
706+1004225394+1003186973+1001519623+999903616+998798414+998080862+997202304
692+996198075+995408482+994580124+993588587+992434558+991432958+990623240
679+989740908+988589166+986867727+982266247+974677692+978203702+996314370
665+994748334+984106382+979148355+978344240+978234348+978462593+978257447
652+977290725+976539325+976662938+976289125+974737383+973094390+972216403
638+971580155+970721380+969759003+968501486+967354661+966630476+966053004
625+965580506+964975361+964055751+963537742+963647061+963112356+962116131
611+961693719+961304812+960621336+959883430+959112591+958426885+957869768
598+957385149+956866453+956334493+955982520+955707106+955083265+954195616
584+953490300+953045761+952961255+953310197+953616200+953082696+951843189
571+951274122+951555025+951261486+950200196+949592077+949935873+950132328
557+949203513+948113463+947732617+947520840+947180646+946802030+946226101
544+945296371+944004321+942602150+941896490+942018732+941704152+940322450
530+938647210+937840178+938036804+937873168+936709648+935256991+934029949
517+932939441+931556710+930020006+929205198+928892734+927434646+924503604
503+922174733+921715157+921286970+919600523+917625454+915778230+914207106
490+913226318+912630550+911896131+910319975+908190133+906225127+904660749
476+903701288+903214039+902944685+902910266+902952404+901860810+899331654
463+897185859+896215535+896217250+896126627+894295812+892113596+890124977
449+886870665+883519211+880820644+878137172+875957815+873207962+869670745
436+868057254+868222434+867354511+865277898+863470010+862834562+863419524
422+864130272+865091335+866508543+865524667+862641424+860092656+857424164
409+855068993+853761847+852299471+850287238+847911998+845668091
##END=
