##TITLE=павел 11-многокр
##JCAMP-DX=4.24
##DATA TYPE=INFRARED SPECTRUM
##DATE=3/2/2015
##SAMPLING PROCEDURE=Instrument type and / or accessory
##ORIGIN=Default
##XUNITS=1/CM
##YUNITS=TRANSMITTANCE
##RESOLUTION=4
##FIRSTX=3996.3347
##LASTX=399.24773
##DELTAX=-1.928733
##MAXY=2.2803397
##MINY=0.83894199
##XFACTOR=1
##YFACTOR=2.1237319e-009
##NPOINTS=1866
##FIRSTY=1.4367154
##XYDATA=(X++(Y..Y))
3996+676505067+676284974+676452472+677007336+676925047+675595617+675284983
3983+677533854+679487360+678697751+677033606+676834787+677764950+678316840
3969+677854986+676387808+675075386+676133754+678919641+680355160+680051037
3956+678918069+676764341+674431496+674713503+678225176+680262879+680534053
3942+683102709+684689448+682535158+678996261+676313545+678034103+682331792
3929+681974961+678818435+679702458+681958290+680574749+680348930+685439034
3915+689666222+687493072+682784441+678086362+672050433+669942508+676163953
3902+684573760+691639430+695320902+688870607+677803737+677838763+684757704
3888+682047484+680271468+685572516+684892870+687009158+691396827+685137999
3875+678974763+677104725+680292629+689397462+687821557+682368053+686379975
3861+688640522+681084708+665233371+657279525+685877650+718042738+710788521
3848+691867887+681221782+679486518+679228199+677685860+685124190+695927745
3834+695460783+691927219+691306230+688685933+684627759+676580733+672059358
3821+683586454+688563902+686464959+696113149+697359560+683932115+674439915
3807+680472308+686407143+681521920+688400446+698643467+694325626+691881864
3794+692254468+688454894+685027026+683434112+683656844+684556359+682653316
3780+683242758+689004202+689983480+683467960+676972984+679095222+686769475
3767+690096923+690071776+686019383+682192360+687307668+689767709+679332604
3753+669621153+679402825+694811449+687019599+682169122+703136159+707134216
3740+684986049+670317077+676837874+691502636+698888988+695499346+687876510
3726+686346801+689972422+692462437+693735286+691181449+682181022+670190331
3713+669061685+684584593+695244282+691077436+681436487+678092536+683266895
3699+684130710+678376227+672298480+665865586+661724954+670351486+685491350
3686+685057393+672702294+662855115+655464778+648360208+656497775+671428322
3672+667812243+668559585+679663839+676207512+665230509+659340243+655443784
3659+651325605+654194736+656750706+644864308+636562500+651490128+667759199
3645+664315838+653428646+647086012+644332963+640952582+637615030+632997669
3632+624864593+627715144+646342544+649861346+637025813+626469575+626357424
3618+632936149+633035334+627996590+623999150+620602885+622034587+625516679
3605+621557184+614069121+610811108+609128047+606162482+606470366+607905997
3591+602684375+597394385+602433634+607465474+602722096+596210898+592888502
3578+590307272+587488099+585235354+581198791+575476359+575825556+582097127
3564+582270743+576511545+572236758+569478432+566219577+563352468+561782793
3551+558975744+554205536+553117754+555790029+554729640+548653072+542604962
3537+540264820+540064934+538048224+534059765+530876857+529265420+527603015
3524+525589224+523667826+521424287+519118778+517184750+515137504+512496775
3510+509908473+507398812+504039930+501232769+499883749+498123450+495987235
3497+494321967+492405228+490338112+488535040+486690711+484719580+482488109
3483+479967951+477596656+475352892+473249402+471666031+469944238+467212827
3470+464327363+462837872+462188902+460594249+458090846+455484694+453006804
3456+451072495+449775482+448328988+446232543+444418975+443240540+441523883
3443+439211975+436818254+434578083+433213739+432310912+430807080+428942039
3429+427317158+425667298+423646771+421949031+420914182+419406729+416780735
3416+414298691+413009086+412024363+410838462+410174926+409561909+407767706
3402+405410639+403995805+403391684+402506819+401088869+400205576+400190786
3389+399769375+399114202+399191356+399075134+398066021+397153849+396817113
3375+396791741+396993115+396791601+396073701+395664414+395639267+395501632
3362+395185581+395088220+395145137+395031975+395168797+396009065+397321852
3348+398372334+398600651+398323611+398296163+398689087+399303816+400403582
3335+402082742+403684328+404733435+405506344+406235695+406780260+407440540
3321+408824390+410480396+411316595+411944094+413517558+415191021+416231708
3308+417182135+418211427+419433111+420927317+422607852+424776961+426968466
3294+428274461+429194015+430564927+432206563+433886004+435799150+437898065
3281+439923027+441851189+443637056+445171592+446742390+448499349+450109411
3267+451922923+454544511+457193913+459065269+460995761+463567813+465835405
3254+467540105+469601945+471764711+473465678+475646518+478620335+481248210
3240+483204746+485306889+487958003+490716778+493181590+495611543+498472086
3227+501325499+503385936+505395180+508561810+512484875+515862842+518022913
3213+519421329+521312191+524377559+527783255+530475345+532668422+535389420
3200+539033116+542836956+545858429+547867785+549636280+552066009+554827983
3186+557355887+560256115+564028690+567770111+570660123+573134757+575727269
3173+578323093+580636124+582892798+585574897+588501731+591204374+593685857
3159+595988335+597985455+600052964+602760547+605800487+608324405+610485599
3146+613226299+616319621+618758275+620469683+622101777+624052588+626203790
3132+628489541+631004535+633483885+635609378+637583260+639736258+641723331
3119+643081893+644301080+645992898+647796643+649454501+651524874+654027238
3105+656138362+657526899+658653861+659684668+660797317+662871450+665529973
3092+667326309+668424082+669565077+670430408+670959395+671772018+673033304
3078+674520465+675872516+676811829+677669918+678702298+679848569+681058214
3065+682139709+682956653+683850948+685424889+687126362+687693688+687325911
3051+687327202+688183720+688928311+688876221+688611446+688535219+688668925
3038+689169454+689646969+689464428+688971308+688641533+687964020+686896726
3024+686104311+685262612+683766021+682157839+680855128+679271813+677059483
3011+674293186+670751426+666351015+661632729+656647423+650327185+642288299
2997+633120205+622726919+610375861+594962186+575698979+553528247+529787897
2984+504887074+479808088+457098320+440335316+432923480+436441525+450058443
2970+471551465+497653737+524333439+548795535+570009777+587667048+601626512
2957+611458591+617153013+619693097+620208670+619268571+616995113+613447235
2943+608689993+603408254+598693335+594755845+591233169+587782456+584503113
2930+582217474+581626236+583226390+586964388+591375857+594837180+596829360
2916+597551049+597320234+596144494+594124977+591688231+588797995+585254944
2903+581480573+578304008+576399113+575725754+575766113+576245143+577079601
2889+577912151+578468250+579397572+581438811+584057481+586486761+589283930
2876+593637415+599844265+607155064+614984634+623276114+631615195+639429160
2862+646506786+652548104+657343403+661637388+666287474+670936662+675164130
2849+679142766+683130214+687409099+691347768+694249960+696808007+699605120
2835+702381633+705115092+708082005+711188686+713931519+716037591+718096456
2822+720781642+723628825+725795520+727088183+727904455+729037254+731108524
2808+733894523+736680915+739395739+742210141+744604619+746518832+748573992
2795+750454470+751540568+752514233+754066002+755570620+756842290+758458835
2781+759796068+760235918+760556768+761014525+761333635+761996161+763052340
2768+763763533+763889437+763597101+763095843+762844484+763106508+763648237
2754+764147756+764568746+764892627+765078537+765501884+766338756+767254549
2741+768078342+768713925+769097924+769346308+769572856+770031792+770643125
2727+770857942+771110705+772382936+774251626+775832640+777287749+778643673
2714+779408023+780004369+780857014+781336942+781618725+782491184+783630271
2700+784618250+785692223+787028670+788600927+790167683+791538931+792879812
2687+794052521+794656052+795141538+796229769+797521646+798279484+798697724
2673+799347788+800321005+801387007+802265529+802749106+802846271+802579363
2660+802334684+802977170+804450186+805641138+805899458+805798364+806224125
2646+806816879+807090747+807653302+808466374+808870580+809112565+809688760
2633+810348816+810526305+810199393+809923953+810085445+810650020+811536513
2619+812466002+813020811+813084521+812850338+812965633+813676657+814115890
2606+813949907+813807108+813933180+814477380+815586885+816691843+817269665
2592+817203093+816796192+816865796+817343816+817660288+818039179+818693509
2579+819223732+819123986+818792807+818913603+819199595+819273633+819173101
2565+819082336+819097660+818935045+818754806+819108269+819571863+819165523
2552+817944989+817067534+817162173+817449737+817414205+817768735+818855731
2538+820153615+821163205+821718182+821947481+821960391+821756351+821565615
2525+821704036+822084387+822490838+822895101+823185191+823399840+823658496
2511+823876288+824208589+824695815+824943975+824752733+824268595+823944994
2498+824490821+825943012+827206543+827937157+828791542+829342477+829364144
2484+829868265+830949031+831766425+832156093+832580226+833284963+834224276
2471+835145739+835700098+835838857+835746463+835985642+837084369+838463139
2457+839101472+839005543+839070487+839753333+840605809+841177850+841561849
2444+841897182+842201137+842698129+843411511+843834914+843736964+843406066
2430+843156278+843305253+843730789+843890148+843847488+843915744+843827224
2417+843527816+843539435+843927307+844236146+844411783+844800721+845495411
2403+846432478+847500894+848284385+848707507+849022408+849219431+849245757
2390+848884211+847481641+844310857+839553278+834597778+831368617+830669942
2376+830927925+830662870+830464724+832396843+837746839+845038384+855037399
2363+869136464+883637994+896685875+909586352+920396643+925821632+912532608
2349+877613797+843067029+836678535+858855329+876386471+882630369+885716954
2336+884510229+878975278+877407287+883725504+889121079+889018694+889558740
2322+893321492+895045361+892301293+887317053+883373332+882934155+884487159
2309+884832763+883156606+880436394+878258866+877448881+877117422+876566711
2295+876055405+875421562+874537820+873922389+873727330+873164214+871729705
2282+870284643+869786304+870116079+870800833+871472958+871867004+871996052
2268+871847358+871492323+871053146+870463368+870094075+870406955+871234509
2255+872059649+872444097+872602558+873008673+873416135+873534573+873676587
2241+873968922+874357131+874775258+874866080+874735293+874791032+875008824
2228+875354653+875708172+875746903+875528381+875712438+876672688+877593477
2214+877673634+877231145+876845462+876800669+877076333+877310740+877374338
2201+877617726+878054040+878214297+878218956+878743622+879601880+879816977
2187+879335646+879032870+879145358+879247406+879241681+879435897+879913693
2174+880210631+880008107+879781446+880015629+880420509+880536590+880408777
2160+880412257+880875234+881583676+881746515+881238464+880913572+881081912
2147+881237734+881158364+881122607+881356229+881725746+881959030+881969246
2133+882083980+882728880+883655676+884386795+885015473+885648979+886178696
2120+886529409+886589133+886556128+886811304+887553144+888562397+889193545
2106+889429973+889625762+889746782+889921521+890190955+890379277+890480483
2093+890733751+891407110+892238649+892811701+893171563+893649471+894252721
2079+894605735+894848731+895437162+896218969+896654834+896602013+896742343
2066+897699225+898618387+898671993+898855825+899662385+900300157+900720642
2052+901230882+901770198+902385797+902932467+903197353+903712308+904735482
2039+905624669+906104373+906205916+906229603+906839983+907919681+908680719
2025+908972661+909154417+909098958+909223347+910431812+911820181+912042295
2012+911666492+911672947+912173588+912904988+913527716+913957182+914300990
1998+914636154+914687066+914626275+915887673+917975839+918875523+918763539
1985+918386220+918115664+918304436+918814507+919225955+919217703+919099152
1971+919023767+919420452+921150159+923105741+923442253+922623680+922252535
1958+922833277+923775003+924435508+924561917+924218839+923534702+922419809
1944+922473471+925098988+926696617+925259470+923512979+922570579+921938926
1931+921148082+920163527+919146472+919107292+920641828+921165315+922375240
1917+926892854+929248096+928147741+928355822+930742218+933147698+934313110
1904+934852539+935326629+935273304+934949029+935541559+935995498+935307657
1890+937059424+940611063+941064666+940021340+939876744+940071017+940425884
1877+940944038+940672247+937860147+936133527+941315632+947437667+946740732
1863+943596555+942326288+942151942+942230415+942475262+942608969+941886326
1850+940391868+937904435+938744281+947399834+952103694+947820263+944626914
1836+944552820+942328533+939389519+942606274+947347519+947361552+948392584
1823+949081548+946422127+944875129+945182171+944311789+943017497+944692251
1809+947242103+946569530+943518419+941577768+943730823+947451251+946123505
1796+939762628+939003724+948906641+953613308+947500422+943338348+944095456
1782+944329526+944507128+943556926+937695455+933577332+941639626+951614897
1769+952193393+948513493+941781247+938983460+942812952+942850224+941652424
1755+939328447+933181433+934514119+943132905+944989302+940697619+936150759
1742+935178890+938400641+934160207+927983162+942282056+956993352+952244810
1728+945074510+940597142+937912013+933102006+924880354+928362390+946352411
1715+953936853+947569353+938841334+931949617+931460707+932586602+925289837
1701+926874836+941950428+945938943+948553122+946797313+935110577+926200298
1688+916626146+915007411+936097378+945494714+931840721+917714713+916871386
1674+922430418+919274789+919268896+927037282+923233891+915078587+918102754
1661+922079144+914823018+899084619+895070957+927989730+944854024+927175928
1647+923841576+936384942+934807801+924881084+916042373+915484253+934084485
1634+948323317+940757006+932603554+933079890+934921076+940374354+947043508
1620+942230415+939131817+953515751+962164118+956068409+952137710+953808647
1607+955556036+956209974+957496070+958971443+959161281+959156117+960726017
1593+962934025+964220794+964981158+965581995+966074272+966998317+966333715
1580+960775525+960794835+976562310+982098720+972481178+973542521+981487555
1566+979743422+970384199+955293338+955404817+989839321+1004870906+994102545
1553+985783897+981562435+977658231+971330696+965582332+964800413+978410175
1539+1002420183+999858207+983639992+982042027+984487024+977122058+971937034
1526+971107628+969328244+975955074+985158362+984681577+982161475+977747593
1512+968768945+957959720+958063677+982137563+992472360+975502313+959058448
1499+955530215+961343469+960340053+947697783+939532824+942267799+943152776
1485+937533795+931804235+928976642+926118570+922031544+919977281+925101458
1472+932379925+925259806+909331738+901918049+901106381+890345823+872858744
1458+870539090+886516049+889693906+880904591+876369912+879805077+886300278
1445+889529776+889869823+887165553+884148907+891064986+898813614+893935519
1431+888276292+887948033+885929582+882736739+879843865+876668534+881589626
1418+891476938+891637700+887458000+887189689+888816619+889218468+890865773
1404+894325917+894694255+894384631+896182258+897243434+898636461+896712537
1391+887956172+880061994+876635922+871571806+865235066+863174236+865926275
1377+872086200+883216162+898085919+910840060+921570532+931018050+936533972
1364+941462698+947481225+949497374+947631884+946320416+946377895+946028642
1350+944901287+943358668+941457589+938752196+935705015+934896153+936416825
1337+936827711+935195449+933531360+933119576+933596192+934266296+935113777
1323+936234789+937951810+940828799+943765175+945736082+947786920+950287825
1310+952896166+955976914+959357294+962417049+965345679+968497378+971518626
1296+973962052+975767930+977070417+978021405+978753141+979011573+978200466
1283+976191053+973309012+970125992+967608809+966792650+968446298+972623753
1269+978075965+983429946+988648986+993797300+998271131+1001826644+1004766500
1256+1007352838+1009382458+1010761958+1012001240+1013458988+1014974214
1244+1016287927+1017468608+1018886502+1020501419+1021666831+1022161915
1232+1022587396+1023341024+1024197823+1025091668+1026141337+1027051236
1221+1027629396+1028089902+1028750464+1029864234+1031054794+1031879373
1209+1032620203+1033416716+1033983873+1034175396+1034120611+1034171803
1198+1034490857+1034872330+1035343165+1036062890+1036634875+1036734902
1186+1036796647+1037078430+1037254460+1037289935+1037443288+1037658385
1175+1037412303+1036241277+1034772977+1033717359+1032434181+1030507956
1163+1028580047+1027068300+1025985177+1025339996+1025083361+1025040701
1151+1024894870+1024369699+1023651546+1023111556+1022641844+1021841739
1140+1020183824+1017621848+1014991728+1012598933+1010189524+1008046292
1128+1006481894+1005255522+1003611079+1001059993+998122269+995171186+991372173
1115+985897621+978545790+968750870+955831644+939273157+918081480+891156818
1101+858220476+820538624+781424284+745874100+718904981+703982686+702274870
1088+712378852+731221574+755321450+781424620+807018617+830436658+850519504
1074+866564945+878290356+884969389+885118980+877713993+861601249+833587234
1061+789861763+729810248+659161799+590125461+536271646+506571033+504033699
1047+527224405+571622954+630793366+697280582+763239484+822264851+871113264
1034+909495531+939215902+962835457+982194257+998103633+1010926425+1021227991
1020+1029698308+1036597491+1042017596+1046510063+1050465011+1053734923
1009+1056592715+1059349806+1061651667+1063327543+1064594330+1065724042
997+1066983083+1068354050+1069553703+1070360320+1070922875+1071428736
986+1071792920+1072169454+1072748511+1073208681+1073190270+1072891985
974+1072732345+1072948790+1073462173+1073741823+1073573203+1073138404
962+1072441020+1071579058+1070373679+1068480011+1066469812+1065681270
951+1066523923+1067966066+1069377673+1070633683+1071246195+1071281895
939+1071290988+1071418969+1071449617+1071192533+1070745385+1070395234
928+1070201466+1069910478+1069517442+1069252611+1068910543+1068107182
916+1067100960+1066304447+1065212455+1063267257+1060903988+1058490201
905+1055735692+1052328256+1048046171+1042379871+1034257236+1022324810
893+1005455128+982523976+952280847+915377770+876420655+844082905+830021730
880+842681233+879057736+925787952+968870656+1001426984+1023711720+1038363291
866+1047446794+1052636196+1055651269+1057736011+1059159406+1059565128
854+1059484186+1059715787+1059733637+1059348010+1058943523+1058300250
843+1057395515+1056454743+1055454358+1054294559+1052958057+1051500197
831+1050153815+1049065416+1047793689+1046084807+1044140620+1041755796
820+1038970302+1036402264+1034051007+1031252828+1027479186+1022899265
808+1018266468+1014613286+1013119277+1013901757+1016131095+1019026383
797+1021420075+1022648467+1023187447+1023297578+1022872995+1022198064
785+1021549515+1020891087+1020271615+1019579395+1018482576+1016976106
773+1015314262+1013735606+1012481505+1011394116+1010061206+1008573259
762+1007073525+1005583782+1004196424+1002818047+1001570345+1000478241+999192706
748+997780650+996363654+994785672+993372942+992344604+991185815+989619171
735+987741893+985661978+983761462+982416427+981449610+980147348+978382446
721+977452339+977419557+976162313+973807464+971813431+970009798+968356936
708+967212966+966363577+965131255+963222206+961303390+959966775+959062377
694+957963313+956817883+955942112+954843609+953480724+952279724+951520820
681+950788522+949677109+948176364+946133047+941286668+933462823+936344639
667+953667419+952177676+941818181+937072110+936597177+936770176+936982411
654+936708206+935833445+935084869+934934547+934239465+932697183+931370278
640+930753725+930246235+929477789+928619811+927543705+926537483+925822361
627+925343387+925173363+924711509+923510734+922737403+923005714+922653935
613+921642268+921293801+921187824+920738599+919889884+918959384+918491748
600+918312912+918107020+917862845+917618952+917319151+916821878+916258818
586+916036198+915953965+915476113+915157845+915591184+916089299+915726125
573+914712999+914246205+914409606+914182159+913665632+913601137+914023642
559+914232621+913725525+913210739+913227690+913182224+912753095+912292588
546+911938058+911376682+910244444+908737917+907836774+907740340+907499646
532+906746860+905731432+905083725+905195933+905142271+904178877+902828903
519+901749653+900720249+899107408+897504447+896958564+896829572+895671626
505+893237630+890929315+890135384+889722028+888429028+886856995+885199305
492+883708496+882806904+882117379+881160384+879556469+877682503+876230985
478+875118057+874023932+873177630+872962027+873090232+873071989+872141265
465+870279928+868845363+867998219+867165726+865930036+863837829+861750897
451+859475531+855990240+852226871+848674951+845551430+843494642+840803731
438+836974182+834671480+834339178+833710668+832301755+831394270+831782591
424+833338738+835347365+837567273+839077392+838158230+836484936+835123118
411+832527743+829604445+828687641+828599963+827101520+824370755+821966229
##END=
