##TITLE=павел 9-многокр
##JCAMP-DX=4.24
##DATA TYPE=INFRARED SPECTRUM
##DATE=3/2/2015
##SAMPLING PROCEDURE=Instrument type and / or accessory
##ORIGIN=Default
##XUNITS=1/CM
##YUNITS=TRANSMITTANCE
##RESOLUTION=4
##FIRSTX=3996.3347
##LASTX=399.24773
##DELTAX=-1.928733
##MAXY=1.4693699
##MINY=0.55181664
##XFACTOR=1
##YFACTOR=1.3684573e-009
##NPOINTS=1866
##FIRSTY=0.95060128
##XYDATA=(X++(Y..Y))
3996+694651741+695107251+695601917+695990350+695867435+695360311+695168142
3983+695978895+697229172+697383709+697094323+698097506+698973811+698203957
3969+697645786+698518955+699466431+699310239+698452227+697792135+697804287
3956+698510375+699322913+700095380+701242082+702020167+701583779+700923556
3942+701234241+701676641+701165336+700608950+700706298+700641922+700304145
3929+700401101+701281021+702760098+703513226+702976746+702479031+702494232
3915+702137987+701559954+701140596+700233889+699661693+701421533+704367971
3902+705607229+705944135+706877934+706987478+705987648+705965957+706455658
3888+705472641+704449116+704462488+704483830+705282736+706621607+706887212
3875+706437582+705727139+705468241+705862860+706060691+706579880+706698701
3861+706080771+706241710+706778757+708419166+712434384+713616844+711187765
3848+708970935+707774797+707221330+706601266+705719778+706031117+707546738
3834+708746751+708885347+707138530+704814290+704545549+705601959+707124200
3821+709347346+709359934+707677145+706848969+706026979+705278511+706057468
3807+708243069+708966535+708668133+710000644+709800504+707641777+707261837
3794+707673573+706579357+704644422+703433170+703921652+705464583+706219584
3780+706505965+707060870+706469465+704706794+703649818+704640240+706346506
3767+707082865+707180997+706644517+706589506+707870316+708224558+706519424
3753+705072883+706964480+709388899+708256571+707688556+709964275+709578542
3740+706736725+705722522+706481007+706205602+705264791+704457610+703861849
3726+703731094+703372410+703177888+703852267+704093089+702970082+701047604
3713+700145296+700293604+698876420+696478309+694911205+694670644+694604962
3699+692713931+689527106+686565249+684531964+683743511+683752615+683161689
3686+680883706+677251913+673986034+672476859+672900398+675242322+675942617
3672+673250502+670950959+669790015+667860785+665209744+662672602+661079756
3659+660504598+660059150+658520792+656643438+656404446+657014144+655205608
3645+651357123+647921375+645757291+644060651+641643811+638837405+636730990
3632+635383016+634783162+633788558+631058289+627740055+624885477+622845266
3618+621341797+619916381+618419184+616182884+613455489+611727663+610196710
3605+607040766+603710686+601891697+600537930+598954492+597208242+594771888
3591+592227124+590390538+588431037+585282281+581546170+578529127+576729433
3578+575302754+573269686+570522735+567522897+564974387+563501363+562339984
3564+559686155+555997042+553001995+550539551+547507569+544332940+541919192
3551+539745308+537389447+535112465+532665397+530325129+527860595+524661183
3537+522054786+520534331+518635285+516434135+514820992+513207370+511058922
3524+508869837+507105249+505825484+504255592+501629857+498365895+495224499
3510+492794984+490811266+488453053+486241667+484700652+483257813+481879612
3497+480414690+478273647+475805149+473707488+471784400+469569225+467495258
3483+465935253+464551259+463159337+461670459+459819718+457302525+454333393
3470+451678258+449855697+448898160+448280099+447437028+446229697+444164441
3456+441086158+438488691+437247430+436366987+435390024+434505749+433315230
3443+431119263+428081531+425760689+424910300+424397252+423134257+421573511
3429+420713453+420085679+418678208+417078131+416343427+415869711+414466639
3416+412381174+410411002+408794897+407550804+406461858+405189237+404059784
3402+403780676+403986087+403863085+403631584+403631889+403628927+403440068
3389+403239928+403250120+403463327+403692388+403614989+403501830+403847056
3375+404204390+404174641+404051465+403924760+403862736+404486285+405550360
3362+405933392+405903252+406492870+407796765+408765148+408818199+409068734
3348+409875305+410542541+411433611+413084126+414811124+415781510+416652545
3335+418287335+419974568+420878269+421463271+422386007+423580053+424864348
3321+426140367+427340642+428811270+430973612+433339665+434866045+435694351
3308+436912527+438717317+440638620+442648428+444540853+445874802+447031477
3294+448443130+450010626+452038728+454657930+457190716+459132838+460443876
3281+461681348+463584532+465689466+467276824+468341379+469184625+470750117
3267+473522680+476597740+479156964+481324446+483570590+486209566+488849631
3254+490836311+492643148+494879622+497162179+499299868+501953305+505264525
3240+508257264+511000209+513975002+516373331+518218454+520247906+522472141
3227+525069695+528449038+532206403+535367965+537977977+540850587+543944028
3213+546611446+548978284+551652627+554499758+557240089+560045580+563070986
3200+566199489+569039563+571644261+574547927+577719637+580651006+583175560
3186+585671541+588807492+592721573+596585520+599637147+602213620+605283191
3173+608838979+611944790+614520827+617203011+620287653+623649050+626588781
3159+628638705+630534353+632965827+635742571+638597542+641283472+643741821
3146+646394473+649470796+652387529+654744959+657178002+659613310+661422586
3132+663271237+665757070+668303707+670347663+672198013+674435010+676938875
3119+679267427+681429682+683539277+685285136+686757288+688425050+690290644
3105+692384037+694579656+696519600+698162666+699655987+701292302+703054232
3092+704701829+706342325+707911215+708926159+709653850+711310201+713926267
3078+716088739+717156386+717849538+718943492+720209755+721185847+722224790
3065+723628603+724793423+725235212+725427904+725895740+726597516+727505268
3051+728546564+729180261+729397737+729787390+730219684+730487815+730820322
3038+730946635+730498704+729896454+729728719+729982956+730198298+729793749
3024+728702930+727284875+725733494+724224885+722664140+720713350+718143193
3011+714983765+711666969+708207614+703972700+698423088+691349928+682938116
2997+673541152+662685712+648924995+631551866+611005241+587497761+561369424
2984+533798944+506352208+481466787+462344664+451348364+450096867+459957050
2970+480678161+509602668+542448922+574833176+603629323+627189158+644977507
2957+657397829+665749665+671164645+673694077+673474163+670988155+666405533
2943+660659265+655305439+650862544+647043720+643894180+641707969+640727478
2930+641350940+643565636+646575580+649836362+653402038+656912571+659320700
2916+659941418+659128269+657821412+656284841+653704578+650080930+646767836
2903+644304609+642200850+640419232+639199923+638619277+638640445+638824687
2889+638887887+639340391+640809799+643122061+645853855+649366218+653853409
2876+659087675+665482405+672984462+680683740+688383672+696201597+703529037
2862+710241161+717036607+723688013+729425700+734328155+738631757+742349705
2849+745647510+748548694+751182705+753935014+756640979+759090835+761633290
2835+764162767+766312956+768454522+770965966+773330800+775104578+776710055
2822+778454041+780154645+781620568+782861394+784274092+786159461+788251634
2808+790324555+792509502+794787660+796867898+798472417+799669687+800853106
2795+802115361+803393123+804872549+806478636+807696115+808324804+808967343
2781+810057465+811148458+811847620+812248336+812682068+813463377+814192767
2768+814371869+814410896+814613780+814807953+815180096+815821155+816342347
2754+816640009+817075570+817676121+818043212+818112815+818278850+818733663
2741+819006672+818897260+819014338+819363832+819372282+819335434+819854274
2727+820640723+821140050+821539459+822266845+823215758+824330184+825813617
2714+827215949+828020779+828570631+829088861+829479907+830118527+831204990
2700+832308352+833420339+834775979+835995985+837173916+838657697+839901746
2687+840831930+841992438+843219500+844112139+844624532+844787519+844593172
2673+844294987+844338804+844817921+845412375+845812307+845992803+846122600
2660+846370609+846593877+846735870+847289381+848312600+849340872+850274541
2646+851243141+852253119+853113962+853636983+853912868+854267763+854808468
2633+855358930+855887700+856297563+856474488+856465777+856435549+856839227
2619+857585517+858017506+858364996+859169913+860063597+860634617+860954319
2606+860938464+860581653+860266568+860339481+860812500+861322019+861512620
2592+861500860+861752266+862436184+863019922+863087434+863059820+863208433
2579+863327428+863592598+864160133+864669914+864727843+864470950+864665123
2565+865618391+866652674+867086144+867011576+867042327+867151043+866708339
2552+866029822+866010222+866482631+866682815+866634990+866957828+867632425
2538+867916149+867739573+867691400+867808043+867784261+867720495+868132884
2525+868997472+869580078+869709092+869991335+870835191+871526687+871351679
2511+871119176+871679395+872876490+873805454+873600828+872990781+873015870
2498+873594469+874643038+875875239+876614822+876928339+877149603+877101169
2484+876871106+876994457+877513123+878013843+878439473+878869111+879057099
2471+879104575+879769589+881102667+882019696+882211692+882517891+883269495
2457+884149589+884915479+885421340+885581016+885473781+885312885+885319593
2444+885553314+885852283+885975634+885723967+885417245+885676578+886253348
2430+886522437+886409976+885965529+885456533+885385711+885622394+885603665
2417+885373863+885389195+885616384+885816742+886219026+886927945+887563079
2403+887935048+888165112+888595707+889325010+889689487+889641750+890080708
2390+890911584+891055058+890288384+889452717+888843715+888034618+887483982
2376+887922591+888919677+890284638+891884801+892501555+892942691+894867086
2363+896416638+896768745+897381318+898543830+901289692+905058426+905155905
2349+900378325+894461144+891905795+893676873+895913129+897105695+898382934
2336+899672455+899654945+899296653+900015154+900748116+900986891+901881707
2322+903624473+904918960+905212266+904813902+904361006+904571121+905021142
2309+905112784+905161916+905253993+905444072+905872141+905981902+905595647
2295+905289970+905360444+905866479+906444991+906508234+906271986+906299513
2282+906691867+907265587+907631981+907472479+907085004+906810252+906698574
2268+907037441+907654805+907951247+908029822+908034962+907790351+907656024
2255+908135228+908988579+909656381+910062062+910329584+910431244+910494836
2241+910755736+911252450+911854831+912419230+912742504+912696683+912661489
2228+913094176+913635403+913670597+913496198+913675475+913846389+913670248
2214+913669116+913981413+914098143+914048576+914246321+914500253+914427776
2201+914266270+914320715+914607314+915131642+915733587+916165751+916308702
2187+916244674+916209917+916258874+916364366+916657063+917113705+917548482
2174+918039098+918459066+918285625+917781507+917840134+918632680+919634644
2160+920329625+920459597+920138240+919822197+919769843+919775679+919733517
2147+919772020+919786220+919606420+919393692+919451883+919963667+920634431
2133+920873815+920862839+921159456+921411646+921214424+921113025+921505901
2120+922170393+922974264+923793641+924401074+924745864+924964428+925307389
2106+925873705+926411361+926537587+926202466+925976672+926252730+926560498
2093+926551177+926489675+926546995+926723833+926938826+927004160+926991703
2079+927199552+927664034+928176602+928647357+929158705+929732861+930074428
2066+930051692+930109534+930483420+931014891+931560997+931950215+932185679
2052+932473323+932900173+933345142+933707093+934118698+934596508+934966822
2039+935434789+936117138+936384573+936142488+936284219+936865693+937302996
2025+937837429+938512636+938841049+939139495+939789265+940209929+940054260
2012+939964360+940519090+941423924+942072562+942329368+942481118+942797248
1998+943217564+943290390+943081408+943359470+943927702+944067605+944198012
1985+944671815+944990819+945169225+945665416+946256124+946672955+947006769
1971+947145190+947070448+946968091+947126984+947754540+948613553+949341288
1958+949761517+949972590+950252394+950652326+950941016+951052868+951215245
1944+951614916+951978348+951658472+950833346+950292379+950065365+949658638
1931+948927680+948242107+948053596+948639774+949781727+950905910+952207714
1917+953620238+954454163+955010026+955740200+956759674+958001719+958894532
1904+959249427+959511808+959947631+960483022+961065193+961536121+961966020
1890+962833744+963758788+964198182+964430597+964548808+964803960+965374283
1877+965800436+965922741+966084683+966863988+968178076+968685504+968144189
1863+967812901+968058122+968262574+968288360+968466155+968717300+968777581
1850+968855721+969226732+970339241+971923289+972080091+971008089+970373651
1836+970171202+969855769+970090710+971448266+972517568+972686130+972896680
1823+972603374+971737566+971400355+971518740+971316814+970938225+971029692
1809+971318905+971281359+971088493+971123512+971664305+972386552+972422790
1796+971853948+972232102+973609694+973348444+971596793+970582371+970534285
1782+970642217+970564775+969775016+968404044+968154642+969838433+970557457
1769+969297641+968033121+967059817+966834022+967312965+967386313+967542679
1755+967445027+967226985+968542988+970105171+969994974+969360885+968931683
1742+968818437+968897099+967784764+967117659+969604973+971003385+969286404
1728+967354430+965996438+965291091+964630519+963869159+964726778+966371369
1715+965730746+963474715+961087755+959213449+958579360+958024629+956424902
1701+956485009+957701443+956428996+954299452+951469439+948089138+945291443
1688+942499586+941447880+942636874+940769712+936409835+933041120+931797681
1674+930942762+928979864+927764301+926999891+924661975+922569366+922092514
1661+921396749+919724893+918086661+919386549+925192227+926299248+923565146
1647+924084421+925948709+925428214+924783061+925417063+928318334+934192743
1634+937973760+938232744+939396040+942531991+945887465+949526750+952939805
1620+954963421+958107909+963296397+965948352+966445589+967980505+970167892
1607+971707338+972935184+974420534+975840985+976931281+977950493+978946359
1593+979936912+981150907+982412988+983427584+984269871+984958841+985198487
1580+985157457+986807013+990228779+990787778+989341716+989868657+991171246
1566+991069934+990172418+989111827+991164712+996751390+996986419+993734957
1553+991596266+990654932+990034258+989362797+989318109+990399955+993176742
1539+995352281+993028826+989880940+989049019+988379126+986823652+986166913
1526+986241132+986407255+987349896+987484920+985811234+983849816+982073251
1512+980489813+979156125+979108911+980307051+977831585+972762528+969048762
1499+967235260+965477685+961780122+956817516+952237594+947958818+943464004
1485+939437244+936364450+933768158+930970900+927498434+922950221+917177471
1472+909834699+901907492+896219416+894346765+894007376+892002490+889243822
1458+888570793+890212422+891232157+892230027+894844176+899100912+903616720
1445+906862781+908688652+909076127+908763046+908695185+907233443+904046444
1431+901170349+898792535+896092406+893617549+891637316+890218607+889994728
1418+889625983+887941930+886532281+886459194+887348522+888819411+891096785
1404+893595946+895342545+897028775+898656814+898970592+897540210+893546379
1391+886465466+876372737+863199025+849132936+838649247+835969590+842371202
1377+854637205+868262855+880159677+889659608+898949250+909531288+920904653
1364+932540748+942571714+948823668+951914756+953299317+953208285+951472226
1350+948263362+943849389+938944277+934670641+932339954+932770376+935049840
1337+937344897+938846450+939695358+940084488+940026035+939540472+938804897
1323+937881856+936628138+935115522+933653780+932582301+931888801+931404370
1310+931560736+932803391+935094615+938162880+941688310+945712718+950265287
1296+954999485+959666868+964229978+968533406+972221997+975057498+977013950
1283+978141007+978504352+978268278+978106162+979149505+982094506+986472938
1269+991378224+996569761+1001774191+1006380247+1010379044+1013920937+1016860973
1256+1019267708+1021312057+1023053429+1024625629+1026271788+1027989727
1244+1029540672+1030874011+1032014919+1033011221+1034005607+1035005219
1232+1035802295+1036190380+1036350056+1036677859+1037223617+1037668064
1221+1037826608+1037922083+1038185858+1038689715+1039312916+1039708753
1209+1039817992+1039818340+1039620857+1039174494+1038820470+1038697120
1198+1038450766+1037885321+1036984407+1035781998+1034606855+1033578060
1186+1032447083+1031128117+1029430388+1026879570+1023153434+1017901702
1175+1010400299+999673132+985118431+967591723+950007783+936576916+930511906
1161+932000391+938700362+947794612+957041394+964810406+970338109+973622673
1148+974911672+974174877+971056175+965347366+956586059+944310299+929510116
1134+915009162+904538454+901057190+905375427+915574433+927688600+937759464
1121+943480294+944388700+940988189+934436570+926450823+918325697+910506596
1107+902653172+893819650+882521898+866893801+846369563+822920971+800183039
1094+782163974+772341467+772601410+782413463+799414884+820618857+843189447
1080+865113838+885123764+902173620+915654141+925375859+930992503+931877563
1067+927321335+915987345+895325558+862413186+815671060+757833980+698271861
1053+649626248+621586103+618042206+637863274+676846449+728819486+786049612
1040+841011555+888765663+927352347+957100805+979997716+998047184+1012335060
1026+1023733165+1032895101+1040206164+1046210631+1051270890+1055342426
1015+1058454682+1060965168+1063237489+1065397958+1067192817+1068409077
1003+1069515315+1070740460+1071729009+1072389407+1072747350+1073001195
991+1073400082+1073718912+1073741823+1073450520+1072791429+1071856890
980+1070877923+1069971870+1069012939+1067654337+1065492213+1062314536
968+1058035324+1052214315+1043385409+1028730094+1004908922+970816616+931740274
955+899870113+887092587+896354527+921005877+951393912+980578667+1005069644
941+1023583768+1036511824+1045270343+1051590679+1056729600+1060770995
930+1063494209+1065230180+1066351139+1066955524+1067141857+1067209020
918+1067165290+1066712742+1066054784+1065410763+1064524310+1063239406
907+1061465715+1059044955+1055997422+1052473648+1048220745+1042368114
895+1033923721+1021911563+1005182367+982588345+954464529+924198451+898404886
881+886265369+894692775+921502765+956325419+988587586+1013036400+1029359566
868+1039568764+1045802598+1049409564+1051339709+1052090180+1051996709
856+1051695649+1051478914+1051048232+1050160559+1049093260+1048056712
845+1046825730+1045315118+1043722098+1042128904+1040393019+1038561834
833+1036660263+1034272954+1031102158+1026890284+1020578659+1010137482+994222785
820+976430647+965715937+967978589+979665470+992399614+1000651576+1003779774
806+1003878211+1003490997+1004154182+1006012546+1008236171+1009680665
795+1009976063+1009554266+1008671732+1007362175+1005948170+1004796983
783+1003603720+1002008871+1000340237+998787201+997315616+996089686+995034583
770+993886532+992583421+991194766+989779455+988399859+987134381+986052883
756+985021039+983780998+982475796+981232270+979876456+978530921+977331997
743+976235864+975273449+974428809+973621367+972739182+971752811+970745881
729+969775887+968766954+967723524+966915994+966282515+965407734+964345837
716+963398753+962560734+961740922+960969195+960261844+959571916+958874757
702+958102421+957340625+956966565+956870916+956531004+956069484+955744817
689+955349502+954870820+954499548+954153626+953831572+953713361+953584609
675+953302627+953011498+952882311+953725121+954811845+953981057+952796680
662+952382723+952529158+952647456+952647021+952665053+952905657+953263427
648+953324841+953324231+953574853+953876348+954100226+954292134+954620199
635+955089646+955733666+956562277+957263095+957859900+958367329+958770571
621+959382011+960061573+960467342+960762739+961468522+962638874+963754607
608+964505775+964859363+965331424+966459440+967807413+968798750+969523436
594+970365114+971131091+971427621+971706641+972479413+973448188+974152751
581+974744242+975355509+975834974+976342489+976965777+977831933+979198985
567+980920582+982436247+983166334+983237069+983449536+984399494+985500331
554+986158637+987110947+988308304+989057295+989599220+989964394+990275733
540+991027336+991705069+991935219+992599014+993619969+994258675+994900518
527+995753956+996593456+997344275+998011032+998581355+999095317+1000071409
513+1001026420+1001092451+1000860645+1000750274+1000736946+1000963351
501+1001113358+1000945318+1000481707+999810334+999230428+998750876+998353383
488+998726658+999892394+1000698965+1000896623+1001100988+1001352481+1001440290
474+1001257528+1000704976+1000104686+1000240145+1001488376+1002834607
463+1002465164+1000567426+999207169+998690246+997450639+995043904+992271821
449+989790257+987766205+986187907+984638878+982701852+980679020+979191580
436+977910509+975856229+973655515+972729512+973451411+975688277+978932421
422+982889840+987882326+991622051+991220203+989553224+989963261+992462771
409+994690752+995313952+995440439+996203803+998334741+1002065929
##END=
