##TITLE=павел 9-многокр
##JCAMP-DX=4.24
##DATA TYPE=INFRARED SPECTRUM
##DATE=3/2/2015
##SAMPLING PROCEDURE=Instrument type and / or accessory
##ORIGIN=Default
##XUNITS=1/CM
##YUNITS=TRANSMITTANCE
##RESOLUTION=4
##FIRSTX=3996.3347
##LASTX=399.24773
##DELTAX=-1.928733
##MAXY=1.5801144
##MINY=0.56063974
##XFACTOR=1
##YFACTOR=1.4715962e-009
##NPOINTS=1866
##FIRSTY=1.1388258
##XYDATA=(X++(Y..Y))
3996+773871114+774032155+775160013+775834799+775445805+774892204+774615242
3983+774792647+774955389+774676240+774778633+775703082+776691527+776776341
3969+776172679+776063967+776600394+777226091+777696092+777641413+777426421
3956+778118138+779453859+780328084+780873098+781457724+781054148+779313798
3942+777962605+778189991+779139957+780032328+780940739+781553393+781764821
3929+781585472+780737087+780490584+781365862+782026878+782597733+783175554
3915+782835244+781739222+780704847+780320794+781286638+783750540+785337220
3902+784229128+783016862+783492615+784022480+783725104+783745113+784047187
3888+783814374+784219083+784685035+783912797+784235042+785083183+783822150
3875+782428266+782825119+784335490+785318670+785148231+785813945+786606192
3861+785558693+783970393+782727262+783271061+787373326+789807337+788053297
3848+785583157+784295068+783977278+783442957+783139749+784405642+785809328
3834+786262804+786316835+784979818+782573673+781360273+781303325+782133321
3821+783958566+784018835+783162836+783511246+783028284+781631240+781605642
3807+783405937+784109886+783473335+783834463+783206418+781647604+782135184
3794+783099408+781946033+779738436+778975028+780428938+782198693+782181115
3780+781387977+781367968+781217539+780118277+778996899+779517854+780737573
3767+780603588+779750749+778975433+779085116+779967361+779243970+777147595
3753+777119162+780428128+781622735+778360348+776975699+779942816+780432016
3740+777558786+775507127+775445238+775671247+775462816+774657609+773096851
3726+771641321+770682200+770079672+770287778+770594146+769618986+767646227
3713+766497308+765986803+764043369+761572581+759795292+758617453+757250220
3699+754307730+750051066+746086026+742910479+740170505+738260041+736513696
3686+733240049+728840246+725023368+722712649+722035271+723500927+723870399
3672+720761520+717899631+716361474+713804413+710440444+707345904+704633310
3659+702735888+701843031+699812110+696440526+695070053+696303948+695159565
3645+690132365+684869272+682023828+680442413+677660478+674228544+671595580
3632+669645382+668387549+666386235+662377209+658335618+655471582+653508464
3618+651567663+648786780+645580086+642278249+638875923+636281599+633821869
3605+630049423+626423518+624252333+622461152+620582199+618565251+615179289
3591+611090835+608299989+606302564+603549710+599957505+595909433+592034270
3578+588720080+586094123+584046920+581316464+577491890+574690594+573575617
3564+571552310+568227508+564845636+561057515+556783799+553060929+549924346
3551+546557826+543034516+539775694+536573657+533472271+530722415+527965835
3537+524821029+521405337+518341053+516220700+514389379+511637822+508140475
3524+504767271+501999512+500028009+498385029+496184722+493300921+490739689
3510+488896946+486487885+482763314+478970738+476479131+474996342+473581963
3497+471799611+469671603+467594913+465466217+462823006+460159097+458076250
3483+456006567+453519092+450946073+448427167+446049131+443631402+440606690
3470+437254669+434843745+433837843+433039075+431693633+430091765+427940427
3456+425366638+423195697+421199770+418920361+416749500+415229124+414388759
3443+413470264+411689006+409231421+406905109+404847658+402634390+400731014
3429+399556537+398247305+396663177+395828645+395454312+394416494+392831191
3416+391335360+390209851+389265798+387925784+386148090+384569875+383576205
3402+383120056+383177854+383207786+382634704+381946348+381442891+381087190
3389+381178606+381469907+381701141+382102489+382558071+382791816+382574718
3375+381846912+381093306+380973902+381888469+383366114+384446501+384850968
3362+384836914+384990098+385794779+387030537+388254307+389397515+390446472
3348+391141551+391959720+393632348+395481450+396596063+397502043+399009052
3335+400610638+401515646+402132148+403356080+405373797+407622019+409705757
3321+411684915+413665976+415749431+417687518+419105664+420237045+421394997
3308+422748458+424776868+427550014+430359654+432586207+434170133+435525822
3294+437219593+439457811+442028197+444527823+446599694+448559248+450957738
3281+453427594+455679259+458238061+461022711+463338857+465182045+467028716
3267+469080618+471567365+474657815+477870463+480831910+483732682+486625637
3254+489477522+492390729+495491385+498791197+501764754+504246964+507095447
3240+510582303+514260538+517923260+521379699+524507857+527435443+530670530
3227+534356866+537863326+541136405+544526702+548214090+552517900+557033584
3213+560872415+564322616+568244074+572379632+576230047+580146969+584224284
3200+587896524+591028126+594107194+597614667+601639287+605852247+610126774
3186+614520177+618658976+622352035+625825242+629153771+632665659+636893606
3173+641456111+645642177+649613050+653594696+657500641+661229424+664484398
3159+667493193+670849264+674308497+677654402+681344667+685044247+688257138
3146+691702195+695541998+698704342+701231997+704389561+707969656+711017780
3132+714128116+717661876+720896234+723763227+726490887+729043249+731623235
3119+734245344+736722046+739146498+741665080+744522514+747590322+750287767
3105+752514968+754397404+756229778+758413964+760886210+763310501+765301567
3092+766997687+768772384+770415931+771812245+773440319+775594857+777909707
3078+780131157+782194886+783895866+785208744+786032988+786547948+787565069
3065+789438189+791431361+792749423+793470140+793963634+794586900+795674983
3051+796870968+797306703+796850068+796429562+796716812+797342103+797664024
3038+797495692+796861166+795820391+794866293+794394590+793915030+792842176
3024+791188746+789003912+786451388+783889143+781081123+777627966+773556645
3011+768859952+763385918+757001449+749780503+741798498+732516902+720961364
2997+706767839+690193444+671077946+648819223+622831191+592847984+559386507
2984+524237335+490593876+461856594+440678543+429288299+429746271+443578343
2970+470627200+508023825+550540079+592513709+629873354+660738604+684629735
2957+701352373+711565547+716892554+718530998+717280091+713572572+707406578
2943+699619394+691887458+685384962+680433502+676772927+673938904+672262833
2930+672875082+676102150+680841776+685676262+689927418+693431852+695818961
2916+696518373+695565328+693691560+691157587+687590290+683169183+678918351
2903+675407436+672476205+670340744+669158045+668576254+668193011+667937273
2889+668422260+669837206+671987734+675334975+679986669+685593716+691958258
2876+699180338+707934904+718217906+728894521+739430670+750052200+760372951
2862+769880800+778756228+786958328+794351089+801357043+807950429+813503931
2849+817903491+821650460+825280132+828990162+832516793+835650378+838719888
2835+841938855+844996456+847931414+851068564+854190080+857104623+859764886
2822+861859317+863634905+865699768+868101943+870699507+873272769+875517467
2808+877742724+880402258+883217163+885757212+887931111+889905408+891879625
2795+893752259+895549881+897359329+898865570+900011330+901012412+901961487
2781+903087482+904264268+905119942+905928714+906838259+907444189+907774130
2768+908217318+908912437+909566567+909716187+909396453+909053227+908970357
2754+909179922+909624001+910240139+910715406+910803055+911104238+911922002
2741+912394515+912478924+912830250+912848639+912250079+912192565+913082181
2727+914003553+914351801+914527018+915299418+916766289+918482661+920366717
2714+922285282+923815420+924849066+925464475+925951164+926800115+927987755
2700+929158385+930624770+932680560+934470324+935647515+937021228+938627755
2687+939986320+941179145+942274276+943053561+943544624+943994536+944325854
2673+944415933+944415933+944560126+945074681+945755786+946090020+946169163
2660+946505099+946964569+947158499+947543282+948759437+950423721+951748182
2646+952876202+954123869+954990722+955284939+955484297+955949843+956654116
2633+957228130+957491645+957614289+957769336+957950387+958002393+958140186
2619+958680015+959193112+959519326+960287190+961264051+961820243+962179022
2606+962249336+961827291+961454903+961446316+961702216+962079303+962364204
2592+962402925+962316086+962500619+962852513+963117567+963638765+964185561
2579+964239187+964159882+964309825+964621782+964891940+965019850+965326541
2565+965934092+966549825+966876039+966667690+966239893+966117006+966034055
2552+965655024+965233789+964966547+964795137+964779502+965038238+965422534
2538+965765274+966174115+966707464+967124325+967104641+966870936+967153650
2525+967937309+968403746+968393702+968510270+968942847+969111746+968860463
2511+969029929+969938825+971097222+971959135+972036415+971758157+971920251
2498+972565471+973506932+974371193+974918961+975408080+975825670+975894364
2484+975897766+976533669+977619241+978265190+978466167+978716316+978887889
2471+978980804+979679163+981039267+982158052+982737575+983226937+983749998
2457+984311942+985102082+986059825+986785484+986931702+986786213+986957867
2444+987263424+987168484+986682687+985925111+985252107+985192243+985337650
2430+985113585+984792474+984426890+983807026+983282913+983114904+983038515
2417+983027093+983362299+983855145+984131378+984344750+984750837+985279730
2403+985696429+985855850+986224836+987118017+987706289+987740797+988124608
2390+988924307+989195841+988476501+987518272+986983870+986494346+985977847
2376+985674881+985757508+987224541+989463164+990274771+991297968+994098616
2363+994598428+991899848+990730677+993463522+998942579+1003964757+1003948556
2349+998876883+993098182+990797346+991899686+992878248+993808044+996333998
2336+999122576+999295688+997688351+996814450+997121627+998251510+999637941
2322+1000754944+1001588261+1001773118+1000868921+999840944+999960510+1000607350
2309+1000634811+1000445660+1000604919+1000870136+1001081806+1001008657
2297+1000461051+999991212+1000015757+1000341323+1000699130+1000828093
2286+1000781514+1000776735+1000769039+1000907075+1001201778+1001098251
2274+1000463644+999733448+999374750+999596466+999864112+999751108+999609913
2260+999540409+999367703+999271953+999427972+999847263+1000400539+1000814889
2247+1001182984+1001733182+1002170295+1002328987+1002476743+1002640296
2235+1002786918+1002958653+1003068498+1003232942+1003511443+1003512091
2224+1003059749+1002806441+1003236182+1003573818+1003278630+1003048246
2212+1003245093+1003525214+1003630604+1003520435+1003321158+1003177047
2201+1003158173+1003185877+1003158659+1003250358+1003616023+1003922553
2189+1003866091+1003739963+1003711773+1003662764+1003769045+1004117050
2178+1004513821+1004956523+1005518630+1005718635+1005057620+1004262781
2166+1004369872+1005241424+1006132256+1006630205+1006638630+1006191877
2154+1005750147+1005812846+1006028243+1005860964+1005452528+1005178887
2143+1005095774+1005020438+1005133361+1005696602+1006264621+1006310876
2131+1006044202+1005984095+1006152670+1006272479+1006484474+1007001621
2120+1007652106+1008331510+1009137122+1009850792+1010180085+1010435904
2108+1010876905+1011163021+1011231229+1011272542+1011077154+1010733442
2097+1010644011+1010672930+1010777996+1011218673+1011676928+1011747728
2085+1011661942+1011690780+1011803947+1012045266+1012388492+1012677686
2073+1013118849+1013914255+1014662029+1014951628+1014929918+1014959404
2062+1015281082+1015828283+1016226108+1016338950+1016446284+1016837628
2050+1017477582+1017972047+1018138273+1018380321+1019095611+1019953149
2039+1020441377+1020678160+1020685451+1020466003+1020612464+1021119971
2027+1021601314+1022190152+1022650352+1022798189+1023101154+1023624296
2016+1023922563+1023826246+1023707085+1024045046+1024791199+1025410982
2004+1025531034+1025442251+1025654570+1026104562+1026291283+1026171879
1992+1026239196+1026469093+1026549371+1026784371+1027252591+1027514486
1981+1027650577+1027956378+1028203205+1028284698+1028372429+1028374049
1969+1028248002+1028226211+1028471581+1028904400+1029404617+1029977659
1958+1030482818+1030680960+1030720653+1030883720+1031015113+1030848725
1946+1030526885+1030501044+1030676505+1030237043+1029087475+1027799305
1935+1026663995+1025664047+1024523958+1023308046+1022612683+1023029382
1923+1024344852+1025676684+1027190944+1028926029+1030034445+1030964646
1911+1032294129+1033673999+1034869497+1035701032+1036078524+1036290924
1900+1036661773+1037295813+1038183890+1038830487+1039011861+1039602805
1888+1040488210+1040755856+1040730015+1040802030+1041049668+1041637372
1877+1042288910+1042599328+1042684304+1043220164+1044361631+1044815350
1865+1044003743+1043280919+1043397731+1043657196+1043724026+1043797904
1854+1043724350+1043423653+1043242522+1043387524+1044269283+1045664544
1842+1045728296+1044683228+1044056154+1043648204+1042990753+1042887955
1830+1043955463+1044831389+1044900893+1045173562+1045013087+1043971178
1819+1043153333+1042856848+1042318720+1041591441+1041523477+1041798981
1807+1041637048+1041192645+1040781940+1040609963+1040677442+1040448921
1796+1039837968+1040012295+1040983242+1040498660+1038785609+1037735923
1784+1037277424+1036782149+1036381651+1035469596+1033664035+1032536988
1773+1033279091+1033479016+1031950013+1030391280+1029320937+1029287076
1761+1030004391+1030083859+1029859632+1029138105+1028396164+1029480601
1749+1030979794+1030636811+1029649582+1028926353+1028469556+1028211954
1738+1026860032+1025844611+1027916198+1028881637+1026545482+1024116980
1726+1022551199+1021468624+1020059673+1018425523+1018334634+1018955470
1715+1017519867+1014771712+1011860652+1009096295+1007308718+1005758005
1703+1003239908+1002020918+1001983574+999961077+997126164+993486852+989210747
1690+985311161+981219588+978567831+978204678+975436675+970333976+965970869
1676+963493682+961517764+958749357+956703773+955097651+952143820+949491009
1663+948692525+948102067+946441184+944436104+945127902+950712754+952412357
1649+950182240+950975540+953459937+953902882+954247323+955733555+959226649
1636+965854787+970893247+972333629+974449689+978632312+983254884+988270177
1622+992804613+995377551+998968744+1005136683+1008879926+1010051446+1012106426
1609+1014986866+1017176722+1018598959+1020003455+1021589487+1023115412
1597+1024507189+1025743596+1026809321+1027711008+1028454812+1029310082
1585+1030359687+1031195758+1031373406+1030956302+1031829231+1034451664
1574+1034660095+1033139921+1033697896+1035048279+1034797725+1033496675
1562+1031750088+1032744689+1037663665+1038319820+1035485230+1033202864
1551+1031809709+1030691167+1029467721+1028771549+1029146691+1031245415
1539+1032927927+1030303874+1026803975+1025523582+1024365184+1022206029
1528+1020937949+1020576821+1020236754+1020440405+1019903654+1017703753
1516+1015206880+1012670395+1010048449+1007640522+1006412621+1006424772
1504+1003387827+997830599+993018957+989532668+985930377+980391375+973466590
1491+966683891+960139271+953816610+948485148+944297096+940651224+936679704
1477+931591343+924840561+916023619+905518010+895590627+888657337+885791640
1464+884844023+882251643+878405522+876395986+877718584+879833914+882294577
1450+886148880+891552195+897365972+901809681+904348191+904750227+903753682
1437+902514521+899849397+895597027+891770671+888627688+885180606+881844908
1423+879000112+876747151+875617187+874559643+872660844+871282432+871348210
1410+872460028+874253275+876976886+880061301+882427914+884519347+886143048
1396+885817562+883104807+877574635+868431236+854788558+836611200+817772260
1383+804418290+801693059+810785586+827285212+845485494+861572715+874584512
1369+887151744+901307439+916431569+931639542+944636191+952838372+956827308
1356+958286241+957662570+954829357+949987905+943531825+936464225+930426303
1342+927111667+927338162+930011629+932952257+934853810+935612601+935621512
1329+935160502+934343630+933270452+931805120+929758159+927349260+925073050
1315+923377983+922292411+921710134+922085681+923815744+926744949+930690466
1302+935586517+941298954+947516469+953785908+959843596+965711648+971104513
1288+975477989+978756820+980973004+981966876+981862215+981057494+980448566
1275+981567351+985335139+991094641+997648009+1004443831+1011057712+1016987977
1261+1022159855+1026421218+1029676314+1032415316+1034866743+1036867449
1250+1038677546+1040661402+1042577942+1044039548+1045249465+1046557077
1238+1047818920+1048764836+1049480531+1050041098+1050278043+1050333533
1227+1050606849+1051123268+1051454667+1051278882+1050967573+1051113547
1215+1051727416+1052297056+1052405443+1052183647+1051884165+1051430689
1204+1050686884+1049780013+1048895419+1047907136+1046646103+1045037065
1192+1043089014+1041127839+1039253180+1037154375+1034688042+1031643969
1180+1027483055+1021669845+1013678525+1002639648+987360957+967136719+943192407
1167+919721660+902416179+895045775+897577481+906934252+919155261+931134059
1153+940959536+947837579+951806669+953131616+951704115+947078465+938958587
1140+926809026+910169015+890388533+871262180+857707719+853467823+859316595
1126+872487813+887859744+900518837+907574772+908308937+903323860+894155673
1113+883047859+871730481+860808335+850004215+838060736+822748264+801930814
1099+775391206+745575845+716974371+694686567+682687354+682868323+694634641
1086+715328637+741533525+769921951+797758559+823078691+844524025+861443995
1072+873593475+880275645+880289902+872869517+856962942+829511197+786716685
1059+727467019+656732818+586536623+531047779+499824925+495937935+518275599
1045+563271836+624919546+695021368+764736301+827110885+878629262+919058620
1032+950386296+974871977+994275535+1010154648+1023065025+1033065071+1040875341
1018+1047285652+1052655025+1056999177+1060347187+1063128556+1065712754
1007+1067803701+1069174093+1070347395+1071525882+1072460215+1073184091
995+1073631735+1073741823+1073671185+1073522214+1073236989+1072556208
984+1071418629+1069923001+1067978352+1065670630+1063198222+1060380805
972+1056800710+1052064648+1045697109+1036785632+1023397558+1002171186+969180035
959+923536675+872594580+831936541+816116724+828466291+860670380+900656468
945+939402828+972120662+996909308+1014190407+1026028416+1034717205+1041620847
932+1046858341+1050229034+1052095268+1053053093+1053435040+1053290281
920+1052718940+1051907738+1050890535+1049684425+1048184503+1046150261
908+1043493400+1040203633+1036265083+1031624203+1026138342+1019283952
897+1010098511+997415358+979799458+955873453+924603049+886715118+846804366
883+813478333+798118229+809271812+844612727+891322136+935338798+968993638
870+991432115+1005198086+1013256480+1017676210+1019867687+1020662526+1020499297
856+1019838525+1018861745+1017400625+1015466993+1013513757+1011726909
845+1009638392+1007046418+1004382509+1001763965+998846262+995666664+992350570
831+988540416+983813750+977652049+968651546+954202526+932598662+908689102
818+894431096+897508382+912895461+929399299+939868617+943658277+943543652
804+942828929+943602463+945850888+948271047+949695227+949756630+948733839
791+947182072+945463756+943587720+941618445+939598459+937369314+934949398
777+932533938+930251490+928156088+926166480+924137097+922077581+920082464
764+918147455+916214147+914202505+912147282+910180194+908172683+906063591
750+904049519+902182393+900389551+898497313+896505761+894751802+893352571
737+892011180+890477235+888864471+887273254+885625576+883967448+882434557
723+881042212+879561813+877870067+876254710+874900439+873731754+872655416
710+871446066+869973443+868545213+867409011+866311369+865127617+864250556
696+863597966+862632041+861544200+860596340+859571928+858639621+858075084
683+857667296+857233667+856781892+856222459+855654115+855081235+854480165
669+854618362+855215301+854456349+853237845+852355033+851890459+851679922
656+851595027+851491581+851400205+851431312+851468170+851429287+851402069
642+851541238+851752261+851899936+852266249+852857599+853465798+854011946
629+854374613+854734688+855107400+855464559+856130516+857015678+857735504
615+858204533+858852426+859861689+860721576+861184935+861396201+861868390
602+862991630+864134393+864855758+865655781+866815637+867917896+868770817
588+869565169+870218570+870780190+871355500+871856770+872379426+873129954
575+874081865+874981202+876076171+877600476+879133368+880353006+881159834
561+881662238+882092141+882761662+883767847+884783511+885833116+886817186
548+887471235+887975907+888402651+889007610+890031455+890846221+891222984
534+891921019+892833804+893362373+893814310+894649733+895930532+897090873
521+897723293+898067653+898319746+899050265+900214333+900832415+900904835
507+900913584+900973529+901120799+900996210+900333818+899338487+898264661
494+897366053+896496121+895532950+895283368+896158404+897393190+898583747
480+899874104+900928489+901371758+901249924+900670320+900026397+900103192
467+901237854+902469157+902372921+901026183+899576566+898266444+896279509
453+893286227+890171354+887778575+885665675+883238468+880515182+877564833
440+874563045+871682444+868978923+866670391+864995171+864545259+865963769
426+868856603+872720789+877729925+883437178+887605868+889355615+891453610
413+894880441+898183574+900276141+901413801+903262700+905768564+906560648
399+906557165
##END=
