##TITLE=павел 9-многокр
##JCAMP-DX=4.24
##DATA TYPE=INFRARED SPECTRUM
##DATE=3/2/2015
##SAMPLING PROCEDURE=Instrument type and / or accessory
##ORIGIN=Default
##XUNITS=1/CM
##YUNITS=TRANSMITTANCE
##RESOLUTION=4
##FIRSTX=3996.3347
##LASTX=399.24773
##DELTAX=-1.928733
##MAXY=1.8487911
##MINY=0.49945423
##XFACTOR=1
##YFACTOR=1.7218209e-009
##NPOINTS=1866
##FIRSTY=1.4646777
##XYDATA=(X++(Y..Y))
3996+850656234+850272814+850410868+850764933+850216665+849525913+849374844
3983+849428362+849215604+848607172+848934651+851066241+852957864+853042122
3969+852587944+852224464+851287929+850622033+851125713+851406805+850961628
3956+851266051+852250496+853038176+853648823+853566711+852291759+850708230
3942+850262221+851009607+851492240+851294368+851136514+851288345+851649056
3929+851481024+851065133+851984912+852874783+851991697+851349687+851961996
3915+852105034+851362772+850134484+848148840+846531801+847167788+849175518
3902+850193887+850919948+852368748+852394849+850592677+849835530+849770518
3888+848280524+847832716+848646220+847500737+846958354+848309395+848236837
3875+847302103+846278957+845134166+845055792+845014667+845365616+846493999
3861+846840517+846247732+843981689+841383736+843493448+847301619+847443618
3848+846180436+845235732+844392942+842523058+840218313+840550085+842660212
3834+843271829+843072433+842189833+839834131+837638223+836246957+836328654
3821+838913729+839781790+839125863+840617450+841290755+839166712+836828873
3807+837183284+837792270+836405089+836588144+837104564+835971543+836199462
3794+837302021+837198238+836084187+834719992+834320855+834962589+834667235
3780+833733401+833665551+833217535+831571279+829745152+829449244+830331844
3767+830369300+829668302+828277590+827075611+827226611+826198341+822404779
3753+818875069+819813196+821888775+819001976+816343235+819071557+819604662
3740+815316073+811757908+811524935+811913824+811538366+810747986+809154694
3726+807303434+805600891+804323169+804185877+804185116+802478279+798390817
3713+794123068+792142617+790500654+787418475+783247862+779364711+776590903
3699+773003590+767855110+762304378+756401589+750080139+745052612+742140058
3686+739218988+734961071+729941644+724922909+720161173+717036000+714306155
3672+708910301+703603066+700581260+697257662+692757631+687976925+683233535
3659+678711973+674740617+670340077+664974616+660678827+658814690+656648830
3645+652042732+646626246+642223352+638122458+633251954+628437530+623661670
3632+618176642+613746469+611825906+609691131+605832904+600769652+595877270
3618+592357669+588880715+584413156+579747933+575767541+572926472+570108077
3605+565423537+559759641+555413519+552146692+548824409+545369195+540888620
3591+535372263+530533538+527199935+524235143+520526013+516416153+512515589
3578+508688864+504580596+500415280+496136384+491264254+486864994+484012882
3564+480759833+476332880+472538867+469480367+465595866+460773238+456264068
3551+452347996+448138023+443880141+440306467+437053383+433637703+430110001
3537+426862560+423823307+420635442+417734381+415237926+412205216+408459806
3524+404864254+401634157+398526119+395729741+393241144+390398274+387021226
3510+383866075+381258602+378570299+375590483+372976572+370513730+367550047
3497+364801059+362722503+360664510+358465036+356255349+354010181+351931209
3483+349856980+347345744+344592360+342344664+340943532+339298418+336212363
3470+332601960+330219223+329090494+327926421+326435353+325115364+323495798
3456+321185480+319004664+317241713+315170669+312771246+311180931+310907178
3443+310408829+308479023+306032209+304083260+302788645+301815313+300934132
3429+300426332+300114015+299470412+298557556+297742529+296974926+295840416
3416+294624383+294078054+293906283+293413369+292843431+292438340+291653326
3402+290485826+290073275+290793157+291563736+291766455+291903504+292378937
3389+293072805+293901679+294759217+295251508+295306169+295522180+296140444
3375+296779581+297652489+298918025+299705602+299852275+300513256+302097443
3362+303800333+305221336+306917614+309136439+310921337+311652937+312211347
3348+313538121+315726172+318292000+320448098+321817902+323173373+325523224
3335+328481092+331059140+333221989+335496029+337778515+339614993+341562696
3321+344185261+346846356+349040914+350841494+352567301+354751855+357312386
3308+359722194+362014754+364573139+367396900+370126987+372734771+375409435
3294+378022447+380537872+383207448+386133641+389085935+391759596+394099270
3281+396540476+399649448+403024107+405872619+408301190+410747692+413453512
3267+416503947+419971830+423844008+427581490+430973873+434523557+438194124
3254+441574772+444907129+448661540+452766934+456605706+459986873+463677553
3240+467823726+471725571+475476831+479552108+483913669+488573285+493636329
3227+498590814+502902873+506960876+511480846+516903529+522861463+528344691
3213+533065199+537529158+542205217+547063327+551967894+557334982+563183249
3200+568779260+573884296+578843316+584052653+589513864+594772219+600073500
3186+605944441+611894932+617439226+622864712+628437115+634053896+639557341
3173+644854191+649963068+655127888+660520073+666109368+671707318+676802903
3159+681127632+685225272+689636612+694655001+700382904+705861147+710419611
3146+714911334+720051644+725499147+730634542+735479290+739911263+743556110
3132+747306954+751823393+756386150+760544923+764473285+768560470+772838466
3119+776760389+780294391+783702525+786939511+790530286+794753448+798636945
3105+801638881+804345186+807285503+810421407+813539933+816616850+819550036
3092+822221585+824944229+827765809+830111887+832235099+834881862+837823564
3078+840768935+843673250+846150942+847893435+848983323+850046764+851636663
3065+853575158+855548062+857435185+858757563+859072649+859177123+860126812
3051+861535387+862328398+862307489+862147004+862360246+862757651+862726911
3038+862046544+860833973+859141468+857342342+855664445+853754406+851390050
3024+848727986+845699395+841954159+837419650+832248807+826693714+820384241
3011+812426159+803049048+792792521+781396395+768706901+754619702+738524774
2997+719947792+698885017+674627280+646323622+614479731+579516897+541259890
2984+501259421+463785178+433518066+412955855+403297410+406079734+423160872
2970+455588133+500747190+552021551+602626242+647820471+685022138+713641020
2957+733853043+746625964+753840746+756630686+755444492+750893644+743519969
2943+734559857+725853351+718294751+712144864+707682567+704602465+702886005
2930+703662469+707445993+713061320+718907683+724083788+728309719+731141892
2916+731723461+729733525+726047969+721700531+716737461+711265448+705897772
2903+700724230+696546347+694887559+695181875+695576303+695497722+695496615
2889+696384408+698423016+701411727+705806591+712391546+721098122+730918888
2876+741198193+752570917+765651793+779716006+793932050+808241561+822032921
2862+834774479+847075430+858647826+868612253+877449059+885604390+892798401
2849+899021330+904308002+909097225+914048456+918525431+922061787+925717088
2835+929860492+933730004+937209865+940916053+944892671+948554688+951731371
2822+954461908+956831733+959150810+961494188+963938925+966562148+969308955
2808+972550372+976287924+979769931+982695293+985063111+987064124+989297558
2795+991731494+993918679+995813072+997425541+998660476+999443794+1000049665
2781+1000913018+1001886731+1002694697+1003478915+1004278296+1004873020
2770+1005078854+1005105786+1005444481+1005934730+1005906898+1005323251
2758+1004785508+1004753383+1005220161+1005904613+1006595019+1007104861
2747+1007267216+1007443487+1007932697+1008240375+1008210050+1008242244
2735+1008290777+1008222097+1008247575+1008599909+1009198441+1009541290
2723+1009795796+1011023184+1013117940+1015014964+1016655751+1018412990
2712+1020037852+1021034690+1021375669+1021700171+1022695347+1024278738
2700+1025710299+1027138882+1029230939+1031247322+1032718831+1034465338
2689+1036324837+1037673870+1038842824+1039939359+1040478695+1040554299
2677+1040879216+1041556190+1041925833+1041542828+1040792881+1040494965
2666+1040718523+1040843076+1040807282+1041069195+1041486194+1041785495
2654+1042432144+1043683903+1045290972+1046807968+1047711200+1048193764
2642+1048820544+1049553390+1050123536+1050671111+1051211555+1051436497
2631+1051448821+1051391149+1051267427+1051332438+1051562781+1051801501
2619+1052157851+1052498346+1052712488+1053074099+1053481267+1053763328
2608+1054096276+1054214183+1053967916+1053714241+1053492275+1053316697
2596+1053403794+1053569472+1053484313+1053461189+1053886981+1054141140
2585+1053770529+1053585396+1053786175+1053710779+1053629221+1054002256
2573+1054555924+1054744726+1054370929+1054080560+1054396200+1054996739
2561+1055279008+1054958522+1054507667+1054336589+1053956631+1053171720
2550+1052609190+1052259626+1051597675+1050961688+1050979273+1051407211
2538+1051497424+1051261196+1051354039+1051746806+1051839442+1051644339
2527+1051826426+1052495715+1052984164+1052895544+1052669216+1052889520
2515+1053113355+1052778122+1052499454+1052990464+1054211344+1055294448
2503+1055285932+1054699862+1054582441+1055025403+1055716778+1056316902
2492+1056937796+1057918363+1058692335+1058686727+1058323038+1058280252
2480+1058682988+1059204393+1059754114+1060163497+1060086024+1060036175
2469+1060934561+1062502998+1063626396+1064014939+1064245213+1064838068
2457+1065793849+1066628262+1067102657+1067363255+1067343385+1066961764
2446+1066368148+1065658842+1065148584+1064991214+1064569507+1063854316
2434+1063473595+1063088790+1062318488+1061725495+1061442465+1060977971
2422+1060274411+1059425874+1058469192+1057887346+1057976174+1058252835
2411+1058390888+1058724806+1059358024+1059960433+1060216046+1060086786
2399+1060420634+1061573803+1062092922+1061525962+1061298734+1061778737
2388+1061955631+1061346091+1060471867+1059710012+1058981458+1058607869
2376+1058560859+1058380295+1058807472+1060088239+1061049352+1062486036
2365+1064619633+1064060842+1061776867+1062061352+1064749240+1069003626
2353+1073511549+1073741823+1068744828+1062278678+1058788294+1059279443
2341+1060761683+1062736041+1065235681+1066539365+1065972612+1065523419
2330+1065992621+1066010206+1065642156+1066088026+1067561196+1068831648
2318+1068541140+1066712244+1065154054+1065336209+1066054240+1065743862
2307+1065005546+1064763918+1064923503+1065012954+1064603017+1063843515
2295+1063272123+1063030634+1063120569+1063245953+1062882680+1062296402
2284+1061943238+1061732557+1061698632+1061651414+1060985518+1059941809
2272+1059131627+1058561136+1058273051+1058126343+1057756909+1057264582
2260+1056678721+1056087597+1056049034+1056552991+1056998376+1057192856
2249+1057256621+1057279468+1057323916+1057336656+1057385050+1057661088
2237+1057954157+1057904170+1057549205+1057102643+1056815943+1056849107
2226+1056855684+1056429754+1055927527+1055748902+1055393314+1054673138
2214+1054301972+1054402154+1054430263+1054146056+1053617105+1052903990
2203+1052181806+1051806209+1051716551+1051692942+1051805309+1051875513
2191+1051721674+1051442175+1051097387+1050697558+1050340655+1050271559
2179+1050540396+1050852090+1051027045+1051220486+1051199093+1050447068
2168+1049553806+1049508803+1050197409+1050872375+1051037292+1050710644
2156+1050126097+1049631348+1049441161+1049118598+1048424038+1047813460
2145+1047429070+1046998986+1046539477+1046392700+1046719694+1047100207
2133+1046993170+1046545016+1046350328+1046478412+1046524799+1046495721
2122+1046734649+1047295032+1047975814+1048622464+1049083496+1049268629
2110+1049416998+1049683828+1049828251+1049758947+1049554221+1049169831
2098+1048899886+1049126352+1049429737+1049266760+1048848861+1048611248
2087+1048698206+1048926472+1048915603+1048579123+1048450416+1048849207
2075+1049322286+1049704183+1050327708+1050953864+1051030437+1050751077
2064+1050728991+1051065401+1051568251+1052051991+1052224178+1052152104
2052+1052241001+1052557334+1052971425+1053442842+1053954969+1054548654
2041+1055064105+1055345750+1055572355+1055680706+1055611057+1055768288
2029+1056142639+1056490888+1056985152+1057418214+1057523865+1057724299
2017+1058156183+1058277690+1057874330+1057536258+1057825035+1058628916
2006+1059479323+1059877559+1059773431+1059683910+1059900753+1059952055
1994+1059566004+1059496562+1059986119+1060230378+1060111710+1060075154
1983+1060164120+1060349669+1060561111+1060573227+1060552318+1060685110
1971+1060663578+1060376739+1060162113+1060318375+1060788338+1061342837
1960+1061836824+1062126501+1062143325+1062081153+1062116393+1061990040
1948+1061490306+1060853557+1060381655+1060086578+1059475099+1058283090
1936+1056779941+1055133893+1053441180+1051876413+1050660933+1049863422
1925+1049811081+1050901108+1052355515+1053777590+1055594787+1057199779
1913+1058222372+1059184522+1060496307+1062039612+1063127285+1063462518
1902+1063532445+1063834653+1064396213+1065137576+1065691382+1065609685
1890+1065670196+1066432744+1067159429+1067544649+1067601491+1067568327
1879+1067865620+1068183129+1068031367+1067420027+1066973950+1067411511
1867+1068111194+1068032752+1067615268+1067471745+1067501101+1067639846
1855+1067736705+1067493900+1066789025+1065817389+1064842222+1064470987
1844+1065351095+1066013530+1065464847+1064732277+1064145239+1063162664
1832+1061859464+1061393447+1061788083+1062033796+1062450172+1062576733
1821+1061754920+1060831125+1060226154+1059222324+1057633256+1056587885
1809+1056578539+1056544683+1055690468+1054294356+1053254317+1053009988
1798+1052492253+1050818996+1049513580+1050075487+1050375480+1048968913
1786+1047382060+1046314534+1045184351+1043958348+1042258574+1039372536
1774+1036338961+1035312145+1035479761+1035010837+1034218656+1032686429
1763+1031103799+1030712971+1030517660+1030186720+1029267633+1027448498
1751+1026544920+1026841658+1026665526+1025905124+1024587108+1022917243
1740+1021592096+1019117727+1015760965+1015593764+1016947020+1015741302
1728+1013465843+1011037169+1008500558+1005315705+1000665644+996491707+994921332
1715+993871184+991591571+988041576+983350736+978627424+974125940+968470457
1701+963031607+959563862+955834204+952096445+948382294+943284355+937049795
1688+929449655+921626856+916758637+913196111+907842766+901327668+895191905
1674+889961382+884492624+879378830+875941064+872265408+867597761+863867202
1661+861365555+858407791+853900768+849693045+850998806+853054792+851195709
1647+851101620+854317628+856497266+857411438+858067642+859877568+866373489
1634+874660296+879661307+883895823+889722593+896144709+903386146+911428902
1620+917421419+923115951+932285774+940807425+946221903+951407008+957142111
1607+962451631+967178127+971716651+975933167+979503932+982545955+985512304
1593+988613314+991567478+994010830+995985396+997703656+999164503+999947890
1580+999277147+998806907+1001249982+1003107473+1002116243+1002112712+1004091017
1566+1004983380+1003765269+1000033672+996404126+998926613+1002687012+1003052501
1553+1002355241+1001507534+1000535483+998693985+995843881+992904533+992165386
1539+994794079+995276020+992904879+991555431+991002386+988939200+986363195
1526+984126231+981755159+980389441+979814172+978179547+976323303+974474674
1512+971480770+966698263+961510942+960006063+959738956+956046961+950311027
1499+944523375+939421974+933608152+925591289+916063732+907343170+901055992
1485+896408215+892123573+887572379+882242989+875020315+864974053+852852974
1472+841405338+832496736+825875155+821914599+819866368+816551631+810932911
1458+806360600+807662900+812243380+816645790+821402265+827593415+834829936
1445+840730994+843878945+843757231+841051411+837921392+834948327+831051467
1431+826806012+822934007+818843222+814574573+810442454+806360046+803160792
1418+801218974+799186390+797057362+795974258+796140075+797101672+798931261
1404+801443501+803447561+804740099+804934578+802172609+797009313+791107632
1391+782359100+767476882+747073496+726786008+712992986+710950778+721967153
1377+740988205+761839746+780859967+796962234+812562897+829762599+847535700
1364+864740041+879605227+889580523+894637337+896321465+895414286+892027061
1350+886387501+878950338+870841671+863810569+859642171+859439730+862398325
1337+865970890+868378933+869436974+869505862+868953371+867942756+866510642
1323+864640343+862144234+859206825+856538184+854547209+853154282+852465607
1310+852950456+854842148+858016062+862353599+867770363+874043487+880778127
1296+887584979+894175197+900374725+905966790+910584449+913958174+915837404
1283+916084779+915019538+913264030+911900596+912426431+915635447+920944343
1269+927247238+933857188+940195808+945750624+950486052+954303223+957048506
1256+959125124+960891917+962471570+964369909+966928190+969412252+970776240
1242+971550489+973092893+975025572+976178326+976596640+976837160+977191225
1229+977789065+978569475+979384641+980082871+980594098+981105809+981780222
1215+982569356+983305872+983677314+983564185+983090899+982325720+981325975
1202+980220024+979007660+977433546+975444441+973117056+970348440+967325388
1188+964280389+961043679+957377093+952925804+947061094+939183046+928785973
1175+915089603+896890710+873477495+846441658+820484701+801565769+793575285
1161+796369310+806489514+819664826+832567286+843010815+850159893+854252202
1148+855564956+853853342+848603087+839453688+825789581+807300111+785751864
1134+765174838+750606183+746072366+752385230+766547202+783210407+797003774
1121+804502902+804809472+798710334+788025869+775145219+762011170+749457791
1107+737003763+723179101+706019417+683618548+655705857+624699633+595081005
1094+571772576+558454260+557038382+567326237+586739087+611627618+638702088
1080+665364475+689771689+710878843+728205244+741103826+747723953+746055957
1067+736668599+720247231+692889108+649220252+589123382+519954240+453881850
1053+402746823+374079788+370273141+390464947+432314806+491672045+561628278
1040+633530415+700358879+758087932+804944617+841397376+868936409+890212842
1026+908763099+924953848+937259714+946361964+953679351+959761665+964840565
1013+969070857+972604029+975686346+978338578+980381825+982073291+983575886
999+984683775+985342887+985585623+985631664+985498665+984831314+983647267
986+982114763+980093048+977444693+974188113+970397181+966039428+960950697
972+955016961+948009121+939426890+928339481+912621119+888500536+851727153
959+801738717+747028978+704124402+687574050+700369957+734071201+776443780
945+818100405+853785077+881237359+900733221+914343256+924519540+932708312
932+938919540+942914228+945075173+945977090+946018769+945389913+944213897
918+942660415+940836295+938716337+936040565+932573997+928324388+923269097
905+917416988+910814862+903342320+894566510+883474947+868512071+848166149
891+821394579+787391682+747028770+705080044+670216839+653864913+664994140
878+701601568+750460375+796948456+832844016+856721724+871141041+879365745
864+883636540+885535917+885843664+884896537+883352956+881547183+879219868
851+876360694+873477287+870699187+867562244+863866925+859888992+855816692
837+851520003+846980925+842221473+836877337+830641599+823126271+812763815
824+796717698+773321930+747830090+732635001+735342691+750634292+767057045
810+777030611+779830243+778799966+777518990+777724132+779261067+780989020
797+781828972+781407473+779855445+777596256+775050783+772398066+769743271
783+766967178+763970920+760919897+757822903+754739270+751925652+749300767
770+746503142+743513808+740666195+737994785+735358961+732820481+730338634
756+727786237+725089072+722356596+719787238+717339316+714915695+712428933
743+709929224+707647742+705559839+703449227+701303791+699197887+697016795
729+694769376+692649833+690755925+689090976+687411279+685482131+683493511
716+681653952+679929945+678246164+676508241+674701984+673031842+671626868
702+670278597+668778633+667335233+666089498+664816485+663517024+662280220
689+661034208+659890593+659032156+658377267+657709363+656924798+656008065
675+655097286+654218009+653385603+653054940+652786933+651578238+650236129
662+649301118+648809138+648534624+648296803+647931800+647579673+647452836
648+647274280+646975257+646841426+646904776+646992911+646963764+646953448
635+647083401+647265210+647436981+647511754+647585489+647812716+648137149
621+648552486+649023903+649391123+649689592+650234190+651040148+651727231
608+652131975+652409882+652872715+653594968+654372886+655170398+655889674
594+656378538+656763759+657323865+658076998+658775504+659345788+659828836
581+660308492+660786625+661270228+662013944+663027121+664151626+665276894
567+666256284+667001939+667607878+668296138+668855344+669290967+669991689
554+670853588+671816778+672839578+673693585+674280554+674556800+674839207
540+675423407+676011623+676459639+677018984+677580752+678165644+679031767
527+680015381+680991794+681648690+681794636+681949029+682509689+683600755
513+684726784+685059940+684828835+684633594+684476570+684229957+683813512
500+683072565+682020964+681026688+680401224+679926345+679395317+679301297
486+680011642+681145356+682425016+683707514+684558821+684787710+684714737
473+684933518+685614646+686429674+687339760+687924168+687337406+685851358
459+684659765+683950873+682446409+679729996+676852129+674366820+671791438
446+668762293+665595303+662952348+660781294+658357674+655607752+653316853
432+652232296+652558667+654277620+657538215+662009582+666551984+671004727
419+676086604+680904558+684459123+686900606+688628836+690411000+692614524
405+694955201+697129370+698649066+699682251
##END=
