##TITLE=павел 9-многокр
##JCAMP-DX=4.24
##DATA TYPE=INFRARED SPECTRUM
##DATE=3/2/2015
##SAMPLING PROCEDURE=Instrument type and / or accessory
##ORIGIN=Default
##XUNITS=1/CM
##YUNITS=TRANSMITTANCE
##RESOLUTION=4
##FIRSTX=3996.3347
##LASTX=399.24773
##DELTAX=-1.928733
##MAXY=1.5300295
##MINY=0.55417019
##XFACTOR=1
##YFACTOR=1.424951e-009
##NPOINTS=1866
##FIRSTY=1.0575947
##XYDATA=(X++(Y..Y))
3996+742197186+742134860+742167738+742460041+742018073+740916625+740461355
3983+741096825+741495123+741039017+741336590+743192722+744912155+745190153
3969+745101056+745372779+745166896+744627549+744821804+745427659+745321246
3956+744888898+745119629+746018874+747106435+747243300+746054345+744943946
3942+744854933+745464051+746038199+746658611+747578854+748043410+748156098
3929+748411591+748469901+748683481+749088974+749073832+748733174+748369762
3915+748245696+748254480+747535937+746196481+746294780+748841178+751419533
3902+751863007+751970843+752816379+752500234+751097364+750899093+751255813
3888+750605368+750786071+751696192+751227369+750676394+750564125+750261866
3875+750567136+750781804+750493852+750389948+750631553+752144350+753623935
3861+752925470+750811754+748582422+749022131+753826723+755815537+753222039
3848+750919841+750294075+750821542+751635121+751939136+752266994+752708543
3834+753095966+753529150+752242649+749267669+747565469+747915663+749891594
3821+752498812+752859212+752416157+752515627+751075111+749260976+749514294
3807+751611948+752580964+751905422+751676448+751075111+750167416+750825809
3794+751819923+751255144+749351495+747883873+748672355+750423495+750352050
3780+749603474+750079575+750312313+749239894+747499295+746780166+747694136
3767+748650353+748961060+748459276+748117448+749296531+749958270+748253393
3753+746550105+747769177+749232532+748058636+747933315+750170009+749477484
3740+746409475+745628440+746932425+746490039+745304597+744878357+743968153
3726+742758702+742259595+742375964+742634469+742210989+740680791+739139634
3713+739350454+739917993+737847863+734660892+732285157+731160201+730547737
3699+728273397+724974825+722905950+721613593+719653307+717428827+715205686
3686+711786730+707419253+703934374+702461231+702822134+704269594+703436020
3672+699992385+698090659+697335767+694884238+691741020+689329689+687666557
3659+686623461+685931270+683893976+680943843+680521325+682588485+681540453
3645+676281386+670952464+668065869+666122482+663163564+660088151+657612570
3632+655078470+653238610+652161674+650083220+647212896+644298903+642046690
3618+640258782+637820764+634878536+631465938+628259600+626783487+625495940
3605+622158844+618291060+615921014+614345808+612368623+609914040+606759068
3591+603310079+600799152+598901317+595959800+592250967+589159366+586941579
3578+584825520+582528341+580294324+577803350+574987153+572359523+569522537
3564+565624762+561435436+558244031+555742641+552810996+549126549+544910286
3551+540834610+538093664+536684604+534785807+531986886+529715431+527829768
3537+525092629+521867217+519370387+517856711+516556658+514044518+510520027
3524+507586583+505277357+503154815+501039300+498220008+494908846+492276656
3510+490365561+488241304+485783751+483435875+481354702+479407090+477455421
3497+475530020+473508412+471199144+468558756+466024823+464162710+462392914
3483+460151200+458182004+456594877+454697502+452456667+449623111+446114473
3470+443025884+441371077+440940779+440460077+439089416+437133857+434796145
3456+432172697+430013889+428355318+426204792+423420134+420950828+419860339
3443+419845866+419176640+417201420+414856681+413019289+411619264+410230533
3429+408936085+407620303+405984361+404457300+403420604+402397251+400940715
3416+399447076+398145014+396735368+395695158+395422515+395027522+394011782
3402+392999681+392376341+391752793+390818202+389863658+389377727+389542702
3389+389917618+390118356+390309265+390562123+390827320+390710742+389730432
3375+388904722+389253871+389829902+389992157+390206783+390779844+391779312
3362+392635683+392996795+393487327+394362520+395162045+395653538+396147542
3348+396875831+397837611+399134527+400684301+402159326+403645060+405340944
3335+406661702+407466832+408637633+410283154+411886846+413604523+415614251
3321+417407346+418767341+420075132+421593451+423465435+425489846+427160674
3308+428341723+429512691+431254796+433342411+435310770+437219774+439055995
3294+440661151+442391752+444736450+447222279+449362473+451572438+453737478
3281+455552115+457552432+459741023+461787979+463961720+465930122+467451117
3267+469358113+471996828+474991677+478104234+481128197+483805813+486096802
3254+488305846+490730814+493408639+496226802+498862003+501325454+504486198
3240+508277560+511392418+513631161+515878689+518885711+522553802+526027513
3227+529029892+531951916+535093963+538311386+541547130+545225051+549274960
3213+553055070+556303404+559355518+562671532+566357276+570154243+573830909
3200+577144079+579965044+582793246+585956249+589381563+593069942+596621999
3186+599902165+603496470+607714699+612176710+616066664+619024243+621811201
3173+625001853+628273487+631631038+635211371+638916607+642676346+645898077
3159+648415780+650845851+653507865+656604694+659956598+663291477+666854034
3146+670422153+673763223+676914848+679683443+682613039+685765125+688248319
3132+690663624+693817173+696958718+699719491+702460729+705126173+707672320
3119+709968161+711601091+713120163+715567843+718691318+721410052+723366072
3105+724872678+726478838+728729754+731155182+733012568+734443045+735926143
3092+737923574+740109404+741807086+743224763+744849161+746721605+748590035
3078+750491760+752530100+754405305+755704690+756335893+756904938+757922142
3065+759335636+760862655+762075202+762902752+763501914+764174194+765334538
3051+766719504+767556842+767536681+767135622+766991980+767307540+767594572
3038+767146246+766263231+765757682+765597560+765393768+765029268+764381918
3024+763318618+761768928+760047487+758429866+756071783+752586904+748925338
3011+745340152+741386786+736653638+730672221+723455838+714983991+704724947
2997+692569657+678540417+661679294+641132344+617200069+590055642+559657316
2984+527458283+496366303+469204181+448257637+436009863+435274462+447879835
2970+473087651+507287002+545325441+582587530+616058507+644111424+665923793
2957+681284375+691097728+696689212+698595246+697321503+693761038+688499336
2943+682194872+675657126+669596694+665078758+662302927+659949027+657810339
2930+657636329+660299891+664532886+668982724+673073459+676153096+677934227
2916+678509673+677941715+676523201+674337873+671208961+667499375+663944850
2903+660618964+657493901+655543235+655173883+655192915+654648884+654000363
2889+654150111+655193835+656826055+659253365+662805505+667547897+673175773
2876+679384490+686758737+695647663+705124918+714774426+724883805+734662900
2862+743200168+750872825+758133547+764957489+771338124+776984822+781706258
2849+785716178+789029808+791898208+794780578+797641365+800610238+803895425
2835+807063489+809767499+812302185+815041500+817856441+820481813+822914770
2822+825064543+826821622+828250343+829571729+831276020+833578052+836099603
2808+838684818+841296219+843712444+846187398+848612323+850424618+851891570
2795+853376174+854970789+856816547+858524352+859643117+860418966+861248022
2781+862054490+862706943+863462128+864397514+865039760+865337083+865771522
2768+866341403+866902919+867271017+867121435+866866193+867050577+867490537
2754+867943129+868446670+868991370+869466635+869918391+870614513+871391533
2741+871583195+871312058+871263452+871389525+871466240+871651126+872125720
2727+872835730+873349394+873740748+874744232+876184999+877471751+878805100
2714+880212989+881357187+882155289+882608467+882954395+883822687+885283783
2700+886563842+887762668+889519497+891242695+892552118+894005183+895521410
2687+896720906+897797675+898903054+899748507+900158518+900484953+900924495
2673+900976865+900564847+900498673+901111221+901888158+902240862+902253160
2660+902583695+903055445+903073599+903196911+904209598+905872813+907367205
2646+908391018+909328746+910259280+910831839+911020238+911394024+912156738
2633+912594942+912541400+912616024+913024026+913501382+913691119+913803724
2619+914412339+915213621+915727368+916139720+916524884+917009267+917664648
2606+917979957+917927503+917954106+918155054+918516961+918821310+918890580
2592+918883720+918970725+919314896+919627779+919645263+919883021+920208787
2579+920139769+920278224+920968992+921723926+922035052+921878778+921951728
2565+922501449+922981648+923007917+922666841+922587199+923028665+923158670
2552+922602090+922176017+922163468+922067679+921973563+922267790+922777271
2538+923057192+923085218+923184353+923562071+924068205+924437892+924989704
2525+925841515+926224085+925796674+925302838+925432174+925662151+925582257
2511+925930026+926954257+928207880+929014682+928798592+928462536+929080020
2498+930104585+930841115+931298476+931777923+932551681+933174518+933187904
2484+933003520+933189075+933796017+934461019+935050561+935539628+935656416
2471+935695651+936401980+937622558+938478636+938803398+939156270+939878494
2457+940865078+941816861+942567613+942927177+942770066+942574724+942713346
2444+942819174+942844857+943050992+942984149+942498846+942203698+942189644
2430+942172159+942046002+941779382+941500967+941356321+941088614+940470712
2417+940077350+940334432+940723612+940988475+941524057+942226453+942629938
2403+942869369+943271767+944187325+945575053+946148114+945544768+945373352
2390+946228426+946783082+946177478+945268695+944820537+944297336+943588749
2376+943284399+943456652+944357152+945873881+947407676+949974821+953177939
2363+954430725+954315946+955135715+957918281+960933167+961995379+960058768
2349+955185157+950038820+948531377+950922840+953586025+955384934+956434597
2336+956965578+956767642+956317141+956210058+956196087+956288781+956989923
2322+958810583+960768192+960962364+959401045+958380244+959100794+959727648
2309+959148145+958627538+958767750+959220175+959880492+960218054+959828874
2295+959344659+959283588+959710832+960322627+960368555+959925082+959766130
2282+959920146+960063202+960190112+960170870+959944156+959789220+959832555
2268+959947251+959897809+959772238+959855059+959838997+959487715+959231051
2255+959413928+959987909+960737155+961377644+961806729+962203605+962663309
2241+963199894+963692894+963831683+963797467+963953072+964115035+964187567
2228+964411604+964632546+964533076+964459875+964652206+964541526+964094036
2214+964011800+964315815+964569133+964745904+964949361+965009344+964881849
2201+964894481+965096516+965222674+965305412+965642388+966189850+966495538
2187+966527579+966453123+966182906+965987982+966174791+966592749+967146819
2174+967876154+968308334+967810733+967019658+967183378+968171804+968945310
2160+969228243+969259197+968980865+968697597+968918874+969209002+969028718
2147+968735076+968547514+968247514+968056773+968310007+968842745+969264886
2133+969320686+969169933+969232761+969555850+969863295+970137026+970576066
2120+971192629+971870179+972526815+973021655+973343322+973700126+974152718
2106+974595690+974914178+974911919+974541981+974290671+974607653+975003525
2093+974912672+974724440+974781328+974876783+975049035+975330630+975457791
2079+975568388+975875163+976208877+976668079+977350983+977887067+978094540
2066+978211495+978460797+978849976+979345904+979828530+980076159+980257364
2052+980723258+981348605+981782291+981959313+982180589+982757331+983497793
2039+984000748+984218176+984200524+984184964+984563351+985057857+985343718
2025+985750633+986289896+986724753+987242431+987759357+987745135+987337718
2012+987331193+987969173+988867916+989601016+989871986+989833252+989939164
1998+990244099+990407400+990494824+990885843+991255196+991166601+991095910
1985+991482496+992010632+992372037+992638155+992845042+993027585+993254300
1971+993430150+993555972+993781767+994161576+994599529+995003683+995442472
1958+995905773+996246263+996560986+996915364+996998353+996705464+996364807
1944+996467540+996899218+996648911+995654797+994691720+993774237+992720056
1931+991672568+990802352+990325917+990813479+992368607+993991080+995429756
1917+996804014+997646288+998317062+999237808+1000344108+1001564602+1002429631
1904+1002731973+1003052971+1003763315+1004557151+1005233446+1005636346
1892+1005826334+1006488659+1007318718+1007592784+1007734250+1007945572
1881+1008193535+1008724516+1009348776+1009601006+1009579339+1010142026
1869+1011433964+1011991967+1011324288+1010717764+1010746710+1010924651
1857+1011104434+1011364361+1011481733+1011338175+1011221806+1011448521
1846+1012482540+1013940123+1013925231+1012718708+1012009702+1011930980
1834+1011872419+1012050109+1012923923+1013546426+1013593693+1013956854
1823+1013834546+1012803705+1012078553+1011942106+1011596262+1011071054
1811+1011108700+1011486920+1011482570+1011021863+1010509872+1010483771
1800+1010852956+1010776241+1010220665+1010545511+1011665197+1011194032
1788+1009570220+1008763083+1008494288+1008086369+1007723458+1006932718
1776+1005603384+1005228176+1006489997+1006701988+1005168193+1003808574
1765+1002777567+1002559051+1003077483+1003204978+1003440561+1003259942
1753+1002797561+1003921764+1005374829+1005153720+1004380213+1003692122
1742+1003157209+1002919619+1001838918+1001296393+1003597755+1004529209
1730+1002413903+1000272831+998758612+997714721+996530116+995200280+995504295
1717+996547099+995309789+992738294+990256564+988136908+987007937+985975172
1703+983997987+983475037+983883709+982004404+979378782+976006842+972105260
1690+968769711+965397771+963576441+963776552+961185230+956364073+952543556
1676+950755857+949292419+946748782+945013370+943953583+941455708+939085578
1663+938327130+937477661+935669466+933884361+935148274+941286801+942866106
1649+940300718+940811704+942851717+942686659+942373943+943321460+946521063
1636+952860622+957489448+958617750+960478985+964260601+968234296+972502136
1622+976401710+978479704+981694282+987643072+991206339+992081324+993774990
1609+996281734+998184129+999591265+1001061145+1002425030+1003504057+1004586682
1595+1005894516+1007318718+1008586981+1009448581+1010078445+1010805522
1583+1011551421+1011906886+1011760484+1012897737+1015704564+1015944162
1572+1014413295+1015001498+1016464769+1016407129+1015353450+1014087529
1560+1015844860+1020925190+1020929457+1017736211+1015506712+1014278772
1549+1013468205+1012803789+1012706661+1013412823+1015552055+1017104590
1537+1014409698+1011086196+1010075685+1009086255+1007168551+1006262613
1526+1006222625+1006234922+1006810744+1006484810+1004425891+1002028907
1514+999700439+997641520+995993447+995423816+995706665+992643593+987257155
1501+982927743+980172534+977436148+972726926+966614500+960731466+955117645
1487+949575101+944791507+941055151+937816562+934222927+929766689+924151445
1474+916879513+907655325+898349988+891902092+889532297+888737123+886140864
1460+882661172+881361788+882938082+884585736+886436681+889736005+894537084
1447+899767916+903883330+906300057+906683380+905880091+905029200+902737543
1433+898898704+895518231+892639458+889395515+886439191+884000545+882068619
1420+881403366+880863769+879240626+877934048+877910874+878812295+880306017
1406+882683592+885470676+887632328+889653936+891441551+891562773+889420194
1393+884462925+876154631+863997710+847951588+831103433+818739708+815712274
1379+823493687+838292293+854791676+869263428+880832815+892028165+904650896
1366+918139996+931853718+943643880+950934636+954333765+955634738+955338169
1352+953179361+949114561+943412397+937109313+931818999+929009663+929367387
1339+931843093+934381627+936069940+936988510+937205688+936867958+936204713
1325+935311408+934081711+932392981+930440976+928538331+926941373+925848208
1312+925398878+925831141+927307296+929891591+933496436+937831788+942804785
1298+948293955+953888283+959339974+964629284+969509336+973586517+976777169
1285+979001147+980058256+980115897+979598804+979273372+980401089+983783988
1271+988931497+994856109+1001142628+1007328255+1012759032+1017430021+1021401124
1258+1024561157+1027159925+1029383234+1031244050+1032931610+1034691115
1246+1036491196+1038054188+1039307643+1040465310+1041649580+1042716979
1234+1043545616+1044111650+1044379775+1044589926+1045025619+1045561117
1223+1045873749+1045864798+1045823805+1045979326+1046349599+1046868198
1211+1047195470+1047164265+1046951438+1046489476+1045671463+1044896116
1200+1044453981+1043995197+1043247290+1042086361+1040398550+1038599056
1188+1036974658+1035248950+1033320203+1031049628+1027797068+1022895934
1177+1015905345+1006198447+992751094+974900207+953738367+932789857+916956395
1163+909941377+911972188+920184693+931141198+942158272+951218405+957395499
1150+960891756+962248028+961391364+957561227+950347520+939449827+924509420
1136+906728388+889511131+877204629+873216209+878431732+890439071+904538710
1123+916194600+922719965+923494642+919197606+911187638+901321539+891282266
1109+881754481+872224437+861430397+847489793+828491865+804242105+776946591
1096+750590895+729826266+718569595+718818730+729903399+749243240+773775264
1082+800324712+826142566+849508892+869347003+884967135+896032647+902146244
1069+902608541+896556266+882510336+857694459+818771498+764169258+697818560
1055+630958883+577436800+546973430+543065197+564610277+607665132+666042002
1042+731592214+795775696+852348094+898589502+934692418+962640804+984505376
1028+1001740201+1015640398+1026864443+1035640807+1042677743+1048595412
1016+1053362274+1057025429+1060085491+1062833505+1065200121+1067057926
1005+1068436367+1069687397+1070875180+1071792998+1072526432+1073095896
993+1073483402+1073741823+1073728103+1073395728+1072847764+1072042551
982+1070787255+1069056695+1067211188+1065412614+1063277816+1060434179
970+1056596010+1051240945+1043601835+1032081974+1013568428+984353034+943403027
957+897130163+859849837+845212023+856325304+885460302+921529086+956249294
943+985392993+1007604580+1023307701+1034024775+1041715754+1047757823+1052306754
930+1055247937+1057108251+1058365973+1058973920+1058986971+1058755989
918+1058275622+1057388507+1056447767+1055507278+1054045011+1051923598
907+1049284758+1046085071+1042210426+1037549643+1031711450+1023902346
895+1013055601+997757805+976586093+948574964+914458268+878356523+848060428
881+834027298+844131071+876135306+918149449+957483759+987417863+1007293955
868+1019529850+1026746986+1030771881+1032963567+1033898367+1033882221
856+1033450627+1032690338+1031423665+1029870628+1028463994+1027140516
845+1025514195+1023501956+1021226277+1018740365+1016079438+1013478830
833+1010878054+1007717686+1003704587+998444474+990601237+977864228+958615073
820+937090824+924200553+927061591+941096645+956079718+965570107+968995756
806+968902812+968370576+969192856+971313097+973605006+974925388+975037993
793+974430213+973412006+971896113+969981588+968128050+966422504+964649529
779+962773570+960732888+958605285+956675032+955005794+953382484+951598884
766+949809010+948228785+946653076+944900431+943082782+941235686+939364412
752+937672920+936158450+934535475+932857704+931337963+929938272+928601409
739+927359582+926121771+924700915+923210204+921836280+920551201+919332631
725+918108707+916891978+915679180+914239836+912749124+911644832+910800299
712+909803675+908637308+907516117+906480257+905494844+904446435+903299979
698+902408765+901830684+901207261+900592789+900052857+899412869+898833367
685+898434065+897911032+897200269+896650047+896329886+896111955+895797650
671+895428549+895917031+896683092+895708303+894324006+893587058+893581453
658+893747096+893650722+893350304+893270661+893527158+893666784+893676656
644+893832846+894065417+894289371+894547290+894905600+895274534+895702196
631+896230500+896729104+897291122+897782030+898217891+898960695+899794185
617+900318640+900598645+901085454+901976585+902929706+903594875+903950591
604+904641192+906054686+907353568+907949970+908315056+908991268+909931004
590+910835771+911742629+912744356+913671627+914301492+914730074+915212198
577+915693904+916126168+916834337+918217463+919977388+921492109+922703651
563+923666895+924441992+925106575+925783121+926590760+927402750+928342821
550+929348814+930131524+930619253+930731522+930884283+931456172+932094905
536+932786008+933884194+934972674+935700671+936427663+937446875+938798211
523+939642409+939623921+939748823+940364382+941397314+942482197+942904087
509+942925755+943006067+943274611+943489279+942960306+941833593+940803506
496+939998209+939428913+939056298+938637168+938671887+939602169+940589507
482+941221296+941875841+942431584+942821014+943049235+942876396+942607016
469+942799933+943538135+944219534+943789613+942317641+941068369+940389982
455+939123726+936450168+933033805+929974915+927567139+925717700+924195199
442+922372029+919771922+916747834+913961922+911742462+910302113+909911009
428+910964103+913806652+917898808+922222113+926841652+931213228+933755694
415+935322953+936571807+937502592+938465250+938581452+938906382+941688195
401+945491645+949358509
##END=
