##TITLE=павел 9-многокр
##JCAMP-DX=4.24
##DATA TYPE=INFRARED SPECTRUM
##DATE=3/2/2015
##SAMPLING PROCEDURE=Instrument type and / or accessory
##ORIGIN=Default
##XUNITS=1/CM
##YUNITS=TRANSMITTANCE
##RESOLUTION=4
##FIRSTX=3996.3347
##LASTX=399.24773
##DELTAX=-1.928733
##MAXY=1.4967872
##MINY=0.55165291
##XFACTOR=1
##YFACTOR=1.3939917e-009
##NPOINTS=1866
##FIRSTY=0.99866837
##XYDATA=(X++(Y..Y))
3996+716409123+716159886+716302484+716993842+717445626+717182235+717151321
3983+718151308+719038542+718237680+716884253+717237308+718502268+718786610
3969+718749496+719090279+719158180+719465098+720353187+720500960+719916454
3956+719970415+720754687+721558457+722094388+722235149+721858876+721364676
3942+721451219+721679377+721322773+721529723+722680946+722995989+722681288
3929+722976149+723528415+724341335+724880516+724616698+724508776+724014234
3915+722247634+720980878+721106245+721469006+722164769+724233156+726599654
3902+727340911+727364599+727591560+726564763+724741295+724728639+725391819
3888+724479957+724226144+724667665+724059900+725140059+727082395+726525682
3875+725388142+725338115+726133333+727125837+727453194+728476998+729498578
3861+728952213+728160843+727309527+727711454+731351892+732575462+730172619
3848+728946997+729544158+729574944+727763192+726056539+727115575+729072791
3834+729121621+728402171+727344246+725642554+724587537+724773449+726816524
3821+729718355+729717757+728539681+728311523+727309185+726013097+725816836
3807+726670120+727057852+727218879+728161100+727225122+725391819+726281362
3794+728195392+728267140+726810880+725529073+725848050+726945568+726955659
3780+726610344+726762991+726325745+725037610+723814553+724099579+725537539
3767+726357899+726202088+725338542+725594237+727419672+727400089+725147499
3753+724481411+727365454+729199441+727278997+726734001+729306422+728797257
3740+725215313+723311288+724120445+724631492+723746995+722688643+722244641
3726+721973810+721376563+721555464+722399768+722160493+720536278+718687924
3713+718750095+719901831+718788321+716711381+715091656+713493310+711468621
3699+708676337+706341608+704980698+703066027+699953226+696988498+695168450
3686+693237445+690449906+688344917+687782475+687808772+688931774+689315145
3672+686783172+684663261+683610125+681222676+678253329+675820043+673806429
3659+672516882+672099391+670564968+668027779+667969457+670210759+669240959
3645+664550679+660188012+657904379+656121146+653481508+650650228+647917292
3632+645359665+644141097+643138160+640214351+636739259+633897375+631778405
3618+629919105+627769049+625717123+623384447+620412963+618498291+617647188
3605+615258712+611674929+609212482+607334155+604911088+602893240+600884458
3591+597941236+595336618+593483304+590849952+587558251+584554398+581891885
3578+579279398+576623170+574181845+571555676+568547206+566618724+565612793
3564+562868055+558684802+555574439+553632274+551003197+547622174+544653298
3551+541875722+539095025+536920810+534696868+531714096+528628789+526015105
3537+523847048+521582186+519048717+517209728+516246256+514479913+511351719
3524+508068313+505128342+502708182+500784232+498512187+495894270+494053912
3510+492830428+490792185+487959194+485456468+483673663+482315405+480650826
3497+478074342+474863753+471756854+469519485+468538397+467760710+465998044
3483+463708939+461603864+459773897+458186069+456471635+453961768+450518532
3470+447168466+445228780+444557561+443850682+442574348+440882746+438832104
3456+436879591+435348204+433641209+431205272+428579231+427172228+427211737
3443+426518839+423868982+421011705+419352471+418111926+416499384+415468782
3429+415627287+415349487+413466670+411138013+409510677+407856831+405541899
3416+403740408+403097709+402507389+401404568+400593829+400323041+399739775
3402+398713278+397998574+397691741+397300204+396599011+395931042+395875328
3389+396306459+396452564+396080824+395736150+395806145+396281702+396771712
3375+396705308+396341051+396257287+396386289+396629626+397241839+398338630
3362+399379323+399702405+399673329+400300721+401453740+402183324+402673676
3348+403466242+404407351+405518938+406773892+407640046+408461646+410333944
3335+412554337+413828405+414827580+416336304+418000370+419313348+420168170
3321+420966210+422145055+423883221+426012667+428109703+429876303+431112871
3308+431949394+433136619+435132104+437493129+439486134+440756310+441939346
3294+443430326+444752496+446553987+449168654+451362366+453078554+455190469
3281+457705680+460216830+462378986+464069091+465674065+467628374+469640619
3267+471435654+473625731+476528760+479364658+481792942+484279932+486723780
3254+489007284+491433644+494070759+496859238+499250707+500966467+502981535
3240+505855104+509041748+512181700+515416105+518512059+521101370+523743445
3227+526612566+529178873+532029480+535477762+538705796+541856566+545632804
3213+549384498+552105034+554549310+557768236+561360870+564945807+568319262
3200+571135748+573909732+577017230+579899949+582546000+585623825+589176650
3186+592850610+596554971+600150683+603562706+606982083+610427586+613565357
3173+616208929+618879096+622216677+625897563+629176309+631942382+634398545
3159+636797282+639467663+642365133+645392204+648451556+651135363+653590072
3146+656304109+659302531+662284107+664883381+667438271+670314149+673029725
3132+675619293+678631312+681932121+684732187+686613508+688292282+690246804
3119+692198547+694250815+696355633+698439969+700992594+703829390+706073514
3105+707455247+708780539+710735617+712686034+714275872+715919627+717549700
3092+719314247+721300624+722889264+724147554+725875158+728044028+730079064
3078+732010540+733845895+735236821+735969611+736292180+737094838+738668256
3065+740486678+742179991+743357980+743898274+744173466+744644405+745467245
3051+746315654+746946937+747471153+747818179+747698285+747447208+747622346
3038+747861792+747710941+747438571+747374348+747388544+746968230+745982054
3024+744762247+743192934+741524336+740429211+739136287+736768421+733725573
3011+730173389+725946394+721148148+715849332+709760387+702369752+693361016
2997+682673292+669955792+654451437+636087410+614781744+589661101+560959498
2984+530362935+500419547+474413680+455036026+444031464+443146283+454094960
2970+476792920+508108335+543294441+577838189+608454934+633930684+654225160
2957+668867252+678031243+683288370+685550281+684871964+681846861+676934366
2943+670595754+664206560+658811324+654623410+651600915+649254984+647621191
2930+647981301+650837424+654721626+658289118+661680189+665120347+667805950
2916+668731366+667976897+666415836+664444296+661828646+658530488+654875470
2903+651335173+648775407+647451783+646423618+645571147+645372663+645315837
2889+645408879+646295044+647964283+650458543+653816263+657917378+662873144
2876+668453053+674718376+682443253+691414147+700606658+709643015+717981387
2862+725198466+732089642+739128420+745771342+751457590+756108832+760167189
2849+763839011+766823280+769374237+772320794+775606936+778644739+781481663
2835+784165427+786479504+788456132+790486037+792811145+795189958+797348223
2822+799161173+800902118+802849158+804693235+806324377+807994172+809907433
2808+812306000+815049796+817484280+819349395+821016197+822703438+824305076
2795+825849076+827592501+829433329+830922770+831987109+832852536+833738144
2781+834671728+835399131+835834924+836189304+836563524+836966905+837483596
2768+838095296+838737439+839254215+839377616+839212654+839189308+839526756
2754+840101000+840745452+841342785+841746594+842016826+842411997+842893968
2741+843017540+842885331+843144446+843600078+843692521+843713559+844153969
2727+844761221+844996648+845122870+845971023+847529476+849003695+850230258
2714+851448013+852494564+853348018+853993326+854305033+854954275+856453208
2700+857990709+859219325+860685248+862119702+863278964+864608745+865948361
2687+866843634+867417278+868017946+868767840+869606672+870400265+870926277
2673+871097224+870999051+870902760+871212415+871738598+871915361+871951363
2660+872355599+872841932+873082746+873537437+874581252+875784897+876562498
2646+877201306+878252219+879368808+880133582+880644115+881095984+881586849
2633+881897958+882058130+882371634+882813925+883208498+883428960+883788215
2619+884445238+884699650+884516388+884708543+885276031+885847709+886362090
2606+886600681+886732975+887097703+887434980+887576596+887617815+887642016
2592+887686912+887929864+888661543+889219453+889071681+889151467+889651311
2579+889807635+889840046+890225555+890851108+891322560+891326922+891244655
2565+891621697+892260163+892541341+892298731+892137533+892408449+892480368
2552+892053470+891859347+892125902+892288726+892274188+892390490+892659183
2538+892946690+893354432+893941332+894426895+894618794+894545335+894633674
2525+895245459+895884096+896128673+896344944+896730966+896763890+896436618
2511+896576095+897312307+898323112+899290303+899526158+899220864+899307236
2498+899957503+900854400+901580692+901952945+902347518+902848132+903056108
2484+903066199+903475566+904209212+904707517+905055313+905447406+905670091
2471+905809397+906407756+907619696+908830268+909383901+909425890+909812596
2457+910772775+911695498+912292660+912519791+912336358+912011310+911829331
2444+911700201+911656588+911818128+911653937+911156744+911175729+911645300
2430+911868327+911762201+911628966+911605706+911543364+911198732+910675628
2417+910450121+910716163+911169913+911500691+911780159+912244770+912886401
2403+913418228+913680678+914093551+914847978+915264187+915208516+915470282
2390+916180924+916488184+915928821+915203983+914909635+914672669+914239528
2376+913748920+913511270+914344628+916005187+917109462+918716146+922005110
2363+923221925+921668945+923285378+928745179+933110197+934367375+931603910
2349+925458523+919658196+918263336+920077825+920726211+921434373+923594263
2336+925507695+926040634+926567587+927293707+926979263+926359696+927251548
2322+929460182+930849141+930772860+929886824+929150527+929433587+929970972
2309+929931720+929971058+930424979+930906865+931156145+931019747+930601742
2295+930199387+930052640+930335187+930777222+930946117+930922514+931037962
2282+931397815+931915959+932345594+932325327+931947772+931665738+931651713
2268+931845921+931951534+931804104+931677625+931570558+931442968+931782981
2255+932622240+933339382+933773463+934084145+934324617+934647527+934932982
2241+935047232+935317720+935708274+935940708+936165103+936344089+936448419
2228+936861037+937440069+937599471+937497963+937660359+937773840+937516435
2214+937382858+937558167+937836181+938182095+938346031+938097691+937782562
2201+937822327+938026113+938134035+938297628+938593601+938856307+939038458
2187+939326306+939615095+939585165+939426018+939558312+939996756+940556632
2174+941195697+941432749+940861584+940396460+940809248+941702040+942586965
2160+943170016+943263229+942864124+942439791+942507178+942641781+942383863
2147+942101659+942016057+941907622+941787471+941954570+942536082+943191737
2133+943438795+943334208+943304790+943396977+943454701+943691154+944300202
2120+944971678+945507610+946186269+946975329+947404280+947505275+947700253
2106+947996909+948265688+948391568+948178290+948014868+948398837+948922112
2093+949052525+948902444+948799225+949023450+949516025+949713397+949527227
2079+949622065+950097366+950510239+950945860+951565513+952103583+952408449
2066+952549637+952635495+952875711+953414209+954022915+954324361+954406200
2052+954775888+955517316+956013141+955893845+955759157+956267723+957113481
2039+957802317+958378954+958766857+958954994+959345719+959851207+960170012
2025+960501731+960862696+961157899+961582830+961973983+961904971+961529468
2012+961456266+962002289+962951693+963831572+964341763+964590103+964769175
1998+964932340+965080711+965331959+965832145+966192255+966064493+965997961
1985+966421696+966926842+967226491+967495954+967752674+967968518+968162470
1971+968258419+968411750+968847115+969413576+969792927+970107457+970665794
1958+971261844+971701655+972155577+972484901+972406140+972177469+972208084
1944+972534073+972858523+972710579+972066896+971248332+970462350+969762483
1931+968989500+968199755+967771574+968197018+969407590+970619701+971939306
1917+973385646+974135540+974633674+975682876+977132979+978452413+979171778
1904+979355895+979507174+979932020+980630347+981521771+982148778+982443639
1890+983249034+984216738+984469440+984547858+984722141+984813130+985215999
1877+985898591+986112896+985990607+986796942+988500431+989095882+988226008
1863+987567446+987657409+987908058+988205912+988557385+988703276+988633751
1850+988634350+988885939+989904184+991442455+991546614+990517936+990051444
1836+989973281+989599574+989575715+990601144+991501461+991696439+992034657
1823+991933320+991172394+990806640+990941072+990769697+990295850+990260873
1809+990497754+990412836+990103181+989879641+989990812+990307138+990112246
1796+989482844+989950705+991367885+991095343+989609836+988930664+988717899
1782+988349751+988065408+987364772+986176263+985989495+987424633+987762081
1769+986126493+984551963+983610084+983749562+984542727+984661424+984744803
1755+984516559+984044508+985154170+986709544+986619068+986018314+985617584
1742+985338544+985231392+984170559+983584600+985894914+986827985+984603102
1728+982443639+981176114+980512078+979727208+978904539+979781511+981264880
1715+980219270+977506430+974707988+972563576+971884490+971277237+969391171
1701+969070911+970045030+968680101+966277771+963035071+959457318+956564807
1688+953600036+952331997+953175447+950925251+946392192+942919966+941255558
1674+939672220+937143326+935707504+934928620+932497215+930163555+929508841
1661+928883288+927362633+925768349+927050669+932912483+934204039+931644274
1647+932239725+934167609+933763714+933258483+934049340+937019584+942991800
1634+947261724+948092260+949614625+953081549+956771244+960665067+964317477
1620+966401941+969444362+974730906+977691145+978492178+980304359+982678468
1607+984271298+985463825+986915810+988400633+989564256+990609011+991786488
1593+993081208+994371053+995425899+996210940+996921925+997539696+997746560
1580+997631113+999076598+1002168276+1002477932+1001079053+1001869909+1003372776
1566+1003307356+1002278593+1000941713+1002679494+1008029321+1008269023
1555+1005207960+1003169589+1002046843+1001096669+1000143246+999926718
1543+1000970532+1003638476+1005409266+1002834877+999809560+999160576+998452413
1529+996743879+995912915+995764544+995749835+996614236+996594311+994615887
1516+992332425+990250697+988445957+987020995+986739304+987513741+984888898
1502+979744739+975713491+973388725+971080121+966814815+961258209+956143382
1489+951443737+946576224+942117565+938568202+935639348+932628911+928867638
1475+923848932+917198912+908750652+900145725+894223622+892265978+891811886
1462+889495500+886209272+885098584+886728871+888024445+889454196+892535355
1448+897100483+901880513+905567129+907801675+908119540+907230938+906480103
1435+904584373+901155504+898116076+895657477+892831499+890106601+887928667
1421+886430332+886046192+885520095+883913069+882654950+882637590+883533889
1408+885037098+887370757+889982602+891907921+893730021+895373220+895499272
1394+893635012+889174300+881630462+870733351+856214360+840641891+829117945
1381+826289144+833441146+846993800+862085667+875273422+885665558+895768734
1367+907407016+919869849+932356883+943023355+949782922+953201102+954676176
1354+954489493+952534586+948936052+943854747+938151395+933329547+930807837
1340+931252522+933643393+936032553+937583993+938419660+938654574+938431804
1327+937931618+937260997+936339044+934954104+933198023+931446730+930114554
1313+929272473+928801791+929088100+930433788+932648750+935670476+939553780
1300+944128229+949075786+954200276+959368808+964366734+968952899+972847491
1286+975848692+977912377+979047950+979338022+979050430+978889745+979997953
1273+983131448+987870516+993312530+999108325+1004849561+1009880411+1014147769
1259+1017761184+1020698932+1023209183+1025462543+1027419930+1029157711
1248+1030845807+1032447274+1033787831+1034913228+1036048459+1037295632
1236+1038454124+1039312453+1039891998+1040255614+1040526787+1040887496
1225+1041347318+1041642949+1041616182+1041607459+1041924726+1042490161
1213+1043056194+1043351055+1043409891+1043403562+1043191054+1042661963
1202+1042102685+1041729833+1041299343+1040582972+1039513417+1038024318
1190+1036418233+1035085544+1033942872+1032609328+1030625944+1027695379
1178+1023577075+1017622305+1008982487+996850689+980702523+961390675+942116282
1165+927518787+921002429+922794513+930279772+940184037+950234449+958798840
1151+964822708+968225752+969416569+968505818+965042315+958651496+948954181
1138+935463611+919146208+903234923+891870550+888154687+892824401+903662078
1124+916501696+927343478+933669988+934769474+931115440+923946335+915130182
1111+906075011+897277929+888536262+878751635+866056625+848679758+826373293
1097+801056817+776371796+756839571+746336092+746622316+757017531+775183116
1084+798165248+822853690+846623428+868012131+886288974+900925208+911490344
1070+917380977+917890912+912540743+900172064+877852942+842059071+791256028
1057+728997708+665605738+614297977+584849772+581084566+601970603+643247535
1043+698518388+759914744+819439102+871431508+913667252+946545267+971950423
1030+991738085+1007273184+1019919535+1030355284+1038590181+1044949016
1018+1050043405+1054317520+1057873980+1060685249+1062982137+1065158190
1007+1067092402+1068418849+1069426575+1070450036+1071448955+1072306685
995+1072834835+1073200333+1073577118+1073741823+1073658872+1073348447
984+1072747865+1071845666+1070562149+1069040211+1067443447+1065519070
972+1062962810+1059603124+1055080327+1048503424+1038175939+1021420520+995018584
959+957882959+915579230+881078881+867225379+877278699+904113177+937301361
945+969192601+995913600+1016105071+1030250697+1039953314+1046930947+1052406483
932+1056772528+1059876691+1061738642+1062735337+1063253053+1063475396
920+1063465818+1063168905+1062595432+1061948328+1061163287+1059972812
908+1058231183+1055858356+1052968754+1049634808+1045682577+1040689183
897+1033889082+1024281133+1010614228+991645044+966446239+935528005+902465104
883+874393885+861274885+870544360+899914232+938274710+973962968+1000954626
870+1018934470+1030225470+1036994785+1040675843+1042612962+1043498486
858+1043546204+1043177884+1042556008+1041597368+1040420490+1039316558
847+1038200995+1036720448+1034971892+1033210936+1031344881+1029224756
835+1026963101+1024597544+1021799444+1018235715+1013510501+1006446068+994852767
822+977288448+957673358+945879093+948410809+961206900+974977450+983823191
808+987180484+987225551+986654728+987242312+989133082+991358991+992912911
795+993499554+993141155+991975479+990508444+989107341+987727875+986153773
781+984348690+982564816+980863294+979152451+977565094+976189989+974789827
768+973180920+971545246+970001502+968464172+966900845+965401056+964047159
754+962662476+961223148+959812040+958271802+956769534+955471650+954267749
741+953231887+952326781+951356767+950289521+949141462+947783631+946323694
727+945148098+944200918+943232871+942216336+941041767+939727379+938514327
714+937522079+936704798+935877084+934924515+934033262+933353577+932650375
700+931750143+931016839+930541453+929871260+929126753+928679588+928391140
687+928069940+927739077+927529818+927407017+927092914+926550996+926159587
673+925871482+925589705+926296841+927287636+926411776+925256875+924607548
660+924277968+924237946+924396152+924380075+924334494+924513138+924532379
646+924486543+924842975+925345385+925671288+926020281+926535176+926993715
633+927467904+928021282+928377714+928723030+929176353+929615309+930245395
619+931123136+931900395+932250757+932662861+933579683+934525923+935220830
606+935787548+936540777+937687810+938700838+939258064+939721905+940319409
592+940895363+941547512+942663245+943937612+944710767+945049840+945560288
579+946441535+947307304+947818437+948076440+948719780+950144485+951869610
565+953351440+954627431+955698782+956191528+956467062+957176165+958118300
552+959131756+960184037+961096070+961775071+962160922+962520176+963071672
538+963553729+964003631+964807572+965507353+965765699+966391850+967783888
525+969371416+970255315+970481506+970922087+971635637+972587350+973535471
511+973670074+973357597+973444396+973910718+974193179+973743105+972703909
498+971566625+970622266+970208623+970182369+969849967+969659778+970483216
484+971614257+972430512+973319799+973971007+973775345+973212133+973049994
471+973120716+973347933+974174365+975004730+974493940+972682530+971103211
457+970331339+969117689+966527907+963067397+959938519+957741600+956320059
444+955396823+954709356+953669817+951584840+948632725+945949730+944436772
430+944150121+944694946+946270246+949456676+953866163+958664751+962317930
417+963861930+965167169+966646262+967498690+968024018+968165976+968489057
403+970065554+972150360+974129469
##END=
