##TITLE=22
##JCAMP-DX=4.24
##DATA TYPE=INFRARED SPECTRUM
##DATE=16/11/2015
##SAMPLING PROCEDURE=Instrument type and / or accessory
##ORIGIN=Default
##XUNITS=1/CM
##YUNITS=TRANSMITTANCE
##RESOLUTION=4
##FIRSTX=3996.3359
##LASTX=399.24785
##DELTAX=-1.9287336
##MAXY=1.5372382
##MINY=0.73696554
##XFACTOR=1
##YFACTOR=1.4316647e-009
##NPOINTS=1866
##FIRSTY=1.3724087
##XYDATA=(X++(Y..Y))
3996+958610469+958604307+958678747+958841283+958948613+958954608+959013894
3983+959210652+959465696+959671530+959802092+959949306+960193110+960501028
3969+960827682+961118364+961284480+961344015+961432861+961610884+961815469
3956+961962517+961998738+961971926+962037706+962191249+962245039+962320895
3942+962602584+962844806+962842724+962647298+962523981+962791848+963223750
3929+963330081+963229412+963294443+963381623+963276791+963344486+963828679
3915+964273904+964320116+964152918+963780801+963167296+962903925+963382705
3902+964191720+964925212+965221723+964779329+964238515+964364331+964535609
3888+964278900+964421368+964848773+964930791+965111895+965224970+964882829
3875+964555427+964534360+964990409+965571691+965622233+965675690+966095935
3861+966120332+965106649+963594618+963673221+966234656+968255943+967753432
3848+966366800+965547960+965247702+965028295+965237127+966262301+967146838
3834+967232185+967112449+967077227+966949663+966578629+965981527+965953383
3821+966652486+967088052+967627533+968388753+968096572+966928347+966328164
3807+966644326+966721514+966648739+967399884+968033539+967958267+967897982
3794+967754847+967348592+967015777+966929346+967030265+967080391+967018774
3780+967234101+967644103+967601138+967066569+966681796+966880969+967297716
3767+967469161+967379983+967067485+966932760+967153416+966921103+965995599
3753+965626646+966602360+967357584+966836504+967003120+968189247+967889239
3740+966130823+964988661+965273598+966345900+967131267+966901369+966079615
3726+965630144+965690262+965859875+965908919+965590093+964650517+963496197
3713+963162133+963651905+963653737+962535638+960842253+959374187+958090222
3699+956276850+953698262+950577278+947301003+944663712+943406143+942885396
3686+941600182+939020178+935908354+933642347+933109027+933697636+933582562
3672+932630746+932645567+933589556+934209390+934653948+935258378+935626581
3659+935729831+936162232+936698717+936876989+937610648+939396042+940801326
3645+940873934+940307391+939866080+939597796+939277971+938704849+937631381
3632+936505123+936543758+937303479+936828362+935066865+933304036+932319580
3618+931743544+930704965+929192601+927582482+926031982+924686650+923278036
3605+921425779+919379595+917497446+915644856+913669615+911686713+909533033
3591+907020808+904659462+902885308+901171523+899007435+896593880+894208970
3578+891891921+889592691+887145247+884311948+881331684+878881409+876963955
3564+874868394+872377902+869777415+867155612+864420816+861617743+858831489
3551+855954725+852910179+849884285+847001859+844145745+841182467+838107779
3537+834993373+831854070+828621926+825309846+822008507+818660539+815199746
3524+811810811+808586910+805343858+801946347+798434345+794866637+791305675
3510+787830310+784378176+780797313+777130519+773583961+770188865+766802012
3497+763335306+759774760+756183905+752626689+749080215+745490941+741854290
3483+738197404+734557505+731020523+727590955+724118088+720471278+716646444
3470+712800295+709172969+705801520+702480947+699086101+695666191+692302902
3456+689012388+685774831+682556634+679313290+676080730+672916530+669833058
3443+666848547+663911456+660931484+657956549+655162343+652559649+649999505
3429+647439027+644921099+642411997+639870712+637381344+634994726+632606859
3416+630127774+627661638+625353248+623128958+620909997+618727631+616485772
3402+614127631+611935357+610107497+608262942+606254103+604276448+602586393
3389+601123573+599669120+598180612+596710422+595284613+593980831+592882883
3375+591968120+591094324+590160994+589296191+588741180+588497793+588333425
3362+588141330+588010352+587976588+587991159+588001734+588040994+588292666
3348+588806336+589396277+589960197+590539397+591186292+592010627+593054203
3335+594184167+595322333+596482939+597651247+598883379+600317348+601945077
3321+603601658+605220187+606854536+608534848+610240182+611940186+613664088
3308+615492364+617509863+619729241+622011442+624186397+626241283+628299540
3294+630481739+632826058+635265841+637705083+640156856+642700680+645329311
3281+647974179+650597190+653211832+655881846+658616184+661386825+664252390
3267+667257301+670350765+673470500+676607846+679763636+682919925+686130545
3254+689458445+692829353+696162999+699531075+703043577+706659579+710287820
3240+713958445+717661792+721308603+724952998+728737197+732628477+736479040
3227+740257827+744020294+747811321+751656055+755519524+759336696+763140297
3213+766966462+770751661+774489481+778236710+781998678+785750403+789472236
3200+793182079+796917151+800658219+804345496+807962164+811555517+815150952
3186+818700257+822171626+825616349+829096210+832598886+836034533+839347862
3173+842594662+845856615+849147296+852386185+855483938+858472945+861446464
3159+864427061+867366858+870215562+872982748+875710882+878390721+881019769
3146+883614260+886118741+888512478+890897389+893341252+895758720+898048707
3132+900198974+902258397+904309660+906369666+908374550+910318649+912236936
3119+914121833+915965930+917763731+919484927+921136595+922780020+924414036
3105+925973113+927488641+929011497+930489139+931897920+933288799+934677429
3092+936008023+937236783+938397680+939527936+940601903+941618167+942601042
3078+943558437+944489020+945342415+946080986+946742453+947383853+948002687
3065+948541669+948985562+949383907+949780837+950139048+950366115+950494012
3051+950627988+950722328+950657547+950462038+950224146+949912314+949488489
3038+948984646+948397952+947659630+946713143+945579224+944282686+942766575
3024+940952204+938842488+936434929+933648342+930397713+926617344+922233294
3011+917106094+911084615+904067605+895976545+886728833+876230463+864419318
2997+851251350+836637381+820491730+802896331+783898812+763253622+740613956
2984+715522850+687733835+658089317+628486181+600029705+573713211+552985879
2970+539356949+529190145+520148809+514761277+517011671+528693712+547843649
2957+569644283+588835062+602462244+610356546+612757944+609109843+599026014
2943+584064783+569148766+560239198+559923411+566872809+578047301+590580031
2930+603121629+615649196+628322563+641086190+653895656+666651206+678941215
2916+690105174+699421164+706318853+710690079+713008044+714001576+714333809
2903+714477360+714560293+714267945+712863244+709398537+703331928+695098315
2889+684928305+671711835+654972871+636666753+620785472+612362721+614845469
2876+627293476+645452795+665387766+685162242+704105721+721926188+738428884
2862+753522800+767220008+779715352+791534574+803396345+815775948+828608103
2849+841383638+853461485+864441467+874267962+883028150+890805963+897686916
2835+903864519+909601561+915059161+920260468+925192326+929882545+934366347
2822+938632741+942639178+946367672+949829881+953085007+956215317+959235215
2808+962164354+965047447+967852602+970533358+973095792+975569215+977951211
2795+980193154+982232676+983993423+985475229+986796913+988026422+989141440
2781+990149711+991101610+992026115+992883423+993601345+994195949+994741342
2768+995232779+995640950+995985090+996312076+996714002+997234999+997801625
2754+998337277+998774841+999033549+999121062+999084674+998938376+998756939
2741+998668343+998813060+999352458+1000344825+1001667759+1003091444+1004365750
2727+1005312321+1005952638+1006510521+1007221115+1008201991+1009490203
2716+1011039204+1012678216+1014226301+1015604274+1016765171+1017714239
2704+1018566969+1019394635+1020163765+1020811243+1021290690+1021645654
2693+1021939084+1022141337+1022196459+1022103201+1021895202+1021568382
2681+1021110835+1020622145+1020330297+1020455613+1021027485+1021896202
2669+1022895812+1023904166+1024824674+1025648094+1026471347+1027328406
2658+1028161817+1028954428+1029702492+1030384359+1031014851+1031635350
2646+1032249605+1032844292+1033447306+1034044158+1034572483+1035032195
2635+1035471674+1035965110+1036507839+1036948484+1037218849+1037426682
2623+1037637762+1037813120+1037913956+1037926196+1037862830+1037778232
2612+1037719779+1037682309+1037662991+1037655747+1037638594+1037615613
2600+1037572647+1037491130+1037375556+1037250574+1037155650+1037046571
2588+1036872712+1036704680+1036607009+1036549555+1036515166+1036541728
2577+1036627493+1036757554+1036956477+1037213770+1037482137+1037746008
2565+1038014042+1038291901+1038592991+1038877845+1039072938+1039206996
2554+1039345968+1039470950+1039543475+1039607257+1039713671+1039861053
2542+1040060475+1040308692+1040582721+1040885560+1041218208+1041572007
2530+1041937878+1042303084+1042677782+1043088284+1043520436+1043947841
2519+1044392233+1044882671+1045405333+1045912591+1046411772+1046976483
2507+1047601146+1048195917+1048729320+1049221756+1049677389+1050122114
2496+1050550435+1050897822+1051163025+1051393422+1051632313+1051892104
2484+1052128163+1052321175+1052501446+1052702284+1052942923+1053217702
2473+1053509633+1053806977+1054090165+1054341712+1054568696+1054791350
2461+1055059883+1055426588+1055845000+1056192554+1056412376+1056594313
2449+1056871756+1057239210+1057583849+1057874115+1058166546+1058468802
2438+1058755154+1059034679+1059310040+1059555093+1059768171+1059980583
2426+1060206818+1060434467+1060635305+1060795010+1060921491+1060995598
2415+1060992184+1060941309+1060892015+1060881191+1060946221+1061056383
2403+1061147975+1061215171+1061263632+1061263299+1061286447+1061393028
2392+1061584374+1061824763+1062020689+1061963568+1061457143+1060571690
2380+1059660175+1058947166+1058325917+1057807752+1057733228+1057983443
2368+1058178952+1058586624+1059294719+1060286004+1061365800+1061546654
2357+1060631642+1060439380+1063497748+1068314282+1069160933+1063651707
2345+1057325307+1056508799+1059946278+1063025129+1064180448+1063770361
2334+1062890238+1062370407+1062316117+1062609880+1062849687+1062486730
2322+1061704527+1061449899+1061977973+1062290138+1061768392+1061043060
2311+1060843221+1061154304+1061610519+1061952660+1062071564+1062090049
2299+1062197713+1062357251+1062486979+1062659174+1062849104+1062969674
2287+1063027377+1063051025+1063010890+1062882744+1062719375+1062580904
2276+1062442265+1062266990+1062099708+1061986716+1061903616+1061812690
2264+1061736834+1061681629+1061629004+1061596947+1061577296+1061521008
2253+1061438491+1061450648+1061599278+1061414178+1061158134+1060952799
2241+1060862622+1060847051+1060850882+1060865953+1060921325+1061029737
2230+1061159300+1061265298+1061338655+1061406434+1061474462+1061527420
2218+1061577796+1061629088+1061646157+1061598446+1061494363+1061386034
2206+1061284782+1061143479+1060982526+1060921991+1061059130+1061370463
2195+1061759316+1062159077+1062567581+1062980165+1063346536+1063632972
2183+1063887684+1064174036+1064465884+1064688538+1064842331+1064993709
2172+1065158576+1065314617+1065477902+1065658839+1065849435+1066041447
2160+1066210394+1066384754+1066633970+1066930481+1067203011+1067448729
2149+1067684373+1067914604+1068126683+1068309785+1068482729+1068642933
2137+1068774161+1068896895+1069039197+1069190908+1069312227+1069393745
2125+1069463439+1069545706+1069658032+1069788177+1069915491+1070044637
2114+1070188604+1070351889+1070519004+1070671631+1070829088+1071011607
2102+1071194460+1071389303+1071677737+1071993899+1072232873+1072353192
2091+1072404734+1072448616+1072468100+1072389163+1072190657+1071914713
2079+1071601881+1071273729+1070942247+1070603603+1070228072+1069780183
2068+1069276756+1068874663+1068749847+1068854929+1069028706+1069219219
2056+1069459275+1069753039+1070057959+1070338067+1070559971+1070693863
2044+1070747737+1070740909+1070660890+1070519837+1070386278+1070287857
2033+1070202926+1070187855+1070327242+1070588282+1070884293+1071179389
2021+1071443259+1071686480+1071976996+1072277670+1072496244+1072670520
2010+1072860367+1072977439+1072952792+1072879352+1072860533+1072867694
1998+1072803996+1072617646+1072391828+1072293491+1072311643+1072257853
1987+1072110305+1071993482+1071927452+1071799805+1071570657+1071354248
1975+1071242504+1071149246+1070925427+1070616093+1070396103+1070244226
1963+1069985768+1069632885+1069307065+1068974250+1068540516+1068017604
1952+1067443567+1066790926+1066010805+1065103370+1064210507+1063524310
1940+1063030375+1062636442+1062409292+1062411041+1062584900+1062835032
1929+1063057853+1063207565+1063382841+1063685180+1064025323+1064452228
1917+1065048914+1065528777+1065706051+1065755678+1065852017+1066002479
1906+1066118718+1066174757+1066210145+1066197821+1066119634+1066055103
1894+1066011471+1065923376+1065907722+1066016467+1066050357+1065982245
1882+1065939613+1065916964+1065856013+1065797144+1065734028+1065523115
1871+1065287638+1065412038+1065830284+1066119718+1066175090+1066173924
1859+1066246699+1066399825+1066522143+1066505740+1066356776+1066120217
1848+1065840609+1065748933+1065994485+1066243618+1066285501+1066328466
1836+1066441125+1066481759+1066524974+1066815990+1067175700+1067370209
1825+1067668636+1068131845+1068479399+1068679654+1068874497+1069066092
1813+1069212807+1069421056+1069748542+1070034562+1070117328+1070097677
1801+1070283028+1070678376+1070882961+1070789620+1070847906+1071323439
1790+1071818207+1071988820+1072018129+1072110222+1072280501+1072505486
1778+1072595747+1072404318+1072290576+1072607904+1073051713+1073273034
1767+1073280695+1073156462+1073142556+1073294850+1073369706+1073360297
1755+1073252801+1072977023+1072820399+1072986265+1073213749+1073253966
1744+1073159959+1073133064+1073112997+1072773354+1072422470+1072722312
1732+1073314418+1073600021+1073726918+1073741823+1073535822+1073063203
1720+1072484836+1072306896+1072638129+1072904415+1072843880+1072574681
1709+1072187326+1071750095+1071190630+1070540321+1070201011+1070151717
1697+1069949380+1069640796+1069055684+1067929675+1066439043+1064897037
1686+1063769362+1063153276+1062379150+1061061795+1059563086+1058268297
1674+1057104901+1055860571+1054765371+1053917721+1052895128+1051672364
1663+1050607639+1049563897+1048015729+1045987780+1044443192+1043909705
1651+1043114680+1041480997+1040110768+1039371114+1038558020+1037386714
1639+1036104581+1035243858+1035177162+1035294567+1034934857+1034437758
1628+1034251824+1034409114+1034852424+1035307557+1035510310+1036000415
1616+1037193620+1038382411+1039086094+1039585275+1040064389+1040510196
1605+1040982565+1041530540+1042059447+1042465620+1042790358+1043123423
1593+1043462732+1043773315+1044064414+1044358677+1044638035+1044812894
1582+1044753941+1044533869+1044631707+1045120396+1045225478+1044818556
1570+1044580914+1044585910+1044286985+1043389791+1042095418+1041225120
1558+1041307054+1041396398+1040813035+1039892444+1038928971+1037922449
1547+1036666211+1035205139+1034070637+1033696522+1033614588+1032832802
1535+1031412114+1030105417+1028917458+1027423412+1025688644+1023986350
1524+1022356497+1020768444+1019168317+1017461610+1015699697+1013786156
1512+1011443128+1008721572+1006159638+1004050088+1001721632+998485324+994441501
1499+989816146+984663467+978965477+972478623+964620374+955123280+944221069
1485+932269953+919820823+907623156+896415940+886414087+877045639+867230385
1472+856530177+846124649+837581953+831423584+826508046+821065934+815678693
1458+814645276+822226415+836538211+852771624+868131825+880976720+889989205
1445+894933136+897037523+897937963+899114432+901581443+904842064+907561122
1431+909394894+910631980+911452402+912096383+912744028+913415153+914305269
1418+915512379+916592675+917161133+917248230+917022745+916609994+916180591
1404+915938702+915965181+916248536+916451539+915624622+912983834+908586379
1391+902816031+895978543+889171614+884686146+884766665+890469151+900744035
1377+912495311+922577101+929383530+932994036+934741295+936041080+937461685
1364+938985290+940393072+941292014+941486940+941162451+940526797+939580060
1350+938344223+937239447+937128620+938623248+941298259+944256874+947140965
1337+950036131+953030134+956201245+959624901+963267465+967006617+970741440
1323+974432964+978048466+981501349+984653724+987433484+989860360+991894554
1310+993350797+994063888+994031748+993429733+992548943+991618943+990778121
1296+990181768+989958948+990123149+990605510+991329593+992194978+993012486
1283+993581527+993820501+993692105+993170942+992473171+992097723+992434452
1269+993421073+994717778+996009653+997102439+997939847+998464258+998494317
1256+997852334+996387599+993860303+990037218+984899859+978661888+971692756
1242+964494642+957741753+952227698+948708202+947804181+949782835+954259643
1229+960349900+967150918+973835862+979689227+984583364+988826194+992444444
1215+995336696+997661905+999661043+1001524624+1003339827+1005056194+1006672641
1202+1008337465+1010118363+1011746300+1013063988+1014136457+1015154386
1190+1016177395+1016985410+1017427637+1017719402+1018078862+1018383450
1178+1018395773+1018121578+1017735805+1017235625+1016470076+1015416675
1167+1014224053+1013053247+1011910751+1010749854+1009650240+1008657457
1155+1007616879+1006319509+1004675917+1002659959+1000154145+997026001+993356459
1142+989374169+985255489+981217661+977587504+974527887+971847048+969298853
1128+966933593+964881747+962935899+960675804+957924189+954630261+950300585
1115+944007741+934929060+922494584+906067160+885177417+860902902+837220161
1101+819996213+813257978+816431586+825664143+837025484+847856753+856330422
1088+861252121+862159473+858654215+849242136+831154218+801255570+757680032
1074+703253991+648625987+609129577+594069010+597969782+604728375+600695126
1061+583027619+559157404+542004232+543369756+568176633+612714812+667613056
1047+723657459+775089248+819056637+854601899+881799640+900982842+912753686
1034+918189638+918641940+914932430+905974901+888083075+856172050+808571506
1020+754910598+715968158+708645394+731789487+769976286+808696072+842451444
1007+871415511+896285129+916874947+932615675+943179076+949035355+951165554
993+950187176+946127865+938864054+928552034+915438439+899230255+878658922
980+851282658+813771897+763668371+702895696+642142297+600479675+594041907
966+624124531+678399194+740640768+799004219+848474089+888314305+919243871
953+942557910+959979449+973164653+983202061+990699517+996250126+1000511857
939+1003768648+1006061966+1007637529+1008789434+1009605693+1009956577
928+1009673805+1008812166+1007592566+1006013672+1003778141+1000686383+996777951
914+992083568+986668434+980896670+975462884+971437295+969974891+971258939
901+973819125+975309674+973944108+969000593+960481544+949541863+939751256
887+936379973+942304697+954937846+968679768+979608209+986917400+991351825
874+993640730+994143324+993109325+990587608+986022704+978533408+968493752
860+959229054+955646775+959643053+968237209+977121713+984157208+989069331
847+992014790+993473448+994231337+994726438+994813950+994308525+993511750
833+992840625+992208301+991241414+989976267+988860000+987957061+986830137
820+985313776+983730885+982327100+980969694+979358327+977411479+975449977
806+973750847+972123159+970305208+968436048+966734087+965117140+963316092
793+961149506+958785578+956608749+954643917+952488321+950000077+947425819
779+944890280+942184045+938974632+935395101+932125653+929702440+928018214
766+926476457+924477236+921529945+917271961+912055832+907617244+906179903
752+908002683+911013506+913401331+914835508+915397305+915148256+914306351
739+913141624+911933015+910727570+909328947+907753218+906239438+904781613
725+903279907+902063388+900126865+898339973+897054426+895588441+893846095
712+892157373+890639347+889325739+888162511+886936083+885542872+884144083
698+882928896+881889318+880881713+879799586+878642851+877506018+876455864
685+875486896+874594698+873665947+872497972+871526005+872007534+872826457
671+868718352+860556015+859775811+866569501+869311874+866635032+864036460
658+863266580+863227445+863144595+862891133+862538834+862206851+861904512
644+861590681+861398669+861394423+861339550+861077595+860779668+860651022
631+860701315+860816555+860938207+861134799+861305578+861375938+861527149
617+861924912+862484960+863120115+863673669+864011896+864323562+864801426
604+865426589+866225445+867138043+867853216+868343071+869119862+870247286
590+871097351+871590453+872283645+873240956+874001177+874482206+875088467
577+876019799+877051967+877863896+878405709+878993569+879728560+880173118
563+880200679+880398103+881155409+882162514+883099259+884019267+884960009
550+885827809+886667216+887475814+888120877+888666604+889271533+890038415
536+890839436+891361015+891714814+892204419+892683866+892901940+892878958
523+892809931+892814760+892853729+892869133+892989786+893197202+893146659
509+892731161+892126065+891282495+890054236+888623805+887211194+885581258
496+883340481+880397853+877016163+873486841+869875919+866266662+863194888
482+861486099+861057278+860780085+859943509+858327978+855576280+851894664
469+847974075+844708624+843637654+845669683+850052566+855488517+860721549
455+864726237+867627232+869917052+871432331+872131184+872594810+873232963
442+873599417+873405573+873578850+874503272+874946581+874412345+874031486
428+874170041+873686597+872342097+871493032+871713604+872184558+872474657
415+872873253+872923878+872034096+870791764+869636195+868914111+869786241
401+871496779+872158662
##END=
