##TITLE=22
##JCAMP-DX=4.24
##DATA TYPE=INFRARED SPECTRUM
##DATE=16/11/2015
##SAMPLING PROCEDURE=Instrument type and / or accessory
##ORIGIN=Default
##XUNITS=1/CM
##YUNITS=TRANSMITTANCE
##RESOLUTION=4
##FIRSTX=3996.3359
##LASTX=399.24785
##DELTAX=-1.9287336
##MAXY=1.5093737
##MINY=0.70813769
##XFACTOR=1
##YFACTOR=1.4057138e-009
##NPOINTS=1866
##FIRSTY=1.3482938
##XYDATA=(X++(Y..Y))
3996+959152433+959174651+959223159+959302196+959443817+959565086+959682454
3983+959865544+960115121+960297872+960333829+960442632+960735966+961102911
3969+961475198+961801012+961963580+961941277+962082559+962445857+962653117
3956+962705016+962716380+962712055+962792449+963087395+963382765+963298810
3942+963400913+963807460+963849184+963618603+963321283+963407867+964129120
3929+964586125+964378866+964268197+964567638+964529561+964333920+964728001
3915+965443657+965541096+965174152+964952221+964550084+964079170+964551440
3902+965664824+966364791+966811027+966612587+965623270+965092995+965770913
3888+965948407+965457395+966175256+966607753+966376325+966840793+966759890
3875+966151850+966099187+966227834+967135484+967710367+967110807+967221306
3861+967694339+967353938+965864112+964300168+965849611+969740390+970535252
3848+968595205+966920338+966473509+966684076+966761078+967360892+968744120
3834+969237760+968789066+968661521+968516847+968177464+967804159+967188063
3821+967994628+969375651+969103177+969410590+969917460+968849531+967467744
3807+967382347+968504381+968439082+968338590+969666187+969841052+969263201
3794+969030247+968507518+968058061+967958671+968014048+968208756+968260571
3780+968200954+968676956+969013964+968571715+967926530+967753277+968433316
3767+968882010+968839439+968625904+968111402+968305093+968919154+968485894
3753+967341896+967651852+969525838+969958250+968467915+969063744+970484201
3740+969001498+966853089+966742760+968194509+969224955+969219867+968102752
3726+967142184+967264470+967512605+967504125+967074426+966036009+964491569
3713+963590788+964382597+965231733+964516332+962601132+960485796+958962728
3699+957431009+954884024+951793195+948581860+945515709+943565146+943261804
3686+942720080+940014004+936553263+934449884+933710399+933764588+934795628
3672+934379667+933066572+933965487+935136283+935273495+935525870+935964982
3659+935926057+936092187+937471938+938255521+938054452+939325486+941357544
3645+941864584+940857713+939813529+939351351+939093718+938683015+938007471
3632+936829213+935802838+936864152+937763492+936140186+933620677+931919267
3618+931532224+930957087+929043414+927112950+925645766+924247782+923039589
3605+921334786+918967160+916784152+914926279+912848002+910659396+908682630
3591+906331032+903416594+901248171+899928121+897921249+895123925+892422174
3578+889970932+887532156+885045805+882374499+879279429+876370843+874543754
3564+872803843+870046376+866968691+864127015+861313238+858337063+855391248
3551+852612580+849522430+846208907+843273268+840474841+837389948+834070828
3537+830687258+827459217+824264080+820865330+817387797+813934264+810420012
3524+806921109+803599275+800200440+796582304+792943560+789323049+785669380
3510+782034961+778575067+775006456+771104059+767410108+764033576+760531451
3497+756896353+753257186+749559928+745823236+742114529+738479093+734834328
3483+731049383+727308112+723714993+720108390+716479822+712839976+709027216
3470+705092466+701349244+697923315+694539617+691026933+687516964+684085140
3456+680719166+677402718+674120064+670829099+667509046+664337442+661320604
3443+658277434+655228879+652116934+649014318+646162125+643511553+640891764
3429+638291056+635745513+633207475+630597905+627977480+625482183+623017585
3416+620459363+617942908+615599366+613352882+611146001+608964900+606647605
3402+604176350+601912481+600027090+598158404+596133088+594117269+592381555
3389+590866119+589373579+587859754+586372769+584943535+583638114+582490300
3375+581444802+580441790+579473886+578624283+578045797+577766497+577580693
3362+577340487+577163121+577126232+577163206+577192802+577212265+577405107
3348+577865632+578428812+578976472+579543086+580174023+580931232+581868225
3335+582941369+584083798+585249463+586413687+587632311+589024656+590613574
3321+592261728+593875876+595482773+597121471+598828097+600570722+602276627
3308+604031124+605997672+608183183+610424197+612571122+614617640+616658221
3294+618828297+621193761+623671800+626127707+628567966+631098500+633709257
3281+636318869+638911605+641535846+644222375+646914416+649626047+652502959
3267+655553422+658634202+661705908+664832397+668008029+671196467+674449737
3254+677789973+681123933+684416043+687776165+691311746+695018120+698744635
3240+702410177+706061853+709704371+713393572+717230756+721153252+724995015
3227+728760286+732557103+736413537+740298380+744210784+748113097+751958676
3213+755812566+759660096+763464715+767249236+771003312+774760441+778547337
3200+782356111+786184560+789986126+793693222+797340276+800983939+804605128
3186+808187562+811753036+815309012+818857270+822419182+825959723+829392056
3173+832740094+836083552+839434388+842737904+845924731+849015644+852068736
3159+855099948+858093677+861009981+863848011+866661957+869448681+872176637
3146+874847265+877444623+879958026+882434539+884929285+887403764+889789452
3132+892096020+894305742+896423367+898516230+900583143+902640134+904695259
3119+906659475+908533291+910393029+912206889+913959096+915725805+917469448
3105+919104287+920681715+922286026+923869899+925322496+926730402+928191394
3092+929578184+930833274+932045454+933273661+934477276+935600666+936640865
3078+937648499+938663765+939617124+940434205+941154695+941825405+942458716
3065+943069131+943657243+944193878+944651817+945017574+945292846+945505956
3051+945677683+945768169+945722544+945594661+945430566+945181499+944828293
3038+944382566+943810822+943066587+942124845+941024182+939764174+938262899
3024+936446495+934295288+931846844+929073434+925838270+922015927+917556032
3011+912369542+906306269+899219165+891020882+881650193+871003721+859017780
2997+845680836+830894009+814517372+796611306+777224319+756130409+733004441
2984+707387797+679056426+648899579+618830629+589975980+563377270+542476373
2970+528718931+518434867+509278688+503756673+505848730+517386104+536447446
2957+558243909+577513147+591231325+599174349+601595104+597929647+587784788
2943+572763479+557823836+548906887+548553765+555434924+566556761+579051353
2930+591530596+604005089+616671281+629439279+642278809+655123087+667534105
2916+678844206+688311868+695307893+699713090+702045014+703077749+703473399
2903+703662681+703760968+703490106+702126552+698662461+692526809+684194664
2889+673895504+660508781+643577276+625071396+609003316+600417906+602781928
2876+615173187+633321960+653279589+673113193+692151469+710085562+726717626
2862+741960611+755788312+768393742+780368405+792447121+805058148+818083609
2849+831010613+843278441+854514127+864580882+873516700+881422496+888424542
2835+894740189+900615198+906191021+911508787+916592920+921454444+926090051
2822+930503728+934673935+938566156+942183275+945598138+948879011+952010037
2808+955017844+957991050+960921092+963730544+966393116+968943154+971402367
2795+973735308+975886431+977785518+979386097+980775007+982078011+983290191
2781+984364989+985349556+986295877+987161465+987889163+988509585+989078785
2768+989593457+990049190+990478211+990913422+991382130+991883403+992399092
2754+992917326+993368988+993661730+993803351+993823280+993705658+993513239
2741+993391037+993513833+994064970+995107119+996512311+998011380+999313536
2727+1000275631+1000969238+1001589320+1002336353+1003359845+1004719837
2716+1006350861+1008078475+1009708990+1011149460+1012372834+1013379365
2704+1014268529+1015131912+1015943905+1016624706+1017127505+1017504287
2693+1017811869+1018012683+1018084597+1018054407+1017904729+1017589599
2681+1017132000+1016651843+1016364105+1016472230+1017006830+1017863005
2669+1018900490+1019965112+1020940266+1021825444+1022700784+1023601650
2658+1024498107+1025333166+1026090121+1026831557+1027573332+1028265498
2646+1028896180+1029498369+1030114975+1030718351+1031254647+1031762620
2635+1032292132+1032843439+1033380160+1033815625+1034107773+1034340134
2623+1034578347+1034772122+1034874565+1034899836+1034859131+1034764151
2612+1034687997+1034687658+1034713693+1034704449+1034675446+1034654330
2600+1034609469+1034526617+1034426464+1034306382+1034179855+1034047393
2588+1033910265+1033804007+1033714794+1033621425+1033555109+1033539166
2577+1033583094+1033721324+1033953600+1034223953+1034504992+1034795358
2565+1035082757+1035370241+1035665441+1035932911+1036139662+1036309693
2554+1036461999+1036584625+1036666376+1036731081+1036818682+1036956912
2542+1037175196+1037463443+1037761357+1038046381+1038347094+1038682746
2530+1039052828+1039452845+1039876693+1040323098+1040788583+1041260429
2519+1041744742+1042275865+1042839469+1043364232+1043865420+1044427158
2507+1045047410+1045649768+1046207690+1046745852+1047259845+1047750772
2496+1048213290+1048596092+1048873399+1049073959+1049269431+1049510527
2484+1049769093+1049998316+1050190226+1050390193+1050645366+1050942687
2473+1051253237+1051580663+1051909530+1052190908+1052410040+1052613059
2461+1052875186+1053220336+1053591690+1053928868+1054218048+1054498832
2449+1054837197+1055233568+1055606619+1055916745+1056205076+1056497902
2438+1056798785+1057126719+1057463134+1057735353+1057938881+1058149109
2426+1058390799+1058629520+1058825416+1058969497+1059089324+1059170990
2415+1059176332+1059144192+1059135627+1059149874+1059194395+1059284966
2403+1059395040+1059481540+1059508677+1059480946+1059498246+1059580929
2392+1059624094+1059490699+1059087289+1058448380+1057746802+1057163439
2380+1056719578+1056438201+1056414964+1056551159+1056686335+1056961522
2368+1057374430+1057665051+1058012067+1058651823+1059659627+1061535902
2357+1063862144+1065093828+1063255545+1058453892+1054149103+1053736280
2345+1056804806+1059746126+1060399112+1059960255+1059541241+1059287934
2334+1059110016+1059225603+1059613070+1059719837+1059377910+1059159032
2322+1059501553+1059899536+1059678029+1059015884+1058621718+1058792767
2311+1059163612+1059376214+1059456353+1059578216+1059821093+1060120109
2299+1060383085+1060601368+1060803285+1060977641+1061124605+1061243415
2287+1061273011+1061166922+1061018262+1060960596+1061004778+1061045908
2276+1060982814+1060812105+1060622400+1060475435+1060353827+1060247399
2264+1060178369+1060147755+1060120957+1060071856+1060004522+1059923874
2253+1059828216+1059823297+1059997823+1059803708+1059562357+1059391055
2241+1059320329+1059290987+1059254012+1059231115+1059293446+1059432693
2230+1059547262+1059602978+1059666666+1059776571+1059894871+1059981795
2218+1060031914+1060057524+1060069651+1060050486+1059957965+1059800740
2206+1059623585+1059436509+1059268429+1059226621+1059377062+1059654454
2195+1059995618+1060414631+1060888513+1061337716+1061715685+1062019112
2183+1062289295+1062579492+1062880629+1063135039+1063318808+1063486889
2172+1063669725+1063838568+1064000203+1064168453+1064350102+1064548542
2160+1064723237+1064896575+1065143862+1065425494+1065673205+1065917778
2149+1066179481+1066432873+1066661164+1066855364+1067031585+1067195934
2137+1067322207+1067428211+1067551685+1067690423+1067832384+1067954077
2125+1068034470+1068101041+1068197208+1068316441+1068431774+1068558979
2114+1068724855+1068902518+1069046429+1069174821+1069347735+1069571532
2102+1069798465+1070012594+1070276841+1070581794+1070852063+1071012680
2091+1071100621+1071202131+1071265479+1071182287+1070969515+1070685763
2079+1070343497+1069952977+1069556352+1069181097+1068799990+1068359098
2068+1067836454+1067382841+1067274632+1067402939+1067534385+1067705942
2056+1067973836+1068304908+1068632419+1068928298+1069165832+1069337559
2044+1069442800+1069434320+1069350025+1069227230+1069056860+1068917782
2033+1068823481+1068801178+1068939153+1069227654+1069563899+1069902689
2021+1070236136+1070504623+1070770058+1071149299+1071439581+1071564581
2010+1071714344+1071851386+1071871484+1071830524+1071833662+1071841888
1998+1071784222+1071687461+1071483678+1071289648+1071411765+1071408797
1987+1071145907+1070953233+1070846381+1070744786+1070573568+1070383439
1975+1070261492+1070190936+1070062374+1069743428+1069416426+1069328231
1963+1069120632+1068714339+1068372921+1068011573+1067502583+1066934316
1952+1066351971+1065697628+1064941606+1064100611+1063052102+1062226371
1940+1061915312+1061507832+1061122825+1061070840+1061236207+1061496299
1929+1061773945+1062058800+1062222979+1062577203+1063213567+1063375966
1917+1063878087+1064740028+1064908533+1064781836+1064831531+1065073390
1906+1065228750+1065224340+1065235280+1065279547+1065241895+1065143184
1894+1065266912+1065245626+1064890215+1065049985+1065275986+1065072203
1882+1064978580+1064964079+1064880632+1064832549+1064932447+1065006989
1871+1064535228+1064295998+1065104513+1065667184+1065461535+1065215182
1859+1065218659+1065373679+1065506481+1065518608+1065462214+1065434568
1848+1065464164+1064889113+1064698051+1065691183+1065883093+1065372068
1836+1065437282+1065836875+1065821271+1065790912+1066620883+1066927108
1825+1066823732+1067423971+1067759538+1067678466+1067846376+1068254365
1813+1068369359+1068394969+1068839000+1069333149+1069525823+1069361728
1801+1069275313+1069872923+1070665326+1070703572+1070026756+1070216885
1790+1071519041+1071861053+1071236137+1071139377+1071421009+1071665242
1778+1072165667+1072347910+1071776165+1071584255+1072575352+1073039821
1767+1073050591+1072888955+1072231644+1072378778+1072816533+1072708748
1755+1072957392+1072668043+1071914819+1072316024+1073058986+1073166432
1744+1072874030+1072507255+1072714260+1073344519+1072153964+1071218074
1732+1072879033+1073741823+1073319841+1072911852+1072697893+1072865550
1720+1072351811+1071164309+1071516328+1072664311+1072868518+1072341465
1709+1071570093+1070900401+1071075011+1070989783+1069537610+1069868598
1697+1070102146+1068962134+1068819410+1067745969+1066138775+1064748848
1686+1062290228+1061130372+1062058630+1061387581+1058997143+1056613744
1674+1055922087+1055324478+1053339909+1052465840+1052217112+1050334646
1663+1048360424+1047858133+1047531725+1045880942+1042242029+1040721250
1651+1043227868+1042422830+1038782135+1037591496+1037672059+1036743801
1639+1035380587+1033610061+1032855820+1034258807+1034746257+1033579702
1628+1033067998+1033368965+1033593525+1034637539+1035575380+1035009996
1616+1035520767+1037823348+1038845483+1038688852+1038881440+1039448605
1605+1039983375+1040454204+1040976593+1041435209+1041737449+1042036126
1593+1042433091+1042802749+1043105751+1043387044+1043600155+1043819965
1582+1044219050+1044339216+1043485162+1043573866+1045269849+1045050462
1570+1043529175+1043659009+1044116014+1044037062+1042906887+1040005255
1558+1039736513+1042125424+1041773405+1039951659+1038473112+1037569956
1547+1036769666+1035614305+1034356671+1032810535+1032796203+1033724292
1535+1031843692+1029100302+1028282628+1027178403+1025127772+1023618442
1524+1021951037+1019723761+1018613261+1017165921+1014949076+1013076193
1512+1011126563+1008541841+1004465851+1001321002+1000606279+998254003+993169870
1499+987276204+981709201+976798831+970575873+961699672+951534290+940516804
1485+928180370+914928229+902075682+890698121+880540371+870722768+860098514
1472+849196700+839178282+830024774+822682327+817748805+813130158+807345974
1458+804800600+812364977+828073787+844731801+859767696+872456403+881799956
1445+887130527+889417759+890570152+891357043+893239933+897310919+900651325
1431+901932110+902883180+903943138+904694326+905629368+906208660+906416683
1418+908016414+909730630+910023965+909771081+909631325+909369452+908804746
1404+908731815+909176609+909334598+909520741+908699760+905801858+901671255
1391+895883169+888171743+880882807+876528916+876479306+882015187+892523090
1377+904661931+914872853+921967674+925983199+927680539+929023146+930583444
1364+931883819+933327088+934554108+934747460+934215573+933470066+932444539
1350+931056138+929837343+929738547+931392383+934200138+937091510+940082101
1337+943256631+946345934+949476790+952900981+956638691+960527096+964449422
1323+968354703+972120312+975679595+979037725+982025094+984559273+986718283
1310+988268489+989016200+989037316+988444880+987505852+986530189+985699794
1296+985128643+984933171+985135767+985630849+986366094+987336754+988282481
1283+988881617+989097951+988967608+988469049+987791130+987398915+987732446
1269+988781380+990160113+991546648+992773753+993736950+994343295+994397823
1256+993745515+992294021+989762555+985854051+980556299+974110309+966897950
1242+959444580+952443891+946695748+942981699+941969401+943967453+948589832
1229+954900137+961950351+968923564+975104628+980288235+984727608+988495423
1215+991561489+994075231+996210326+998164874+1000101360+1001965084+1003671158
1202+1005353742+1007167856+1008906071+1010343489+1011510638+1012590015
1190+1013625295+1014469174+1015009032+1015357404+1015715105+1016062121
1178+1016161680+1015951367+1015633355+1015226977+1014509116+1013443646
1167+1012246647+1011104430+1009985619+1008814484+1007705086+1006720943
1155+1005677182+1004363493+1002700923+1000652327+998090163+994865429+991044697
1142+986878816+982598365+978441472+974695198+971516852+968751752+966161942
1128+963795673+961757847+959805080+957525649+954776663+951515973+947185488
1115+940770959+931417994+918563496+901575427+879970153+854839517+830282322
1101+812346320+805177381+808241752+817652384+829388240+840710934+849718580
1088+855110294+856329937+852963921+843536922+825216931+794718071+750088338
1074+694333630+638489412+598157726+582670338+586449940+593218183+589155889
1061+571329538+547149888+529582739+530493358+554887094+599217514+654269287
1047+710837556+763038154+807915089+844453137+872613629+892628500+905084337
1034+911060347+911891675+908410156+899517334+881365423+848697293+799905409
1020+744876830+704716108+696612551+719525875+757959958+797244024+831715669
1007+861437645+887038855+908323826+924758638+935975752+942356359+944875189
993+944204055+940382560+933252376+922949951+909768113+893427009+872534762
980+844559566+806160253+754872521+692761799+630762805+588071042+580818571
966+610359025+664504462+727080246+786170652+836608994+877470319+909354442
953+933524764+951687106+965459600+975940535+983791887+989628989+994154692
939+997711685+1000301750+1002092628+1003392325+1004309813+1004701604+1004456523
926+1003691087+1002603738+1001111792+998876714+995757306+991824464+987059108
912+981461830+975404069+969705790+965536008+964043807+965383192+968063827
899+969677042+968344187+963288718+954472982+943063958+932746863+929019245
885+935018830+948133165+962456966+973878032+981584201+986325219+988810043
872+989428514+988490674+986036464+981412050+973634647+963132256+953431427
858+949607133+953647082+962549232+971835627+979244475+984483798+987654258
845+989234484+990069797+990563353+990603465+990140269+989426479+988737027
831+988030191+987058344+985848115+984759409+983875673+982777724+981199787
818+979470816+977974799+976615994+975039330+973127268+971156098+969412116
804+967788640+965993692+964060344+962212309+960453741+958598497+956487147
791+954247320+952160902+950128504+947813626+945253242+942707021+940181745
777+937336846+933849307+930060715+926740408+924283994+922514401+920897794
764+918859036+915846141+911432379+905999959+901336027+899677697+901395474
750+904527857+907130982+908665414+909172115+908832477+908042025+907044737
737+905868938+904500042+902974174+901472306+900093403+898646318+897084155
723+895820754+894286237+892343476+890310824+888562771+887021555+885412919
710+883790291+882363898+881134079+879852785+878399849+876918673+875569451
696+874352437+873158490+871898651+870598276+869370154+868272713+867281955
683+866393809+865525253+864466313+863054506+861073160+859075616+858935436
669+860264559+859330959+856469014+855232581+855634379+855771676+855360973
656+854889806+854484021+854273794+854255900+854084597+853587819+853056611
642+852803473+852816872+852894551+852882594+852742414+852530830+852462309
629+852698486+852964175+853213412+853358087+853493433+853866398+854385734
615+854854018+855336041+855854953+856377511+856927207+857441115+857889132
602+858464777+859305348+860109369+860688916+861419497+862394396+863269737
588+863919161+864636768+865529154+866343521+867124136+867956820+868699274
575+869528142+870312658+870824532+871374990+872052654+872431301+872597092
561+873138562+874128641+875128388+875998556+877023744+878101256+878862197
548+879476597+880383400+881524429+882414611+882928858+883442597+884147822
534+884677759+884951843+885496535+886224318+886609580+886859156+887131121
521+887166738+886864668+886574641+886711683+886950489+886870859+886355509
507+885627981+884905710+883778249+882417579+881059198+879352615+877050712
494+873977691+870567747+867236161+863707916+860051957+857000647+855281682
480+854786685+854681104+854084343+852078488+848762422+845199831+841471535
467+838144359+836893255+838958472+843744775+849138609+854418214+858940015
453+861903979+864173741+865558920+865821556+865946132+866812483+868252445
440+868781703+868248629+868468185+869273393+869153311+868670356+868656618
426+868642965+868286960+867878886+867404920+868556889+870743120+870615152
413+868920865+867938927+867893472+867483957+866646862+866683837+866848440
399+865650507
##END=
