##TITLE=22
##JCAMP-DX=4.24
##DATA TYPE=INFRARED SPECTRUM
##DATE=16/11/2015
##SAMPLING PROCEDURE=Instrument type and / or accessory
##ORIGIN=Default
##XUNITS=1/CM
##YUNITS=TRANSMITTANCE
##RESOLUTION=4
##FIRSTX=3996.3359
##LASTX=399.24785
##DELTAX=-1.9287336
##MAXY=1.5568945
##MINY=0.78269416
##XFACTOR=1
##YFACTOR=1.449971e-009
##NPOINTS=1866
##FIRSTY=1.386212
##XYDATA=(X++(Y..Y))
3996+956027368+956058281+956114598+956215723+956283057+956293663+956364532
3983+956567356+956822140+956994216+957080213+957201644+957401180+957630478
3969+957879835+958132729+958306367+958403462+958552765+958791353+959027721
3956+959134107+959041944+958921828+959024514+959239095+959302647+959397441
3942+959721944+959983058+959955516+959716928+959578396+959858256+960297695
3929+960424059+960370373+960476841+960594326+960519346+960584378+961015925
3915+961394771+961388112+961166296+960769526+960235951+960127510+960716580
3902+961541031+962219880+962430597+961947420+961435796+961580906+961738758
3888+961507488+961704310+962170140+962301520+962519883+962613114+962240845
3875+961920207+961964603+962505331+963083630+963059788+963061679+963440114
3861+963395061+962353480+960945384+961205019+963832280+965745915+965139497
3848+963728113+962933999+962711197+962620925+962928326+963917619+964648016
3834+964581998+964398576+964368157+964249192+963898545+963406900+963533346
3821+964270074+964601812+964999074+965612562+965246706+964155631+963697283
3807+964076869+964158509+964120772+964860542+965401845+965274412+965190388
3794+964982385+964521817+964205453+964168786+964280516+964295561+964222554
3780+964475941+964905760+964816310+964213264+963838939+964151767+964645632
3767+964744372+964526009+964193039+964164017+964498139+964341355+963533182
3753+963318765+964317101+964924752+964335435+964522721+965643146+965249830
3740+963522987+962532873+962977080+964072101+964741741+964437053+963678291
3726+963340059+963489197+963717754+963716768+963155486+961933032+960772733
3713+960798795+961703488+961870878+960782270+959255292+958131413+957229844
3699+955807690+953719841+951222069+948660663+946732969+945983497+945651184
3686+944436212+942124410+939481117+937593215+937270440+938089300+938230052
3672+937438076+937449093+938176859+938439947+938496182+938724246+938787305
3659+938721616+939023838+939317016+939208493+939720281+941274883+942354447
3645+942066942+941190613+940515792+940086548+939664703+939026058+937930626
3632+936848512+936933112+937645915+937077974+935282975+933581208+932677255
3618+932070920+930881270+929262622+927737206+926415271+925231458+923848192
3605+922021869+920082583+918300985+916484035+914564563+912692775+910647020
3591+908264020+906100945+904511895+902890616+900781967+898442376+896160089
3578+893967499+891801382+889493690+886828035+884072601+881869570+880112719
3564+878064662+875583990+873019049+870465863+867845838+865198763+862566076
3551+859827825+856933448+854058227+851289885+848510691+845615738+842623525
3537+839611005+836603912+833533512+830377198+827199344+823951936+820586796
3524+817271396+814090089+810907219+807610071+804199795+800715279+797233969
3510+793857402+790535260+787074998+783492070+780012816+776646854+773258612
3497+769840854+766390950+762900268+759391417+755867437+752340170+748812162
3483+745224713+741577164+738001965+734541620+731101172+727567820+723847018
3470+720037178+716415938+713055567+709750937+706364586+702951432+699611614
3456+696357465+693152562+689945685+686697291+683479850+680359834+677333132
3443+674401511+671480126+668481953+665522215+662785074+660199290+657589213
3429+654984643+652478690+650022272+647521047+644993390+642533683+640163590
3416+637778042+635352618+633001148+630749979+628578518+626432749+624152394
3402+621747771+619557606+617760758+615970774+614009989+612027581+610285199
3389+608796410+607386629+605965503+604533113+603125799+601836833+600740661
3375+599793339+598855883+597866673+596995729+596500795+596327404+596173045
3362+595963849+595842500+595831976+595871316+595924263+596009561+596276307
3348+596792124+597409229+598008823+598605867+599248172+600044588+601080990
3335+602262254+603463743+604656148+605846784+607093492+608505739+610112548
3321+611812013+613500544+615145459+616799542+618540731+620325083+622068286
3308+623829618+625796529+628046793+630395920+632622877+634720427+636809508
3294+638991370+641349829+643874485+646424176+648934692+651478998+654087390
3281+656706265+659305737+661932875+664637459+667373819+670131020+673020095
3267+676077709+679221157+682386884+685568356+688761790+691958061+695200865
3254+698530652+701890366+705215632+708577483+712117330+715802286+719476801
3240+723139312+726829612+730473132+734108430+737897963+741813450+745705012
3227+749539682+753337108+757121709+760934262+764770247+768586912+772385818
3213+776177735+779950497+783724821+787499556+791243871+794959822+798660481
3200+802369773+806111128+809839494+813485727+817052869+820596908+824153445
3186+827695511+831176903+834608966+838050237+841509184+844895864+848169746
3173+851404411+854648941+857883195+861028081+864032873+866973208+869920203
3159+872842533+875675907+878399441+881061397+883719653+886372400+888990453
3146+891536074+893969965+896318106+898665508+901048343+903402568+905655504
3132+907782816+909807359+911779202+913721284+915640345+917551267+919441635
3119+921258010+922996856+924706023+926377288+927998896+929579396+931080641
3105+932516196+933986528+935482100+936886660+938192562+939481857+940775427
3092+942026328+943189998+944265534+945291823+946286706+947227245+948104643
3078+948980314+949895695+950746867+951432128+952006071+952572121+953128634
3065+953609262+954024119+954430096+954820700+955125553+955280034+955344244
3051+955423911+955467073+955371375+955180143+954963754+954674521+954266078
3038+953762758+953173523+952453074+951556355+950498002+949298157+947929196
3024+946313426+944391816+942186647+939717485+936907214+933637690+929821930
3011+925354945+920135694+914097417+907181907+899283353+890250561+880020227
2997+868585854+855801019+841495454+825681574+808263516+788853389+767043655
2984+742399972+714754292+685049210+655377425+627309448+601970391+581800269
2970+567465436+555954604+545816596+539799860+541890915+553854053+573561592
2957+596018933+615891765+630079845+638174729+640335748+636176700+625641225
2943+610473513+595338193+585865675+584762104+590987789+601631295+613877376
2930+626340134+638892630+651621517+664446145+677315455+690108964+702421968
2916+713647185+723090887+730165401+734731044+737255043+738525017+739224666
2903+739724122+740041636+739860023+738515644+735128389+729152924+720857189
2889+710346420+696694875+679559965+660773192+644290863+635263004+637223419
2876+649241518+667019555+686563856+705930902+724468481+741843788+757818563
2862+772326130+785424039+797333696+808590978+819885256+831645775+843823206
2849+855966353+867482612+877962551+887286877+895525308+902788587+909180388
2835+914915538+920270115+925380350+930255614+934919257+939401287+943664707
2822+947664053+951415274+954954052+958265341+961358432+964314881+967182128
2808+969979162+972712974+975357417+977897859+980324516+982646677+984883992
2795+986993874+988899452+990544573+991940994+993191730+994357538+995390487
2781+996294604+997154408+997983710+998726522+999339353+999836835+1000280138
2768+1000688911+1001049917+1001369240+1001683876+1002068149+1002542200
2756+1003030064+1003481342+1003854926+1004071809+1004133717+1004087759
2745+1003935990+1003742538+1003638208+1003760626+1004249147+1005145454
2733+1006336996+1007609765+1008732739+1009572071+1010166650+1010672025
2721+1011269070+1012115391+1013289913+1014736157+1016263792+1017685700
2710+1018945069+1020014109+1020880244+1021643610+1022384613+1023080398
2698+1023676292+1024122719+1024433409+1024664269+1024824753+1024877123
2687+1024796388+1024603019+1024299728+1023872375+1023404489+1023119779
2675+1023239155+1023762700+1024506581+1025337363+1026211472+1027057957
2664+1027820830+1028563642+1029343286+1030104925+1030816824+1031492631
2652+1032108750+1032664112+1033222598+1033801802+1034357575+1034890575
2640+1035386249+1035807107+1036207083+1036641836+1037109145+1037583690
2629+1037980953+1038244780+1038429928+1038586301+1038700827+1038773998
2617+1038807542+1038774902+1038698771+1038642783+1038606444+1038557362
2606+1038494467+1038439054+1038420885+1038408306+1038354537+1038282106
2594+1038217649+1038140943+1037996656+1037809863+1037685308+1037629648
2583+1037574646+1037529099+1037553024+1037635732+1037743434+1037903424
2571+1038133708+1038409868+1038700662+1038970492+1039211135+1039451614
2559+1039683049+1039870581+1040021692+1040152414+1040269077+1040350798
2548+1040391988+1040449374+1040580425+1040799445+1041071001+1041347655
2536+1041619622+1041897508+1042204334+1042562627+1042941967+1043300917
2525+1043672940+1044085083+1044492787+1044903698+1045384491+1045900965
2513+1046362520+1046799739+1047318679+1047913505+1048459001+1048904606
2502+1049330479+1049788992+1050253506+1050659484+1050960966+1051203747
2490+1051448418+1051692432+1051914824+1052105974+1052274761+1052452098
2478+1052666022+1052927219+1053220068+1053512260+1053788749+1054047233
2467+1054279243+1054478532+1054676013+1054938032+1055281937+1055663085
2455+1056000989+1056229711+1056407213+1056663312+1057015357+1057353260
2444+1057616512+1057856580+1058120161+1058409065+1058702819+1058956205
2432+1059140202+1059312113+1059538533+1059788220+1059999759+1060162709
2421+1060299268+1060419138+1060493378+1060495515+1060448160+1060396364
2409+1060382223+1060438869+1060541227+1060632568+1060686665+1060718236
2397+1060709356+1060717249+1060771758+1060839749+1060833419+1060640378
2386+1060209079+1059606525+1058974457+1058439402+1058106596+1058002594
2374+1058041399+1058251787+1058721152+1059335216+1059885563+1060358628
2363+1061007468+1062010326+1063123763+1063963917+1064359782+1063954380
2351+1062323894+1059944757+1058211502+1058359242+1059988496+1061473544
2340+1062125920+1062155846+1061811366+1061372091+1061218925+1061394947
2328+1061512103+1061291767+1060927308+1060791078+1060874115+1060832761
2316+1060479237+1060019984+1059773504+1059785343+1059924697+1060107461
2305+1060307490+1060523304+1060747340+1060963976+1061155290+1061323420
2293+1061483739+1061633206+1061744689+1061785139+1061736386+1061646854
2282+1061588070+1061576066+1061568503+1061498538+1061339534+1061149289
2270+1061006728+1060925911+1060870662+1060814098+1060752026+1060703355
2259+1060681732+1060658465+1060603135+1060517220+1060496255+1060628046
2247+1060455723+1060278797+1060161887+1060116669+1060102281+1060084687
2235+1060077206+1060139196+1060272631+1060397762+1060489267+1060579292
2224+1060670222+1060748244+1060810974+1060867538+1060931172+1060979844
2212+1060966443+1060885214+1060789187+1060708534+1060605108+1060479648
2201+1060444049+1060574935+1060839421+1061174035+1061532986+1061912819
2189+1062297420+1062628171+1062887724+1063135931+1063420723+1063705762
2178+1063930291+1064096694+1064255040+1064417662+1064565813+1064715526
2166+1064890726+1065089851+1065278205+1065420437+1065567520+1065786212
2154+1066040585+1066285996+1066545138+1066826148+1067099924+1067331359
2143+1067509519+1067663508+1067805740+1067927253+1068044903+1068188039
2131+1068344083+1068467405+1068562528+1068670394+1068802185+1068942526
2120+1069062066+1069165410+1069287746+1069430142+1069577389+1069729076
2108+1069892519+1070079147+1070268899+1070430945+1070596855+1070841198
2097+1071124921+1071371813+1071515853+1071575706+1071616073+1071634654
2085+1071564607+1071402068+1071193077+1070946104+1070657612+1070345441
2073+1070036149+1069719786+1069333951+1068874452+1068511719+1068428189
2062+1068555869+1068709117+1068865244+1069107284+1069418221+1069705316
2050+1069932065+1070108498+1070247359+1070331383+1070327190+1070229683
2039+1070074625+1069941108+1069864895+1069791313+1069744368+1069830036
2027+1070041246+1070298250+1070571121+1070815793+1071021659+1071257452
2016+1071502370+1071674282+1071800481+1071940740+1072042193+1072042769
2004+1071981601+1071934656+1071900373+1071799906+1071591902+1071380939
1992+1071320593+1071354548+1071287214+1071118344+1070969782+1070873179
1981+1070763833+1070589126+1070391153+1070255334+1070145741+1069934613
1969+1069649903+1069448312+1069312986+1069090677+1068782289+1068478751
1958+1068156715+1067749176+1067270109+1066752813+1066165551+1065463025
1946+1064660853+1063893048+1063304636+1062859771+1062495312+1062279004
1935+1062263219+1062416468+1062657029+1062863964+1062964841+1063061690
1923+1063292057+1063585811+1063955285+1064449643+1064834409+1064991111
1911+1065063296+1065152663+1065255843+1065316189+1065326959+1065334934
1900+1065311749+1065236934+1065196155+1065198046+1065160885+1065155705
1888+1065215229+1065203719+1065135563+1065106294+1065089440+1065035178
1877+1064981163+1064921393+1064746357+1064593684+1064776365+1065164256
1865+1065383358+1065383029+1065333947+1065374397+1065521973+1065644144
1854+1065635676+1065523699+1065347677+1065161789+1065194922+1065503392
1842+1065689691+1065639869+1065663300+1065821153+1065924497+1066028746
1830+1066348315+1066681697+1066828533+1067060625+1067434375+1067727389
1819+1067936297+1068167156+1068397687+1068591632+1068826685+1069117890
1807+1069352203+1069440995+1069471003+1069694957+1070100441+1070316748
1796+1070279176+1070411213+1070889869+1071313276+1071426897+1071447862
1784+1071559674+1071754112+1071979875+1072064145+1071935314+1071971571
1773+1072426219+1072884403+1073026471+1072969907+1072847735+1072860972
1761+1073014221+1073080239+1073079910+1073009452+1072822742+1072778675
1749+1072981664+1073140338+1073096107+1072993585+1073024909+1073064701
1738+1072806381+1072591554+1072960288+1073468787+1073641110+1073714774
1726+1073741823+1073593507+1073224773+1072826195+1072840089+1073220334
1715+1073389450+1073241216+1072984952+1072697775+1072398760+1071982012
1703+1071491929+1071319606+1071361700+1071144488+1070731112+1070027763
1691+1068899938+1067557450+1066273828+1065430385+1064945153+1064085267
1680+1062680295+1061257484+1060149308+1059145299+1058007609+1056974907
1668+1056106717+1055044500+1053838736+1052780547+1051695721+1050173265
1657+1048332883+1047028625+1046526785+1045580573+1043896893+1042512805
1645+1041610167+1040566366+1039261944+1038024855+1037323480+1037278015
1634+1037162092+1036551070+1035960931+1035781949+1035939309+1036331063
1622+1036700208+1036873271+1037408243+1038588850+1039654684+1040244577
1610+1040706049+1041184787+1041632201+1042104525+1042629961+1043100148
1599+1043458194+1043793220+1044170258+1044531757+1044832664+1045108906
1587+1045392054+1045656622+1045836673+1045850156+1045781013+1046033249
1576+1046566166+1046623223+1046205160+1045992635+1045989675+1045699456
1564+1044922278+1043928711+1043480475+1043760006+1043656908+1042811738
1553+1041764156+1040784564+1039833173+1038739714+1037577524+1036787849
1541+1036594562+1036395355+1035417079+1033974372+1032746656+1031607239
1529+1030193060+1028643226+1027192707+1025838874+1024520311+1023118957
1518+1021509599+1019769356+1017899788+1015743043+1013400821+1011335418
1506+1009584733+1007352679+1004231060+1000534182+996433301+991827866+986636486
1493+980693414+973493029+964698661+954454925+943144862+931345373+919780443
1479+909179813+899793414+891022313+881607468+870986448+860548850+852153060
1466+846291299+841570516+836132984+830692657+829610379+837042446+851055244
1452+866916644+881898592+894392797+903097962+907763331+909588503+910230355
1439+911202547+913479161+916534433+919095182+920837563+922009044+922807433
1425+923508809+924260089+925047708+926059610+927367649+928565850+929368761
1412+929848732+930135580+930282416+930386582+930572635+930858085+931216460
1398+931372997+930554547+928101089+923987464+918460564+911786848+905068490
1385+900569195+900475059+905801107+915526806+926662574+936173857+942506052
1371+945765628+947290797+948445835+949745571+951165341+952475765+953271277
1358+953375279+952975961+952293330+951379018+950229735+949149595+948972257
1344+950376817+952970863+955836219+958588364+961315680+964131789+967112081
1331+970311064+973711968+977223779+980741839+984215009+987601936+990809799
1317+993735006+996339494+998625151+1000533114+1001888098+1002545982+1002527648
1304+1001995800+1001193135+1000332098+999549494+998979416+998746583+998864232
1290+999280816+999975861+1000842324+1001618598+1002104488+1002284539+1002136223
1277+1001605936+1000900532+1000503434+1000768166+1001633890+1002799369
1265+1003985813+1005023941+1005850365+1006367908+1006402356+1005837129
1254+1004554658+1002306819+998858149+994197137+988520852+982160211+975570108
1240+969351122+964237599+961005319+960312740+962417936+966902926+972845586
1227+979346487+985660512+991147455+995664098+999512086+1002787447+1005402294
1213+1007445171+1009131893+1010681069+1012195304+1013596657+1014831608
1202+1016053487+1017418008+1018728514+1019802899+1020677091+1021497514
1190+1022273541+1022837700+1023113366+1023281331+1023513424+1023712302
1178+1023651052+1023312326+1022887029+1022375569+1021586470+1020493340
1167+1019262747+1018073261+1016939928+1015804540+1014757697+1013835081
1155+1012856312+1011641175+1010123487+1008271102+1005962918+1003076104
1144+999715239+996099919+992363497+988680103+985355084+982545552+980055591
1130+977681223+975513379+973638796+971831383+969732518+967221344+964267443
1117+960382787+954633414+946161410+934406893+918809238+898879431+875572974
1103+852770987+836258280+830041844+833645325+843299908+855087147+866359638
1090+875298951+880668574+881975956+878928577+870135770+852734484+823475994
1076+780505612+726655316+672641947+634022915+620210188+625434660+632896324
1063+628315841+609044329+583432030+565134354+566215275+591598934+637297660
1049+693395424+750059609+801155787+843912902+877771237+903259679+921038578
1036+931852557+936800910+937134456+933455748+924508214+906553209+874562716
1022+826986243+773352090+734275491+726877954+750214502+788628202+827281395
1009+860553207+888671541+912497679+932042391+946920090+956921785+962523993
995+964693646+964099396+960784243+954541744+945425504+933630373+918785231
982+899397632+872768046+835389844+784737462+723058248+661607180+619501824
968+612755471+643102405+698326430+761428539+819896519+868650229+907139731
955+936352921+957886824+973687879+985488601+994323665+1000773510+1005478260
941+1009111503+1011959182+1013999840+1015353180+1016314355+1016994026
930+1017231627+1016912304+1016119341+1015010426+1013561141+1011516784
918+1008669680+1004987191+1000541089+995473277+990097488+985048422+981334444
905+980005933+981232169+983667704+985116743+983856223+979164956+971047546
891+960611427+951227331+947920399+953511098+965518673+978492931+988720470
878+995560096+999727243+1001851924+1002258312+1001192806+998755544+994417719
864+987281791+977792378+969152409+965814071+969469019+977433345+985754813
851+992401644+996996638+999603016+1000794475+1001482861+1002016436+1002091416
837+1001521008+1000645666+999887397+999215701+998294154+997093569+996019102
824+995226221+994257976+992750729+991071078+989699486+988479416+986977925
810+985128993+983245613+981624827+980149151+978477228+976678776+975036779
797+973505526+971850210+969897605+967744971+965723799+963806711+961621931
783+959196672+956798873+954412091+951807851+948739096+945371736+942307749
770+940009759+938414132+936964929+935090346+932319538+928207146+923119768
756+918865473+917554720+919381783+922337575+924601116+925845686+926248951
743+925947797+925155821+924095248+922959613+921754588+920376666+918911349
729+917513942+916111519+914647764+913457949+911879094+910140659+908511158
716+906955734+905419054+903872673+902374142+901041355+899906213+898809548
702+897583312+896232027+894897103+893716332+892680835+891617056+890423870
689+889213749+888137473+887256540+886515043+885684261+884584307+883381338
675+882335317+881373814+880125955+878591167+877690831+877753067+877723223
662+877233222+876613979+876119539+875733128+875385606+875183357+875115859
648+874894947+874429446+874013521+873887814+873994858+874134623+874158054
635+874037692+873830839+873680632+873726755+873858710+874056519+874220620
621+874358823+874669267+875198567+875692843+876124718+876569501+876989619
608+877459313+877978254+878460034+879089636+879980681+880778331+881301711
594+881997249+883023456+883905130+884476030+885058276+885782590+886436199
581+886994192+887744403+888686175+889558476+890250561+890824093+891497269
567+892139943+892292369+892212045+892592372+893489666+894508555+895451972
554+896302814+897035103+897715843+898565452+899599634+900510246+901094795
540+901549854+902341338+903428713+904162892+904484764+904906526+905401460
527+905616288+905581758+905538430+905485648+905356078+905312339+905517712
513+905716919+905593843+905200938+904616883+903769658+902635667+901326559
500+899969930+898462601+896453350+893680651+890398548+887095398+883899292
486+880696527+877781185+876007397+875576756+875435099+874604317+872922528
473+870374605+866937034+863037496+859974003+859459584+861861905+865880654
459+870399352+875023696+879149406+882348636+884625415+885861352+886131510
446+886100186+886504848+887133793+887086930+886677417+886836750+887061937
432+886686297+886255655+886152557+885903939+885362389+885149371+885325639
419+885443207+885870724+886672649+886637790+885340356+884068244+883418664
405+883004547+883003725+883255960+883447028
##END=
