##TITLE=22
##JCAMP-DX=4.24
##DATA TYPE=INFRARED SPECTRUM
##DATE=16/11/2015
##SAMPLING PROCEDURE=Instrument type and / or accessory
##ORIGIN=Default
##XUNITS=1/CM
##YUNITS=TRANSMITTANCE
##RESOLUTION=4
##FIRSTX=3996.3359
##LASTX=399.24785
##DELTAX=-1.9287336
##MAXY=1.477991
##MINY=0.66377401
##XFACTOR=1
##YFACTOR=1.3764864e-009
##NPOINTS=1866
##FIRSTY=1.3222975
##XYDATA=(X++(Y..Y))
3996+960632435+960658330+960670627+960731770+960861936+961010981+961185575
3983+961400353+961601621+961748675+961873125+962058024+962353344+962705649
3969+963040980+963306248+963449924+963540339+963739961+964032077+964263569
3956+964355283+964312154+964266774+964412269+964663940+964762669+964863129
3942+965178022+965438873+965446667+965261248+965151261+965458878+965926367
3929+966051510+966037653+966243598+966361033+966174661+966239181+966811460
3915+967266825+967216767+966932706+966458809+965819584+965693835+966424687
3902+967451638+968267707+968463866+967808966+967140642+967315583+967556342
3888+967294971+967494507+968026862+968137975+968332574+968415800+967943895
3875+967537722+967597392+968244238+968943825+968903295+968836090+969255600
3861+969252829+968046694+966263690+966330895+969347920+971810419+971279450
3848+969602882+968556186+968188898+968007722+968324606+969525198+970505556
3834+970510233+970287833+970221495+970055648+969593096+968918277+968993796
3821+969953282+970512225+971042068+971793098+971373069+969992167+969340818
3807+969803457+969966186+969883652+970743198+971501156+971386406+971194838
3794+970913808+970430557+970113153+970065867+970191963+970259687+970225046
3780+970522097+971013922+970932947+970274496+969844248+970155329+970688810
3767+970820881+970598742+970190144+970080936+970410638+970189451+969167610
3753+968845010+970091762+971006820+970375650+970508327+971856926+971502455
3740+969449073+968217910+968760052+970074181+970804167+970343347+969379877
3726+968970499+969156958+969437122+969522167+969055804+967794157+966392210
3713+966145216+966921274+967008658+965745191+963926506+962462205+961188087
3699+959222348+956338693+952876696+949311900+946537107+945311573+944783721
3686+943263127+940336170+936992735+934705262+934349839+935246970+935287155
3672+934229806+934191873+935189465+935731173+935985356+936433446+936701139
3659+936755613+937204915+937725232+937810796+938562000+940531809+941998622
3645+941839963+940938242+940266974+939854479+939366725+938601491+937354653
3632+936135355+936295139+937276969+936728592+934621776+932600957+931596350
3618+931020000+929781475+927982796+926185935+924583501+923239059+921725307
3605+919602036+917243028+915089619+913002981+910843942+908673298+906227080
3591+903389499+900849229+899002917+897074505+894522110+891730256+889041806
3578+886442039+883863923+881114505+877928169+874649166+872063083+870014984
3564+867576387+864607167+861569011+858550860+855418651+852253620+849149211
3551+845945121+842557604+839193816+835947983+832690718+829316018+825831764
3537+822335213+818851911+815279321+811627229+808009691+804351449+800544942
3524+796745709+793079067+789449318+785729154+781877093+777934617+774017516
3510+770220015+766437410+762496233+758508204+754692170+750952434+747148004
3497+743346866+739556207+735713672+731821427+727922426+724029141+720129447
3483+716239670+712352101+708447990+704554922+700720874+696895703+692953920
3470+688950345+685086116+681387647+677724252+674051981+670399195+666802270
3456+663293766+659860869+656405064+652861616+649383641+646092471+642891845
3443+639712134+636528656+633304907+630123810+627144112+624323374+621494800
3429+618657954+615914598+613262436+610641494+608041944+605449192+602828900
3416+600180288+597593209+595142098+592756719+590414989+588115695+585716070
3402+583207930+580898720+578948916+576986382+574861768+572746984+570898334
3389+569321967+567805011+566207080+564555670+562974454+561616632+560505242
3375+559501805+558468229+557380655+556405277+555798009+555537548+555308870
3362+554962324+554662024+554535755+554516702+554479290+554437546+554592827
3348+555015931+555533694+556033009+556544190+557085422+557755651+558684955
3335+559763002+560846765+561981408+563179402+564395453+565714692+567216969
3321+568807972+570383690+571948192+573560802+575261749+576991622+578673775
3308+580391047+582341760+584541892+586766534+588869800+590921579+593020948
3294+595223549+597585891+600052461+602493092+604926276+607457236+610081945
3281+612710681+615291568+617871590+620538258+623279189+626068489+628977563
3267+632029403+635152041+638279833+641422218+644604353+647809699+651083938
3254+654476825+657900629+661280439+664709829+668302901+671989159+675660261
3240+679376138+683159522+686905667+690640033+694511754+698504157+702470579
3227+706381445+710297160+714245915+718229051+722228123+726203725+730170753
3213+734152115+738123257+742085565+746039906+749955621+753817555+757669963
3200+761580655+765532485+769453743+773316630+777133270+780940384+784771574
3186+788598606+792362938+796060238+799757365+803489479+807180284+810774179
3173+814303467+817805301+821300901+824760126+828138723+831465011+834769389
3159+838028039+841216973+844319563+847322732+850274457+853228781+856171933
3146+859046408+861811069+864513981+867236986+869977917+872664548+875242664
3132+877685677+880015153+882320380+884636258+886903119+889112388+891314989
3119+893500183+895623974+897660381+899607933+901522142+903445012+905335751
3105+907165089+908979703+910775092+912477121+914103025+915720096+917322704
3092+918869712+920337824+921736912+923111059+924446493+925676270+926816586
3078+927942872+929069244+930138198+931102707+931970999+932787329+933576725
3065+934310781+934960311+935559611+936152416+936690400+937074229+937336033
3051+937582855+937787846+937847950+937781871+937676474+937522405+937253326
3038+936820999+936230099+935520985+934682485+933674241+932457454+930971069
3024+929152470+926989621+924504085+921682525+918432881+914610265+910101918
3011+904798200+898585659+891351450+882986711+873405186+862508665+850211670
2997+836484582+821274400+804443856+785984203+765886089+743891086+719692054
2984+692876929+663237214+631733303+600456598+570700747+543528944+522207071
2970+508023017+497366865+487953439+482223455+484127012+495545885+514621076
2957+536553941+556030888+570006312+578187624+580721961+576998074+566645729
2943+551357906+536174182+527035550+526481370+533205265+544222079+556703455
2930+569292565+581946932+594796548+607742467+620766157+633807080+646439580
2916+657995374+667722178+674989037+679644567+682159852+683305796+683779217
2903+684042580+684214100+684001400+682661765+679169501+672924613+664367743
2889+653734845+639936265+622540240+603530306+586958405+577975314+580117638
2876+592446547+610666869+630795252+650857685+670182685+688458607+705440925
2862+721016706+735198725+748202322+760574403+773031875+786036426+799508031
2849+812939799+825719785+837434195+847936754+857262625+865538421+872899765
2835+879546365+885740720+891644518+897291708+902711909+907920795+912876192
2822+917561385+921992134+926180046+930118798+933815492+937330664+940706489
2808+943977957+947212272+950395230+953461447+956392387+959182597+961839955
2795+964373730+966737501+968829681+970586271+972107384+973541374+974892571
2781+976114121+977238501+978312564+979314313+980178189+980896310+981507821
2768+982028657+982506712+982997237+983493998+984016913+984605561+985232055
2754+985834645+986339720+986669335+986805996+986787636+986658077+986494568
2741+986407531+986564371+987164710+988272030+989751487+991336514+992746774
2727+993825774+994602006+995266865+996056694+997138292+998588304+1000353900
2714+1002224548+1004002269+1005623930+1007016090+1008132763+1009099090
2702+1010051735+1010978745+1011767794+1012362071+1012824364+1013193730
2691+1013432324+1013525943+1013480736+1013282672+1012926730+1012440967
2679+1011924288+1011607836+1011735058+1012342845+1013285357+1014396747
2667+1015544337+1016644295+1017695148+1018725390+1019702370+1020594912
2656+1021451252+1022301098+1023121758+1023901021+1024646422+1025360126
2644+1026049408+1026746830+1027434206+1028057842+1028631507+1029199890
2633+1029785333+1030374154+1030896636+1031286008+1031577171+1031838022
2621+1032040589+1032152308+1032188509+1032144081+1032052714+1031995728
2610+1031991051+1032004129+1032014781+1032018765+1032010018+1031967582
2598+1031899511+1031823646+1031728468+1031602459+1031415394+1031199924
2586+1031059971+1030993113+1030925215+1030858617+1030854287+1030937167
2575+1031092968+1031308179+1031567125+1031865129+1032200633+1032526524
2563+1032817167+1033123486+1033430064+1033668139+1033858841+1034029104
2552+1034167498+1034277225+1034362184+1034440560+1034569081+1034792173
2540+1035071644+1035355965+1035664016+1036028792+1036429769+1036834729
2529+1037258050+1037719390+1038209828+1038706243+1039187675+1039679066
2517+1040232639+1040834883+1041424224+1042004818+1042649065+1043351597
2505+1044002773+1044569510+1045117107+1045658989+1046176881+1046645149
2494+1047017113+1047319361+1047616327+1047917016+1048201770+1048453615
2482+1048676100+1048883344+1049090934+1049333079+1049633768+1049979318
2471+1050330844+1050648767+1050930750+1051197144+1051472199+1051796098
2459+1052180793+1052584541+1052943342+1053233898+1053514755+1053849307
2448+1054242056+1054636537+1054981828+1055310144+1055659245+1056016746
2436+1056378231+1056712523+1056968438+1057196986+1057474465+1057767533
2424+1058027259+1058254941+1058450060+1058595468+1058674278+1058684237
2413+1058639203+1058577974+1058557103+1058615820+1058735507+1058864633
2401+1058965700+1059023292+1059020001+1059038448+1059131374+1059283624
2390+1059436826+1059480128+1059266823+1058714808+1057915713+1057114193
2378+1056523553+1056141975+1055883549+1055858174+1056154966+1056659694
2367+1057383098+1058228960+1059255478+1060406099+1061157129+1061219224
2355+1061449418+1062816636+1064169391+1062856734+1058696015+1055499373
2343+1056203464+1058886804+1060777803+1061353807+1061062644+1060618972
2332+1060524660+1060736147+1060978292+1061007997+1060711551+1060330147
2320+1060264501+1060481098+1060435717+1059953333+1059505936+1059456399
2309+1059733792+1060091120+1060348421+1060455290+1060526912+1060683751
2297+1060881815+1061048528+1061227105+1061414170+1061558106+1061638128
2286+1061649213+1061575687+1061425948+1061264085+1061139635+1061018823
2274+1060850637+1060669289+1060538430+1060454597+1060371717+1060285113
2262+1060203792+1060138666+1060109307+1060082979+1059994123+1059859541
2251+1059834772+1059988841+1059803941+1059571582+1059407035+1059329264
2239+1059282844+1059242141+1059243786+1059329611+1059468437+1059604665
2228+1059717337+1059790171+1059838063+1059911503+1060007720+1060082719
2216+1060127927+1060146633+1060108441+1059985290+1059815286+1059636795
2205+1059438299+1059251147+1059176841+1059297394+1059609255+1060036906
2193+1060509244+1060982016+1061416595+1061786567+1062086131+1062371491
2181+1062716781+1063079306+1063355486+1063538134+1063702769+1063876496
2170+1064029352+1064177878+1064362518+1064577469+1064788697+1064957921
2158+1065120217+1065361756+1065652399+1065919399+1066201209+1066514196
2147+1066788384+1067006453+1067216641+1067432112+1067619956+1067759735
2135+1067871714+1067991488+1068116630+1068212328+1068287673+1068374624
2124+1068470581+1068588016+1068732558+1068873030+1069003975+1069144187
2112+1069292800+1069440806+1069608905+1069826454+1070061324+1070262246
2100+1070467757+1070775375+1071129758+1071421354+1071588413+1071682292
2089+1071778336+1071847100+1071786910+1071565463+1071237061+1070875056
2077+1070505690+1070103674+1069670047+1069225855+1068737668+1068183056
2066+1067723102+1067554397+1067617878+1067762073+1067981355+1068306986
2054+1068695405+1069078282+1069403393+1069644672+1069810865+1069903099
2043+1069907602+1069813983+1069652293+1069500390+1069392914+1069316789
2031+1069321552+1069479172+1069764272+1070107917+1070482393+1070846303
2019+1071194798+1071583823+1071958472+1072218631+1072419119+1072646368
2008+1072822088+1072858808+1072827371+1072836897+1072873098+1072827284
1996+1072648187+1072462421+1072438432+1072497669+1072435141+1072262453
1985+1072109077+1072009742+1071893779+1071711911+1071512462+1071376753
1973+1071274041+1071082126+1070828116+1070651184+1070505257+1070232887
1962+1069874346+1069536764+1069148258+1068627767+1068026649+1067385432
1950+1066672941+1065829504+1064829920+1063835100+1063059387+1062471172
1938+1061993897+1061718583+1061710789+1061911450+1062201834+1062477494
1927+1062694697+1062948447+1063355053+1063809118+1064348228+1065038549
1915+1065541372+1065717438+1065830543+1066033197+1066259407+1066386282
1904+1066395115+1066374070+1066359434+1066344192+1066350601+1066327218
1892+1066229528+1066236890+1066374850+1066394942+1066303228+1066244078
1881+1066184754+1066078058+1065995870+1065923036+1065709384+1065534444
1869+1065777022+1066243645+1066472972+1066450282+1066404901+1066469508
1857+1066633969+1066756514+1066723691+1066552301+1066288852+1066001933
1846+1065979156+1066313621+1066495489+1066354931+1066298119+1066414947
1834+1066466304+1066544421+1066946610+1067404312+1067618484+1067906269
1823+1068328724+1068609581+1068779584+1068999559+1069228973+1069405818
1811+1069644845+1069971343+1070212622+1070271512+1070292037+1070544142
1800+1070965211+1071126467+1070981665+1071089747+1071683418+1072180179
1788+1072235692+1072193256+1072287481+1072461902+1072662650+1072695906
1776+1072451423+1072387076+1072879593+1073452132+1073629065+1073499505
1765+1073261344+1073212845+1073374275+1073445377+1073418443+1073265587
1753+1072969748+1072911983+1073195265+1073406665+1073349593+1073181495
1742+1073120785+1073062934+1072666201+1072377203+1072905488+1073604556
1730+1073741823+1073650196+1073515180+1073224710+1072694520+1072127870
1719+1072105959+1072606790+1072826332+1072535429+1072036156+1071521295
1707+1071060735+1070496250+1069820045+1069531567+1069555990+1069283880
1695+1068784867+1067950351+1066584951+1064920335+1063273212+1062193260
1684+1061712175+1060833143+1059170692+1057369501+1055944518+1054708245
1672+1053359907+1052198980+1051288165+1050107925+1048732826+1047604982
1661+1046487183+1044807671+1042726229+1041392007+1041233609+1040549956
1649+1038797870+1037401639+1036706642+1035855844+1034638970+1033438292
1637+1032849124+1033127989+1033380354+1032960324+1032493528+1032509203
1626+1032913731+1033571056+1034144201+1034370324+1034952044+1036337276
1614+1037607843+1038252178+1038725122+1039275578+1039820837+1040360467
1603+1040939761+1041490563+1041926701+1042284549+1042646727+1043010637
1591+1043345448+1043655664+1043941804+1044180311+1044311776+1044221621
1580+1043982767+1044127396+1044708336+1044795027+1044291338+1044025983
1568+1044026676+1043653066+1042639885+1041321079+1040697443+1041111497
1556+1041161208+1040283042+1039130949+1038038785+1036941252+1035645656
1545+1034211146+1033124006+1032787376+1032648809+1031652863+1030024620
1533+1028606912+1027291310+1025637086+1023795537+1022019808+1020332675
1522+1018736995+1017098879+1015232909+1013197714+1010960038+1008351178
1510+1005501125+1002924742+1000721794+998004766+994215492+989690604+984700392
1497+979163796+972941555+965833614+957289865+946886034+934710112+921208108
1483+907144650+893442591+880959051+869956786+859760718+849024848+837086999
1470+825261650+815514278+808561878+803041650+796875442+790723090+789291958
1456+797098967+812079648+829222140+845675003+859648393+869549141+874962153
1443+877184586+878045344+879253124+881943479+885444188+888255182+890140898
1429+891480923+892410444+893133934+893819318+894545320+895615400+897016826
1416+898130987+898678325+898845298+898782163+898553702+898333381+898302377
1402+898501480+898944632+899271216+898447525+895635145+890825070+884401821
1389+876781445+869179515+864016095+863726924+869567587+880525078+893284798
1375+904371069+911890032+915836232+917721602+919138531+920711261+922450963
1362+924059806+925016867+925147380+924697818+923870056+922675960+921183512
1348+919860895+919651747+921242836+924204348+927551768+930785130+933925393
1335+937144552+940594857+944348363+948369822+952535303+956736465+960930613
1321+965044132+968959587+972579117+975841491+978701676+981086232+982831304
1308+983760998+983835651+983226305+982258331+981228869+980321518+979691474
1294+979490812+979743003+980335548+981187126+982232264+983263458+984015008
1281+984360298+984261483+983725144+983021226+982684683+983104020+984224416
1267+985712967+987234600+988580687+989675708+990415480+990591806+990031478
1254+988556697+985878121+981763303+976220124+969455915+961827051+953860345
1240+946312802+940093506+936062001+934945848+937113807+942146974+948993544
1227+956634965+964207623+970933034+976587239+981440962+985562016+988904066
1213+991641100+993979410+996099910+998164897+1000165537+1002040428+1003886566
1200+1005801988+1007583693+1009083675+1010352857+1011551804+1012706409
1188+1013643032+1014256102+1014692413+1015111057+1015440585+1015522772
1177+1015360217+1015096247+1014737187+1014088783+1013065729+1011858209
1165+1010703171+1009595505+1008444537+1007345532+1006348373+1005278207
1153+1003935064+1002203676+1000010342+997241611+993784984+989723687+985296921
1140+980709591+976219171+972201003+968829335+965890253+963167855+960731683
1126+958646431+956671252+954411493+951684765+948374498+943900533+937260255
1113+927500931+913896388+895759942+872651817+845783951+819514605+800243646
1099+792410830+795554730+805604523+818245770+830510548+840395534+846538792
1086+848295555+845179455+835599575+816519838+784499117+737629440+679271434
1072+621087111+579210807+563103537+566966077+574034440+569909099+551467850
1059+526466042+508220734+508669083+532873918+577491760+633488897+691651742
1045+745891466+792919282+831438857+861325567+882781546+896341921+903116523
1032+904487898+901242065+892125083+873029064+838453785+786854141+728758848
1018+686212228+676980930+700050949+739570930+780378670+816490479+847874833
1005+875135881+897988957+915793710+928140762+935361461+938428543+938146993
991+934639270+927658551+917245453+903698415+886770182+864999397+835641491
978+795145786+741072731+675927391+611318738+566824523+558572890+587910270
964+642744748+706857680+768068511+820887193+864084599+898006018+923801639
951+943211425+957944332+969185451+977669010+984040210+989008078+992931501
937+995818706+997868191+999418317+1000566773+1001166333+1001066046+1000317267
924+999159631+997616347+995364208+992153450+987950123+982791639+976840729
910+970495683+964485016+960013043+958376833+959821648+962797709+964683512
897+963369383+957983910+948532118+936286652+925166432+921055858+927353618
883+941330038+956704855+969051041+977454838+982697154+985542184+986380338
870+985468743+982843775+977878418+969547975+958280442+947823004+943628683
856+947891940+957483772+967588299+975583844+981111867+984484835+986246967
843+987212949+987886209+988140651+987737943+986906630+986072807+985286961
829+984313705+983145763+982075857+981128928+979931973+978341750+976646129
816+975098861+973638457+971992721+970015031+967943462+966073594+964310249
802+962444971+960559255+958738924+956892959+954901499+952640700+950217086
789+947973695+945882640+943503280+940769797+937983052+935210597+932207341
775+928635444+924661271+921066943+918438251+916643035+915035405+912901741
762+909642917+904880907+899042235+894020240+892264170+894202455+897631888
748+900368836+901886659+902362288+902026004+901195212+900105213+898914494
735+897638817+896156848+894519512+892921667+891343569+889744598+888449608
721+886573158+884644832+882994765+881298712+879479940+877660995+875954289
708+874468337+873152995+871796083+870322255+868848687+867468132+866203886
694+865036031+863870513+862637965+861404376+860235828+859163583+858217434
681+857259247+856079527+854954194+854595826+854390228+851563472+846645835
667+845819719+849088848+850166462+848454387+846875162+846267028+845970583
654+845583289+845226567+845025559+844836589+844473545+844001120+843679040
640+843632880+843685275+843617204+843427195+843257105+843267584+843504966
627+843788074+843966046+843970809+844041131+844493464+845233409+845874192
613+846372772+846799210+847118260+847542533+848256150+849057757+849857979
600+850792003+851622536+852120683+852803296+854001722+855163689+855949101
586+856713988+857620646+858458973+859222041+859970560+860715355+861675447
573+862792466+863659199+864335923+865051619+865503259+865593414+865864571
559+866648771+867831349+869232863+870493038+871301660+871892906+872708196
546+873757664+874793535+875673519+876353447+877031730+877782847+878325855
532+878741294+879382684+880147138+880640088+880711190+880622680+880629695
519+880687893+880785063+881133558+881513663+881346517+880653338+879866974
505+879154222+878378250+877315445+875956368+874263519+871860603+868603944
492+864915131+861164137+857386555+853650716+850422550+848519600+848044143
478+847921859+847231538+845734587+843130923+839361049+834999842+831189610
465+829757439+831786139+836391482+842097044+847889555+852855258+856618810
451+859316699+861108710+862194465+862775925+863324735+864042942+864240486
438+863838383+863753251+864262397+864802546+864966834+864747119+864343458
424+864170770+864589240+865469137+866335351+866857920+867071139+866804658
411+866053542+865449998+865070066+864619032+864359307+864041383+863519421
##END=
