##TITLE=22
##JCAMP-DX=4.24
##DATA TYPE=INFRARED SPECTRUM
##DATE=16/11/2015
##SAMPLING PROCEDURE=Instrument type and / or accessory
##ORIGIN=Default
##XUNITS=1/CM
##YUNITS=TRANSMITTANCE
##RESOLUTION=4
##FIRSTX=3996.3359
##LASTX=399.24785
##DELTAX=-1.9287336
##MAXY=1.549596
##MINY=0.75516093
##XFACTOR=1
##YFACTOR=1.4431737e-009
##NPOINTS=1866
##FIRSTY=1.3813204
##XYDATA=(X++(Y..Y))
3996+957140754+957158349+957204028+957351968+957508830+957568716+957655366
3983+957886735+958143214+958263153+958291733+958397299+958639901+958936856
3969+959206470+959422392+959560255+959651861+959796497+960000029+960184314
3956+960287402+960270138+960207856+960282859+960459462+960527113+960644574
3942+960993320+961269542+961264833+961073527+960976965+961279537+961728232
3929+961820085+961691556+961732527+961789522+961664628+961752930+962277619
3915+962740191+962760841+962531290+962109771+961509831+961305061+961849161
3902+962709793+963434132+963662857+963201524+962729205+962911095+963087285
3888+962854182+963002370+963359625+963395061+963613461+963785026+963480885
3875+963179221+963181286+963630147+964175156+964232151+964318140+964698358
3861+964622612+963569517+962141655+962337010+964884213+966787780+966246323
3848+964886443+964060504+963749176+963602062+963922476+964957729+965736998
3834+965737328+965620694+965609377+965472588+965104017+964572803+964637150
3821+965374126+965783172+966249214+966907884+966580449+965487126+964965576
3807+965266248+965308623+965254436+965972662+966505859+966376174+966291341
3794+966137866+965786642+965522232+965437895+965505712+965551804+965531979
3780+965786146+966179333+966099704+965555273+965196780+965457720+965910297
3767+966034614+965882295+965588314+965532144+965792507+965540983+964624842
3753+964333917+965351080+966041635+965467880+965570472+966626954+966260613
3740+964568094+963536063+963901247+965007373+965785898+965569315+964849355
3726+964545131+964711987+964914693+964868601+964273039+963013769+961773663
3713+961661324+962418786+962510805+961416326+959848702+958571424+957432588
3699+955731892+953308344+950390752+947333068+944919680+943837509+943378240
3686+942095842+939565407+936577603+934458114+934060963+934782740+934767294
3672+933844132+933807952+934643804+935149329+935477673+935965273+936268341
3659+936373576+936791460+937255106+937376201+938055604+939690631+940886711
3645+940807330+940158490+939659738+939356588+939066407+938592188+937632350
3632+936585368+936632038+937320445+936753215+934927625+933148291+932169621
3618+931558117+930423493+928827371+927259830+925912671+924759544+923404786
3605+921572257+919589061+917718370+915811003+913841354+911935143+909848530
3591+907397558+905107247+903386727+901718163+899608586+897223117+894832445
3578+892516445+890258102+887898571+885192275+882349687+879994368+878086671
3564+875953057+873439555+870867406+868307234+865635632+862871432+860092943
3551+857236642+854264946+851326291+848510796+845713391+842790843+839717546
3537+836580977+833452419+830308085+827130131+823937474+820633965+817167482
3524+813754856+810511729+807278184+803939735+800501419+796961833+793387968
3510+789909425+786502746+783013630+779437203+775926528+772504155+769069556
3497+765597952+762115031+758627237+755087485+751490739+747904235+744350359
3483+740782853+737176277+733580191+730015825+726452202+722844056+719118367
3470+715339070+711748353+708413125+705114903+701703763+698262143+694924685
3456+691673463+688425422+685168170+681914553+678721979+675637118+672633125
3443+669673199+666697910+663671119+660685050+657891527+655264654+652666361
3429+650090866+647620194+645199165+642711849+640206814+637768521+635370456
3416+632941994+630514109+628200546+625969502+623749321+621526455+619205334
3402+616811812+614678280+612946980+611174874+609202499+607220378+605489903
3389+603998480+602557815+601099061+599649764+598248583+596974775+595877901
3375+594918311+593996347+593059267+592220566+591679728+591425478+591223557
3362+590976701+590830454+590868533+590989132+591050877+591077641+591307151
3348+591838200+592483323+593092927+593678535+594295408+595073149+596098490
3335+597246578+598395904+599564023+600778812+602072569+603519015+605118648
3321+606754171+608356075+609977101+611699563+613518876+615322866+617037275
3308+618761719+620713898+622948947+625258669+627448907+629523379+631596487
3294+633784907+636159059+638656577+641143605+643612956+646126664+648696211
3281+651307679+653927614+656556387+659234597+661947542+664722438+667645027
3267+670687513+673783855+676922036+680082726+683238914+686413357+689671641
3254+693000880+696306454+699588569+702974928+706547142+710218396+713870155
3240+717527615+721219271+724867644+728492723+732239062+736106744+739966413
3227+743776687+747576965+751392525+755240630+759120867+762968394+766760825
3213+770529302+774288609+778076580+781881402+785653678+789391096+793088948
3200+796769948+800476391+804172343+807801882+811385991+814980838+818586257
3186+822147650+825649817+829131995+832615989+836083051+839476513+842777957
3173+846050986+849344417+852635536+855833727+858873074+861823293+864790033
3159+867777919+870698402+873478626+876170466+878865692+881547785+884170239
3146+886726198+889193277+891574946+893943728+896339439+898708635+901002910
3132+903189968+905254610+907263412+909270397+911234925+913144522+915053293
3119+916944057+918756844+920493472+922167240+923801029+925432091+927029865
3105+928547680+930042780+931550930+933004811+934382533+935723166+937039845
3092+938307541+939502546+940657986+941811855+942911043+943908712+944828239
3078+945712248+946587170+947405510+948106967+948725492+949330966+949936853
3065+950514160+951028524+951454008+951812418+952122094+952321743+952424253
3051+952518171+952562611+952462993+952261031+952035114+951751954+951359841
3038+950852994+950216131+949425298+948486690+947427895+946228594+944816427
3024+943095989+941023252+938644640+935964034+932862901+929218327+924987939
3011+920086987+914359848+907682122+899985004+891178620+881143612+869838513
2997+857274309+843333126+827830432+810797202+792257639+771961458+749577094
2984+724628428+696878640+667236683+637651928+609349820+583362184+562803824
2970+548921124+538288984+528859285+523264061+525483251+537255301+556567359
2957+578571712+597984876+611811778+619815723+622187066+618388935+608140566
2943+593083387+578089439+569025089+568495444+575251435+586271846+598681171
2930+611151374+623683322+636422230+649248489+662065332+674781938+687042207
2916+698235133+707614362+714565005+718992399+721392901+722491592+722930871
2903+723174795+723343469+723110365+721759159+718335133+712263708+703971854
2889+693688709+680346433+663495259+645045360+628962510+620320298+622630846
2876+634975329+653065577+672900838+692510471+711271573+728947944+745332664
2862+760265238+773733440+786006141+797658335+809367772+821569931+834200051
2849+846769294+858675407+869508765+879162812+887726097+895311620+902023047
2835+908048959+913638400+918950298+924015299+928862560+933521653+937942604
2822+942098733+946027375+949728613+953168085+956386101+959459067+962401026
2808+965250636+968067205+970811580+973435851+975947536+978347129+980629179
2795+982792200+984800259+986548699+987996633+989278949+990499479+991612956
2781+992578988+993445733+994288110+995103641+995814351+996386866+996859764
2768+997278970+997689750+998096897+998475214+998876744+999353110+999863509
2754+1000361848+1000779980+1001029522+1001102707+1001032330+1000856553
2743+1000679784+1000620228+1000786341+1001316564+1002268802+1003528981
2731+1004878866+1006088492+1006997612+1007617871+1008161807+1008859630
2720+1009811950+1011054535+1012554012+1014144104+1015655146+1017011226
2708+1018136928+1019017633+1019796902+1020593104+1021357174+1021982555
2696+1022437280+1022775371+1023036146+1023193999+1023224562+1023154763
2685+1023008061+1022728618+1022288101+1021812560+1021529152+1021639756
2673+1022170806+1022975599+1023905203+1024860002+1025755410+1026568545
2662+1027365243+1028188374+1028988789+1029715275+1030378406+1031023694
2650+1031661052+1032285360+1032889016+1033443029+1033978209+1034518096
2639+1035010571+1035459926+1035934146+1036465112+1036979889+1037350855
2627+1037569834+1037747594+1037938818+1038103114+1038196371+1038218591
2615+1038178612+1038084528+1038009773+1038008204+1038018611+1037990444
2604+1037967811+1037969050+1037929236+1037845312+1037755771+1037653923
2592+1037544888+1037414872+1037282213+1037200437+1037136998+1037055553
2581+1036990627+1036971794+1036999135+1037093385+1037281883+1037531837
2569+1037802442+1038099644+1038397921+1038664643+1038935496+1039184624
2558+1039347846+1039473649+1039611429+1039737728+1039831812+1039911523
2546+1040013371+1040159495+1040360631+1040601086+1040859631+1041145517
2534+1041448089+1041757516+1042114358+1042522991+1042932202+1043331914
2523+1043745999+1044170491+1044604153+1045074159+1045564981+1046023093
2511+1046482031+1047026792+1047632679+1048193135+1048683131+1049153550
2500+1049626778+1050100336+1050532676+1050866719+1051122373+1051349860
2488+1051570820+1051784925+1051988457+1052186620+1052378009+1052586001
2476+1052845537+1053127789+1053405745+1053708482+1054008080+1054250187
2465+1054460410+1054685996+1054953297+1055268589+1055604119+1055918256
2453+1056178618+1056411060+1056695129+1057057753+1057429380+1057742855
2442+1058016929+1058302072+1058590932+1058857241+1059108434+1059336499
2430+1059545317+1059773877+1060015654+1060216460+1060351349+1060468396
2419+1060601303+1060686879+1060680023+1060634509+1060601138+1060586683
2407+1060614107+1060694892+1060811774+1060926921+1060981191+1060953436
2395+1060945176+1061009028+1061095264+1061101294+1060918826+1060502511
2384+1059912153+1059289911+1058774556+1058445882+1058301246+1058294968
2372+1058485036+1058929931+1059515498+1060071410+1060607003+1061288058
2361+1062167606+1063106958+1063914312+1064389604+1064074147+1062506027
2349+1060139805+1058385500+1058511551+1060088839+1061469039+1062093016
2338+1062265737+1062093429+1061720976+1061555772+1061682731+1061739479
2326+1061478539+1061106085+1061011588+1061184062+1061209916+1060845062
2314+1060339950+1060094787+1060175654+1060398102+1060629306+1060846054
2303+1061062884+1061276824+1061479199+1061668193+1061841906+1061981503
2291+1062088721+1062186439+1062250208+1062221132+1062119366+1062033295
2280+1062018839+1062036929+1061988855+1061835876+1061650186+1061509680
2268+1061410392+1061320934+1061241305+1061177619+1061131609+1061103194
2257+1061070814+1061003163+1060906271+1060901810+1061065197+1060873725
2245+1060637401+1060486404+1060446755+1060443120+1060430152+1060426352
2233+1060482439+1060587674+1060676719+1060756430+1060858196+1060960623
2222+1061042069+1061101129+1061157133+1061236679+1061297640+1061261377
2210+1061133922+1060993829+1060875130+1060750731+1060625836+1060598660
2199+1060748666+1061033808+1061385611+1061773263+1062170249+1062544189
2187+1062862455+1063118192+1063368889+1063678895+1064004596+1064232247
2176+1064366806+1064514829+1064697876+1064881253+1065060995+1065232147
2164+1065410815+1065613769+1065800780+1065978540+1066212717+1066482165
2152+1066725842+1066959358+1067215425+1067472896+1067693031+1067886568
2141+1068073579+1068227384+1068337658+1068434055+1068547881+1068686570
2129+1068827159+1068954201+1069075048+1069190691+1069290970+1069379272
2118+1069482772+1069610558+1069744786+1069879676+1070024477+1070191416
2106+1070376858+1070554453+1070722631+1070927236+1071206019+1071485297
2095+1071705927+1071846186+1071934900+1071996026+1072006764+1071923584
2083+1071741033+1071490170+1071197676+1070879492+1070558748+1070256507
2071+1069934854+1069515896+1069016318+1068623049+1068513683+1068625196
2060+1068784701+1068948832+1069173427+1069462535+1069755359+1070025386
2048+1070266915+1070434432+1070484902+1070440131+1070349517+1070239573
2037+1070131034+1070030425+1069934358+1069907017+1070024064+1070254937
2025+1070530085+1070820597+1071089715+1071341404+1071632329+1071915406
2014+1072101013+1072232186+1072371701+1072450999+1072425227+1072379961
2002+1072386404+1072390782+1072302480+1072102583+1071896160+1071819175
1990+1071813558+1071722943+1071569881+1071447548+1071361393+1071238977
1979+1071036849+1070819110+1070670426+1070556518+1070360007+1070085355
1967+1069855060+1069672096+1069431146+1069136752+1068834180+1068483781
1956+1068053094+1067561280+1067014536+1066387421+1065648462+1064794438
1944+1063955200+1063313876+1062852378+1062473812+1062237653+1062233440
1933+1062426399+1062679574+1062871376+1062989580+1063151893+1063454383
1921+1063789995+1064190451+1064738764+1065171930+1065333830+1065391651
1909+1065484579+1065619303+1065722143+1065750475+1065740563+1065708018
1898+1065659117+1065636154+1065612199+1065526954+1065501595+1065591962
1886+1065616495+1065545787+1065484909+1065434192+1065365384+1065320614
1875+1065277082+1065099735+1064911320+1065052817+1065445591+1065717187
1863+1065763692+1065730486+1065777404+1065931870+1066053295+1066041070
1852+1065925509+1065735442+1065502999+1065454760+1065712148+1065939387
1840+1065955494+1065983166+1066097074+1066151179+1066213130+1066525779
1828+1066905171+1067110933+1067389633+1067805618+1068121406+1068319568
1817+1068521283+1068729027+1068920995+1069173097+1069487811+1069736856
1805+1069823919+1069830527+1070004570+1070356703+1070548836+1070501092
1794+1070622847+1071128786+1071612174+1071749376+1071745163+1071832887
1782+1072035758+1072297441+1072412919+1072255975+1072192454+1072550534
1771+1072996091+1073186158+1073167242+1073038465+1073020045+1073159973
1759+1073237206+1073240180+1073144527+1072895233+1072768852+1072935874
1747+1073141718+1073170794+1073090092+1073090340+1073098517+1072803545
1736+1072513116+1072826095+1073362431+1073591157+1073702835+1073741823
1724+1073573067+1073152126+1072662791+1072565898+1072896638+1073110742
1713+1073022606+1072763896+1072405981+1072014942+1071535849+1070990510
1701+1070713297+1070649858+1070415846+1070080481+1069481120+1068390193
1690+1066988517+1065581884+1064593301+1064009469+1063150985+1061778219
1678+1060326156+1059126029+1058038323+1056847778+1055775519+1054902910
1666+1053859727+1052640849+1051556117+1050494101+1049021800+1047170272
1655+1045761492+1045160726+1044214188+1042556114+1041199539+1040379630
1643+1039452090+1038226852+1036983689+1036200703+1036108106+1036070604
1632+1035583169+1035062610+1034913843+1035109363+1035551119+1035967021
1620+1036150398+1036645102+1037795833+1038894525+1039539070+1040032122
1609+1040523275+1040982295+1041465187+1042004662+1042517869+1042931954
1597+1043275910+1043609292+1043931523+1044222118+1044502222+1044801655
1585+1045090101+1045275048+1045254810+1045108522+1045259518+1045731012
1574+1045801719+1045416049+1045217143+1045220861+1044914819+1044064843
1562+1042908082+1042230414+1042395453+1042392727+1041689865+1040710782
1551+1039741776+1038773926+1037632529+1036369789+1035436633+1035128527
1539+1034939037+1034052303+1032628489+1031330644+1030132995+1028684235
1528+1027057137+1025462420+1023907103+1022372437+1020823647+1019161030
1516+1017412094+1015517613+1013275542+1010737508+1008358235+1006344641
1504+1004042932+1000866135+996950709+992494982+987523900+982027882+975791996
1491+968227536+959001699+948303065+936531346+924294494+912337251+901367103
1477+891610960+882501757+872876539+862219123+851785229+843263493+837175051
1464+832314078+826894054+821511366+820455379+827978290+842223036+858377378
1450+873613267+886303522+895188956+900052655+902087807+902914738+904027472
1437+906431443+909618070+912278438+914083213+915306551+916124726+916787278
1423+917472959+918182429+919092374+920313482+921442571+922108593+922333766
1410+922284783+922063988+921805691+921699629+921816264+922129326+922319146
1396+921498080+918919983+914622440+908953948+902180322+895370103+890827148
1383+890822605+896415020+906543451+918112630+928003332+934637939+938121438
1369+939801401+941069510+942460613+943953234+945334425+946216616+946402719
1356+946052156+945379113+944427619+943204280+942077587+941920147+943382288
1342+946049182+949003697+951860493+954711507+957666600+960787558+964120556
1329+967649321+971284395+974928555+978536866+982049028+985368562+988415839
1315+991144106+993529987+995525986+996972103+997703793+997700241+997108066
1302+996206215+995263559+994446624+993876586+993654964+993799518+994248378
1288+994946945+995808816+996615922+997151349+997361489+997220983+996687786
1275+995976912+995586369+995894640+996844234+998097970+999352532+1000437677
1261+1001282449+1001799457+1001827211+1001218598+999817995+997381562+993685279
1248+988719980+982711663+976011635+969053558+962465373+957065917+953640074
1234+952806123+954838219+959331282+965343729+971968754+978459137+984171078
1221+988952175+993063698+996546288+999322795+1001542151+1003415486+1005135345
1207+1006834142+1008461487+1009961295+1011473411+1013107282+1014625427
1196+1015884202+1016932588+1017909111+1018855485+1019600308+1020014723
1184+1020255922+1020518349+1020738484+1020723946+1020454415+1020077088
1173+1019587340+1018807245+1017720613+1016509583+1015327546+1014175741
1161+1013023688+1011966876+1011024385+1009983763+1008659154+1007042795
1150+1005104122+1002672727+999640070+996118987+992311605+988362312+984474393
1136+980972143+978031589+975447214+972949159+970619778+968607919+966700139
1123+964513081+961869729+958680707+954481130+948358408+939446790+927195235
1109+911023298+890471794+866584152+843261675+826311378+819769616+823105588
1096+832485395+843984114+854969047+863603205+868632604+869603510+866215664
1082+857017581+839166920+809461525+766063002+711851936+657486446+618287293
1069+603573409+607847163+614797228+610548502+592371810+568017302+550570111
1055+551860192+576847598+621808046+677196441+733532530+784895968+828481585
1042+863494088+890151462+908854495+920240379+925435891+925780920+922035572
1028+913082983+895198868+863290721+815716080+762068361+723112430+715803872
1015+738999555+777245850+815989410+849646906+878356945+902878228+923100397
1001+938527015+948874259+954591073+956672400+955810199+952045109+945179133
988+935286283+922597185+906803235+886547282+859347789+821858047+771558690
974+710481484+649522357+607740069+601237048+631481752+686171621+748782213
961+807205247+856429536+895835153+926208634+948885245+965673064+978320531
947+987934185+995089516+1000333763+1004342943+1007477778+1009721336+1011210323
934+1012275560+1013031783+1013331464+1013048634+1012238141+1011089310
922+1009587603+1007412522+1004388126+1000586196+996032668+990769670+985142232
908+979853380+975927876+974470030+975709972+978249906+979778542+978487635
895+973628975+965218587+954407118+944708466+941338958+947157538+959608742
881+973127828+983779131+990822040+995104550+997331918+997825135+996842748
868+994433986+989991558+982594533+972733650+963743477+960278398+964138646
854+972493195+981155603+988030087+992819774+995621557+996946744+997707840
841+998317692+998448369+997879735+996981767+996188456+995490467+994592086
827+993438051+992341259+991429662+990391518+988993311+987415031+985927283
814+984507599+982867368+980953641+979097157+977488810+975952161+974273437
800+972526566+970872706+969272867+967519635+965395355+963032520+960907414
787+959038292+956892287+954426860+951993978+949547797+946816060+943591106
773+940066637+936879927+934518992+932886690+931372427+929393692+926515502
760+922330793+917173195+912809818+911416732+913260661+916336848+918722729
746+919975639+920353627+920082527+919307223+918223069+917069117+915843631
733+914437907+912982374+911612830+910206610+908724810+907490651+905810109
719+903959242+902249542+900629053+899049617+897518338+896078664+894778175
706+893586226+892371313+891064464+889714662+888413182+887233458+886146083
692+885030210+883869897+882742543+881646494+880578944+879626954+878756492
679+877767331+876649145+875601502+874605650+873270468+871555730+870547653
665+870699310+870763740+870249624+869566669+869028681+868601545+868267750
652+868186717+868293026+868208607+867777506+867298166+867074809+867090173
638+867143865+867081005+866922739+866827581+866908118+867100168+867176823
625+867247035+867300231+867372590+867672601+868265768+868874463+869339100
611+869722540+870134724+870632981+871160396+871751497+872600565+873610376
598+874294735+874633487+875267872+876322784+877237603+877831761+878456316
584+879245497+879950506+880570849+881387041+882298308+882966808+883399147
571+883946552+884869053+885839959+886296171+886341602+886637731+887504971
557+888599946+889582251+890409512+891055874+891666304+892579223+893756634
544+894822202+895625013+896246512+896931862+897732938+898235159+898388138
530+898662460+899139570+899461471+899465849+899441564+899569680+899586366
517+899390268+899364992+899517971+899383495+898875409+898189563+897337604
503+896242712+894946188+893595560+892092531+889962469+886979291+883552870
490+880064002+876575877+873226276+870442087+868831345+868339449+868038281
476+867163937+865449364+862707302+859032496+855054871+852002307+851380561
463+853530613+857484614+862515913+867915039+872305840+875135212+876981702
449+878364214+879306375+879746231+880185344+880930168+881297748+881279080
436+881556788+881669540+881202921+880938759+881016322+880577622+879611920
422+878891712+878740385+879358744+880491138+881077118+880435133+878921861
409+877751223+877476736+877562312+877967559+878711391+879183132
##END=
