##TITLE=17
##JCAMP-DX=4.24
##DATA TYPE=INFRARED SPECTRUM
##DATE=16/11/2015
##SAMPLING PROCEDURE=Instrument type and / or accessory
##ORIGIN=Default
##XUNITS=1/CM
##YUNITS=TRANSMITTANCE
##RESOLUTION=4
##FIRSTX=3996.3359
##LASTX=399.24785
##DELTAX=-1.9287336
##MAXY=0.59900451
##MINY=0.020813994
##XFACTOR=1
##YFACTOR=5.5786642e-010
##NPOINTS=1866
##FIRSTY=0.14981344
##XYDATA=(X++(Y..Y))
3996+268547161+268638192+268672703+268771613+268901856+268941282+269032313
3983+269200111+269305619+269326855+269272017+269297232+269626098+270127089
3969+270540361+270802957+270873661+270810864+270779532+270788587+270922302
3956+271292783+271667752+271825106+271898161+272049425+272159207+272201918
3942+272305183+272341590+272323026+272382565+272457088+272711404+273140702
3929+273202004+272904471+272915529+273244261+273325302+273182986+273207453
3915+273342103+273388340+273492459+273601841+273440159+273323967+273614208
3902+273956322+274165923+274329795+274169663+273835375+274029884+274322664
3888+273732137+273104215+273178418+273120349+273100075+273407145+273461688
3875+273361255+273135467+272942373+273061104+272766054+272215755+272255367
3861+272610757+272596920+271753361+270749375+271165639+272313036+272381656
3848+271840358+271693261+272023649+272234586+271959970+271731458+271732526
3834+271561042+271444555+271600200+271796419+271875804+271453209+270851651
3821+270882422+270686177+270072332+270125941+270304637+269901328+269547060
3807+269917034+270180645+269654278+269523715+269802631+269575240+269295790
3794+269125133+268852895+268688703+268615675+268554346+268495796+268249574
3780+267963900+267873750+267719414+267309508+266806807+266561894+266599850
3767+266622020+266556204+266164648+265567524+265488860+265795395+265706421
3753+265347613+265536059+265786394+264754976+263540855+263747277+263956424
3740+263138988+262421504+262344924+262348690+262114194+261586439+260879426
3726+260357253+259930251+259290122+258644384+258157657+257620525+256878227
3713+256338078+256204576+255732326+254534392+253005882+251686386+250599143
3699+249207794+247459881+245751446+244128620+242431244+240933639+239850215
3686+238793342+237802818+237271724+236770252+235780530+235134605+235005644
3672+234203379+233164616+232498524+231596841+230501905+229578800+228659995
3659+227732243+227258577+226867822+225634068+224170734+223487106+222943164
3645+221672041+220093102+218888516+217972730+216956377+215844372+214561123
3632+212811207+211235486+210505822+209605808+207903264+206034937+204568384
3618+203375084+201897152+200200564+198626499+197023559+195388900+193838408
3605+192169879+190383903+188716189+187100322+185365176+183624581+181920047
3591+180033236+178057478+176302540+174570052+172629272+170737052+169032491
3578+167338146+165595268+163912529+162168022+160245432+158483856+156979573
3564+155222097+153139282+151185907+149463543+147771095+146084376+144445951
3551+142698051+140675429+138507552+136475434+134718813+133117222+131470757
3537+129790289+128184611+126617398+125029296+123432941+121741548+119935164
3524+118244626+116769659+115356648+113879704+112319823+110755187+109336479
3510+108090298+106827129+105419040+103994470+102652583+101220901+99628486
3497+98137138+96887431+95686452+94400812+93130111+91946587+90760980+89486579
3481+88237446+87157741+86143746+84979962+83620205+82272182+81096445+80073200
3466+79219250+78423891+77397321+76134833+74994875+74180437+73506812+72698705
3451+71679040+70619295+69755308+69094552+68403712+67485008+66320723+65159570
3435+64333152+63784335+63218903+62610340+62162290+61852676+61389535+60723857
3420+60096750+59589108+59053379+58443694+57858556+57355655+56976600+56639607
3404+56135404+55561675+55279100+55262810+55109398+54650193+54198864+54119489
3389+54255054+54226023+54046368+53914643+53820867+53765612+53858566+54001707
3373+53937965+53642585+53425758+53547484+53901254+54241194+54504191+54771284
3358+55049880+55331794+55588894+55705991+55833653+56286061+56992433+57543280
3342+57726096+57850843+58319394+59056117+59767577+60462056+61229215+61888877
3327+62344659+62878178+63748903+64798871+65725041+66517676+67313470+68095013
3312+68808958+69489948+70185622+71046944+72249373+73593149+74676032+75498310
3296+76404213+77546174+78793090+80024159+81244050+82520100+83866047+85256006
3281+86716877+88160058+89438779+90608460+91813546+93220728+94961990+96876339
3265+98680880+100372547+102098090+103854337+105593362+107371486+109257361
3252+111249153+113276089+115351012+117624036+120031684+122339821+124563136
3238+126807099+129083957+131455398+133959660+136546592+139202639+141961536
3225+144790336+147582569+150332772+153177372+156152802+159141614+162065839
3211+165007560+168135630+171413174+174614446+177678863+180764249+184008405
3198+187341428+190670538+194068723+197524938+200894074+204174236+207488255
3184+210863722+214248191+217657314+221093682+224444041+227698801+231006929
3171+234387792+237745897+241080870+244405667+247693789+250968048+254244310
3157+257462984+260526520+263472101+266492445+269602859+272627905+275540070
3144+278420369+281238404+283963379+286664314+289375131+292082690+294708781
3130+297143033+299458822+301811605+304189097+306464285+308593391+310657776
3117+312725820+314809491+316841422+318711004+320503498+322354249+324118055
3103+325634625+327006688+328416413+329925798+331388091+332607901+333648080
3090+334699798+335721093+336540533+337209669+337919300+338710827+339475883
3076+340084706+340519321+340872894+341186347+341455701+341661910+341715626
3063+341578224+341335501+341048519+340640428+340025835+339253514+338434101
3049+337605072+336651837+335445783+333983971+332285633+330413487+328480760
3036+326449871+324153768+321546722+318714289+315657137+312301062+308661023
3022+304766267+300532630+295855937+290732931+285213774+279295314+272955649
3009+266171112+258772757+250541153+241455358+231589309+220877296+209252569
2995+196501480+182356290+166735253+150131571+133346870+116866059+101097356
2982+86948341+75648339+68232168+65238454+66774048+72752180+82809026+96157781
2966+111763773+128640354+146011148+163004222+178315466+190467482+198385218
2953+201900878+201631244+198298875+192536367+185231621+177708713+171399231
2939+167187229+165092915+164526134+164801044+165641678+167322681+170303733
2926+174720608+180145930+185793700+190924226+194979781+197525205+198303683
2912+197440130+195415985+192603626+189125335+185207888+181463663+178767550
2899+177426284+176844973+176350673+175674284+174743299+173411076+171605199
2885+169728245+168526518+168913614+171918225+178098720+187103286+198227169
2872+211049751+225190025+240013179+254847712+269214588+282835534+295552153
2858+307350261+318386332+328834520+338718146+348002456+356644047+364549671
2845+371735673+378280586+384256848+389862255+395293426+400638908+405997319
2831+411464202+416941877+422180356+427082409+431684578+435952405+439877718
2818+443555313+447026753+450323529+453659998+457262883+461178767+465391196
2804+469839162+474317846+478523437+482256458+485508093+488338976+490791792
2791+492836892+494494362+495922064+497137842+498037735+498713309+499291869
2777+499666677+499746383+499659946+499521476+499320823+499021554+498604809
2764+498111083+497612923+497134476+496664737+496194196+495740323+495399170
2750+495283618+495418936+495746894+496174697+496671414+497301526+498113166
2737+499059483+500070868+501118686+502147540+503122651+504172446+505462907
2723+507046976+508954087+511177936+513604950+516024377+518125463+519735441
2710+521015004+522171109+523292383+524538824+526105530+527980054+529919965
2696+531721728+533407512+535080207+536771226+538387401+539754523+540876918
2683+541930346+542958452+543924321+544938163+546108371+547324415+548430410
2669+549420106+550299645+551061656+551793163+552484069+553052212+553560950
2656+553996125+554281719+554543593+554897888+555325477+555804726+556229163
2642+556448353+556509255+556548680+556578383+556600125+556636292+556657821
2629+556720966+556902227+557158011+557467645+557838393+558217529+558560551
2615+558854586+559072601+559193762+559303277+559442869+559461887+559348579
2602+559288586+559295905+559275551+559243124+559232653+559243177+559276886
2588+559304185+559280573+559196273+559090604+559043165+559082591+559117956
2575+559039479+558858432+558649339+558440993+558233502+557993263+557674762
2561+557261810+556735657+556133538+555539272+554946021+554349725+553857815
2548+553562712+553487334+553605183+553866309+554282734+554889500+555648840
2534+556453803+557218965+557945077+558684597+559424011+560043011+560532303
2521+561017695+561507521+561942429+562375788+562873520+563374298+563841794
2507+564332795+564889772+565543016+566283712+567094444+567976975+568906517
2494+569880079+570876772+571834148+572792057+573831755+574866752+575805109
2480+576719106+577659439+578605008+579531452+580427819+581341014+582331831
2467+583365119+584380083+585384256+586380629+587387580+588382671+589228180
2453+589880997+590416285+590855948+591225254+591543809+591773951+591949335
2440+592093307+592140319+592075571+591932347+591742699+591493218+591179685
2426+590855627+590504217+590095806+589715816+589467671+589377922+589474188
2413+589830139+590458007+591246516+592125307+593099350+594053039+594904638
2399+595723597+596466536+597187573+597907487+598544865+598976675+599135445
2386+599066210+598899640+598736436+598516711+598169362+597677132+596947975
2372+595876384+594581222+593221045+591867653+590989770+590535897+590302282
2359+591285460+593894696+596554896+596901017+594531059+592636288+594830649
2345+599639214+601901207+600646271+599261414+599122944+599832121+600585798
2332+601368483+602536287+603560653+603977986+604449648+605649613+606992587
2318+607653684+607865396+608307943+609074388+609815191+610379540+610874174
2305+611373403+611916651+612456907+612870393+613220147+613597626+613907794
2291+614148086+614418241+614677338+614764148+614660884+614529092+614474655
2278+614420752+614223304+613810299+613234464+612642922+612103040+611541522
2264+610913333+610332476+609961193+609875130+610145125+610838809+611903722
2251+613188361+614388271+615381119+616235015+616945741+617466819+617839865
2237+618183101+618569075+618957346+619290859+619554229+619778121+620030646
2224+620296955+620490182+620627850+620815201+621054265+621239372+621360746
2210+621515830+621706814+621866118+622037282+622286763+622568564+622837543
2197+623101555+623382715+623724882+624069561+624274274+624414934+624698284
2183+625107069+625500094+625850703+626178179+626477877+626800652+627183260
2170+627540813+627822240+628077491+628341662+628642001+628958045+629183486
2156+629285415+629340172+629365387+629353367+629358763+629347277+629256834
2143+629161102+629127927+629200634+629461066+629933957+630569679+631344137
2129+632286127+633322406+634345437+635398384+636466983+637436325+638311217
2116+639149354+639934069+640612635+641173886+641637215+642004491+642292649
2102+642558156+642878261+643286672+643627290+643945632+644279626+644703155
2089+645257729+645858619+646421312+646946718+647440604+647936680+648471968
2075+649050528+649672093+650286606+650825259+651286558+651731403+652216047
2062+652757906+653334489+653896969+654427556+654943131+655481945+656060986
2048+656618605+657101806+657502364+657824499+658087014+658323941+658607451
2035+658995882+659460226+659911535+660294517+660634761+661027573+661548437
2021+662100126+662540216+662897182+663253667+663613143+663950129+664255222
2008+664569824+664897781+665136470+665265431+665378312+665514324+665588741
1994+665564113+665583345+665625869+665582277+665566731+665618176+665639492
1981+665584948+665488468+665422331+665422064+665504655+665615719+665725982
1967+665939510+666231781+666456474+666630736+666766268+666740999+666547024
1954+666276495+665894795+665299034+664477617+663356824+661927146+660339872
1940+658453275+656147476+653606834+650932424+648278100+646075566+644878379
1927+644980469+646554440+649597943+653370175+657427680+661699675+665465176
1913+668499277+671207610+673657755+675741853+677443556+678894444+680221232
1900+681411473+682450263+683405288+684186798+684665779+685164847+685776956
1886+686185688+686531435+686988566+687456329+687898236+688392709+688961974
1873+689305958+689414031+689731411+690116102+690209644+690296241+690573394
1859+690888317+691171774+691434236+691708985+692045490+692403204+692446636
1846+692253836+692418482+692608985+692493967+692570521+692917123+693130490
1832+693158697+693359991+693477306+693218262+693133589+693219278+693127071
1819+693030538+693034918+692990151+692860442+692810920+692841157+692829404
1805+692699695+692431090+692242991+692284019+692266390+691875288+691382844
1792+691167126+690828324+690128656+689574991+689275614+688917794+688566651
1778+688282874+687835038+687288798+686858110+686210475+685389647+684885878
1765+684463203+684070979+683852697+683621006+683712625+684072689+684242196
1751+684528805+684975253+685105015+684974077+684809324+684795648+685000308
1738+684693078+683760063+683166599+682593541+681537068+680576221+679830290
1724+679219890+678554680+677471015+676211592+674967074+673460254+671844186
1711+670402808+669068007+667870500+666566844+664654337+662592516+660434429
1697+657560648+654792588+652405909+650045833+647898537+645359123+642125705
1684+638897362+635791142+632771572+630028942+627676719+625496248+623137615
1670+621116929+619856330+618780626+617918983+617800065+618216276+618701454
1657+618881647+619141491+620294123+621046786+620781759+621242791+622605639
1643+623859933+625313598+627152276+629302937+632123029+634923462+637064508
1630+639423195+642311133+645118992+647978937+650925052+653179192+655239196
1616+658033218+660692778+662707748+664738530+666850621+668624978+669989162
1603+671159477+672248484+673192824+673970274+674629341+675124669+675428320
1589+675622241+675735977+675770487+675848750+675962326+675732451+675241289
1576+674915682+674240215+673069526+672168030+671457198+670690432+670055298
1562+669093863+667709807+666134126+663863532+661439991+659613868+658150586
1549+656751625+655326701+653795521+651760144+649098501+646399677+643632739
1535+640788821+638230122+635654275+632824941+630082417+627271033+623911645
1522+620099400+616018656+611751951+607586693+603588593+599599682+595118273
1508+589371031+582452565+575394615+568622953+561437591+552694338+542025544
1495+530160151+517381349+503264487+488976140+477262412+469202212+463554442
1481+458765376+454197637+449536357+443713549+435333459+424691909+413877540
1468+403878176+393849884+383011902+371888941+362054010+356448897+357913514
1454+364904179+373542378+381929520+390070013+398073158+405130547+410359169
1441+413336803+414295887+414005806+412953714+411395342+409836862+408616865
1427+407752337+407402771+407632485+408365568+409854412+412073907+414564066
1414+417349113+420585363+424081243+427648147+431351545+435047491+438104750
1400+439979647+439735028+436210434+430041799+422783356+413914615+401806045
1387+387478380+375209624+369242176+371945542+383318304+401350970+424324847
1373+451152959+479933350+508308268+532666709+549167206+557330564+559381006
1360+558132214+555882241+553576816+550988468+547714289+543752088+539540835
1346+535843714+533093498+530957580+528973328+527255064+526259118+526302711
1333+527427510+529534366+532604687+536660482+541624398+547278526+553455227
1319+560141681+567239431+574627743+582353467+590398335+598614954+606894772
1306+615035318+622769110+629971673+636537554+642289283+647076266+650847483
1292+653534768+654886344+654491075+651903956+646857396+639463796+630472878
1279+621554508+615280792+614355043+620190111+632031785+647441619+663726718
1265+678971585+692109703+702794097+711239362+717822925+722780698+726180472
1252+728187428+729369176+730166712+730013391+728105372+725384698+723711576
1238+723151553+723112715+724448425+728012952+733419095+739710013+746017224
1225+751722103+756510314+760515572+763994144+766915043+769189110+770933123
1211+772301313+773288712+773861502+774112158+774146027+773997621+773761496
1198+773385673+772800381+772044300+771221495+770282711+769117257+767713488
1184+766052973+764071072+761762388+759132478+756076421+752467286+748229535
1171+743266420+737531091+731062973+723903788+716202156+708402495+701113655
1157+694702378+689140083+684156294+679355689+674327186+668841017+662826558
1144+656179583+648903457+641191729+633141412+624747005+616128706+607407676
1130+598598287+589766994+580838474+571422531+561113961+549456914+535728750
1117+519154637+499110448+475030656+446392607+412963757+375016690+333545563
1103+290467156+248349730+209832491+177285050+152611032+136949313+130652292
1090+133552451+144960004+163415037+186610429+211594681+235015527+253246335
1076+263041974+263419240+257491298+250714400+245554373+238703753+223672293
1063+196049316+157873483+116989290+81825247+56970129+42670494+37309996+39864238
1047+51078537+73629329+111143531+166040554+237145781+319256068+404733809
1034+486284528+558903146+619390598+666439967+698388547+708814860+692657652
1020+659287833+633591546+638693611+676832302+731747468+787047860+835913790
1007+877617489+912416132+940212544+960954371+975044095+983398222+987166501
993+987270033+984123586+977819259+968252133+955072399+937415583+913558187
980+880540900+834038358+770669165+694256091+622309574+581929724+591789977
966+647735333+727987577+809619176+878996951+931839933+969080814+993685584
953+1009077735+1018138956+1022953771+1025067572+1025495695+1024677805
941+1022744250+1019871430+1016332225+1012306025+1007785885+1002705349+996957893
928+990508580+983497053+975795742+967044689+957156390+946192065+934086006
914+920664912+905853350+889845564+873147032+856491024+840182793+823153739
901+802952221+776605041+741299316+694646445+635351319+564871876+488357888
887+413581903+349253065+305041230+293532188+327585355+409397520+522825902
874+641110314+742040493+815838936+863429523+890287738+901957607+903819576
860+902263928+903485795+909693642+918025759+924442165+927267760+927096810
847+925002882+921544451+916998989+911753486+906124734+900234214+894059275
833+887498470+880662167+873754814+866684897+859163191+851134189+842598694
820+833231099+822698584+810738153+796976280+781133247+763583169+746107988
806+732312673+726403615+729939722+739915634+750894116+758981828+763307565
793+764586166+763889918+762018493+759204597+755497433+751190714+746713419
779+742130936+737308375+732280139+727093881+721893519+717105415+712965159
766+709098477+704807678+699593961+693632657+687684708+682765132+679704802
752+678291523+677327097+675832617+673726082+671231810+668328219+665018996
739+661497740+658038881+654743974+651446557+648130068+644962412+641879697
725+638661130+635254198+632238635+629072047+625692894+622678827+620010773
712+617284971+614437954+611609314+608939070+606494481+604234732+602033533
698+599851032+597765866+595694375+593465664+591278996+589489253+588039274
685+586587799+585056352+583621064+582348446+580922400+578579633+576261974
671+578160751+583448030+582492258+575841703+573438570+575740736+577713769
658+578083717+578082541+578501583+579419426+580579538+581720524+582797190
644+583993842+585463427+587181798+589046278+590988220+593032893+595172282
631+597362904+599657003+602013981+604513488+607066096+609731852+612731389
617+615881522+618962100+622301187+625982014+629529660+632753088+636011775
604+639590673+643424767+647387716+651456119+655746171+660095467+664140471
590+668133229+672543266+677231899+681850068+686334041+690921332+695955604
577+701280012+706376788+711080539+715547470+719999390+724581980+729345403
563+734199323+738984329+743758704+748563315+753158299+757467689+761850694
550+766709315+772038477+777431799+782598505+787482127+792067495+796547408
536+801209917+806091403+810889871+815371974+819682379+824055982+828587234
523+833105557+837578258+842313902+847116697+851340291+855019516+858614173
509+862251141+865893077+869524969+873080682+876243423+878812699+881076455
496+883097889+884631473+885662250+886266399+886485643+886690570+887488427
482+889192534+891695620+894334986+896151226+896714668+896093050+894402939
469+892383001+891619120+893132885+896674601+901276797+905508778+908040552
455+908283088+906141615+901779177+895938927+889098885+880892416+871075275
442+860273887+849815201+840604666+833120836+829327983+832217577+842974518
428+860411021+882580123+907517551+932274146+954916086+976022999+995034596
415+1010920045+1024260366+1035231742+1044006087+1052083595+1060599912
403+1068017232+1072242803+1073741823
##END=
