##TITLE=17
##JCAMP-DX=4.24
##DATA TYPE=INFRARED SPECTRUM
##DATE=16/11/2015
##SAMPLING PROCEDURE=Instrument type and / or accessory
##ORIGIN=Default
##XUNITS=1/CM
##YUNITS=TRANSMITTANCE
##RESOLUTION=4
##FIRSTX=3996.3359
##LASTX=399.24785
##DELTAX=-1.9287336
##MAXY=0.53125435
##MINY=0.0065343017
##XFACTOR=1
##YFACTOR=4.9476917e-010
##NPOINTS=1866
##FIRSTY=0.15463689
##XYDATA=(X++(Y..Y))
3996+312543503+312630121+312841063+313097723+313312882+313386640+313383507
3983+313545840+313899418+314218753+314447103+314798724+315308009+315711432
3969+315904846+316150754+316637361+317142791+317452097+317632229+317818867
3956+318031194+318222319+318483618+318925802+319359492+319431292+319328230
3942+319479811+319696024+319778877+319816132+319896245+320298884+320874307
3929+321010107+320868555+321108681+321525837+321571194+321523247+321769637
3915+321961304+321764487+321540293+321591372+321771414+322134359+322628435
3902+322786642+322625152+322349066+321710426+321053807+321365703+322126980
3888+321908689+321388381+321438647+321411120+321555804+321846858+321509935
3875+320975321+320516874+320299667+320599124+320536360+320059481+319939975
3861+320068847+319977772+319153429+318190726+318781479+320100471+320062523
3848+319190654+318687061+318804158+319012419+318896558+318915652+319075003
3834+318825270+318476540+318343873+318320562+318403235+318172716+317908526
3821+318282614+318123685+317375478+317337440+317386230+316806320+316212073
3807+316285379+316231710+315416763+315225457+315635175+315520879+315300661
3794+315127154+314802579+314615219+314597540+314549894+314267905+313671520
3780+313212380+313105915+312896479+312461162+312047319+311847219+311720455
3767+311468854+311280680+310961255+310431671+310227746+310174860+309667984
3753+309085965+309401264+309992198+309121142+307883889+308103234+308108535
3740+306692957+305347824+304950726+304774238+304261971+303439013+302524558
3726+301930854+301555200+300962098+300275662+299684969+298971307+297911295
3713+296855831+295950140+294590882+292697401+290592797+288541652+286566402
3699+284265342+281577183+278785812+275882585+272802298+270015716+267891385
3686+266097050+264668883+263856015+262996886+261553148+260534788+260008336
3672+258589023+256987711+256049283+254904521+253324562+251744182+250190485
3659+248709146+247841975+247381812+246238570+244530161+243024562+241421006
3645+239253893+236904857+234826952+232892270+230912669+229127234+227517685
3632+225630242+223684688+221916029+219634726+216886679+214318523+212177417
3618+210266001+208087323+205670236+203309649+200876570+198333065+195676801
3605+192767174+189781726+187025096+184436008+181868289+179411778+176989270
3591+174312526+171507873+168869815+166170483+163237153+160363908+157721799
3578+155201996+152634970+149989683+147353447+144746952+142203402+139735853
3564+137131993+134279785+131459094+128942710+126700440+124506485+122150996
3551+119568451+116844746+114167889+111660149+109378696+107311407+105279868
3537+103175317+101073574+99046635+97068773+95075633+93028885+90991481+89074041
3522+87219336+85289519+83330916+81466160+79685100+78023289+76628967+75427787
3506+74052717+72347093+70660300+69219552+67840559+66479463+65236156+64022877
3491+62683552+61260498+59965596+58879943+57753070+56429471+55212927+54243128
3476+53268179+52156697+50923818+49696576+48768576+48155250+47456778+46460178
3460+45408441+44524605+43682786+42797195+42027729+41402187+40722848+39908202
3445+39166866+38539114+37693692+36562091+35560725+34949056+34546443+34183618
3429+33896185+33692196+33337391+32626786+31882743+31462632+31139969+30687986
3414+30317258+30026203+29577006+29140846+28795203+28197465+27442795+27077412
3398+27155444+27216568+26926727+26400015+26131686+26356592+26671989+26640294
3383+26297430+25953830+25826266+25912512+26010844+25854009+25464782+25215893
3368+25380573+25855978+26290546+26426756+26375411+26360927+26420544+26443143
3352+26319007+26265357+26602975+27091089+27279539+27237029+27272887+27532260
3337+28061383+28743518+29334675+29695800+29828326+29865702+30072576+30568871
3321+31167212+31729257+32280903+32790945+33225354+33529845+33620446+33704195
3306+34206658+35193666+36293519+37170030+37732995+38119673+38582592+39242762
3290+40090981+41051779+41983137+42836976+43668013+44522312+45416761+46312133
3275+47141841+47903182+48740502+49838861+51149706+52409314+53528220+54690458
3260+55963393+57224815+58478045+59831517+61238309+62564419+63945746+65621765
3244+67448234+69156697+70769242+72389694+73991563+75606120+77433500+79538262
3229+81721706+83860267+86035564+88297675+90620818+93017681+95505115+98097079
3213+100742109+103334645+105943663+108655163+111355459+114027271+116819154
3200+119740399+122733782+125796632+128835869+131813667+134870432+138100282
3186+141440874+144790893+148108822+151427081+154871594+158499551+162149298
3173+165694040+169204781+172742175+176254496+179725165+183269727+186950179
3159+190614984+194161369+197634327+201096457+204696405+208465221+212163653
3146+215659365+219077117+222519461+225986591+229474819+232903037+236205485
3132+239479924+242819011+246211480+249606765+252922133+256056331+258999313
3119+261903082+264940452+268034232+270927219+273653747+276510021+279521400
3105+282378939+284922052+287325812+289733518+292130140+294485260+296699612
3092+298677030+300521450+302390385+304282932+306152289+307905333+309437887
3078+310886986+312384543+313825450+315142062+316293963+317233625+318101278
3065+318981278+319685091+320068004+320289457+320549310+320685170+320450465
3051+319958317+319412649+318783738+317901148+316681965+315240426+313697060
3038+311948895+309782882+307169023+304228781+301008328+297520070+293725067
3024+289477038+284713248+279476254+273810237+267729203+261154394+254011058
3011+246303262+237983029+228903205+218909815+208000691+196282492+183697876
2997+170154563+155596218+139951012+123176440+105891492+89191906+73700034
2984+59718927+47849871+38772008+32866257+30229902+30765327+34270029+40491463
2968+49032890+59488970+71562919+84908729+98905633+112407113+123921613+132207632
2953+136703242+137474759+134893005+129685978+123030740+116170704+110207398
2939+106036432+103851136+103043779+103005869+103629103+105033026+107436507
2926+111145751+115998252+121233078+126084290+129960031+132427007+133327608
2912+132802541+131137456+128540929+125270338+121652093+118125617+115521697
2899+114269204+113672616+112955799+112015986+110911076+109510964+107659700
2885+105561970+103946111+103754632+105794672+110528186+117880537+127437081
2872+138884073+151855170+165816377+180391106+195215327+209719235+223478610
2858+236497127+248973592+261055608+272807900+284193452+295093993+305328006
2845+314802940+323554545+331579567+339049947+346362091+353729771+361186508
2831+368729531+376291769+383812355+391126336+398028732+404522706+410633738
2818+416288159+421504041+426540664+431771575+437383079+443429117+449963750
2804+456901142+463935964+470656723+476820459+482479338+487665555+492216234
2791+496101469+499488140+502468648+505025917+507133532+508866126+510379405
2777+511687826+512634175+513197490+513548358+513710510+513632145+513438972
2764+513227246+512926855+512493767+511997372+511515735+511129871+510941336
2750+510995125+511270097+511740290+512391790+513236282+514336229+515686453
2737+517219067+518922206+520734611+522539727+524305149+526130444+528178247
2723+530614263+533643712+537354175+541502004+545624353+549275968+552186935
2710+554449776+556434512+558443102+560690763+563345191+566411443+569708817
2696+572961918+576030459+578971664+581842635+584564526+587049151+589312775
2683+591396778+593352422+595244638+597171248+599232302+601410151+603568967
2669+605600445+607486518+609145444+610497776+611612963+612611234+613611975
2656+614607837+615513949+616403436+617340931+618247284+619116051+619968373
2642+620732210+621381481+621870166+622113214+622210071+622325903+622487332
2629+622686709+623023301+623620770+624406654+625204705+625985649+626769665
2615+627487965+628050498+628410280+628577191+628650256+628756630+628877582
2602+628918542+628872643+628777291+628709948+628741451+628852645+629000160
2588+629096294+629049251+628950888+628892942+628815299+628750005+628704527
2575+628567192+628367815+628164522+627876479+627452607+626927360+626275499
2561+625499614+624707527+623835086+622755377+621589954+620521569+619611602
2548+618864390+618352574+618220961+618509366+619130627+620011260+621118195
2534+622357526+623579811+624730597+625857650+626989522+628083808+629023952
2521+629744120+630352672+630940564+631494483+632071171+632690686+633307791
2507+634036331+635010810+636171173+637387615+638644233+640041620+641602003
2494+643173950+644665003+646134852+647601509+649052506+650559520+652171584
2480+653795514+655343790+656871344+658465518+660134805+661787709+663386882
2467+665001175+666660583+668390768+670208714+671992990+673606198+675078698
2453+676412357+677474537+678257529+678893850+679438915+679836946+680085415
2440+680268468+680407249+680423693+680242025+679910433+679494150+678929870
2426+678197174+677381836+676508973+675628762+674892572+674426897+674347929
2413+674756020+675658578+676884477+678198138+679529869+680871900+682216642
2399+683594815+684865528+686021795+687118791+688196693+689156535+689813937
2386+690094631+690023856+689620523+688820244+687642834+686180213+684278901
2372+681670192+678646646+675693033+672805557+670294127+668562738+667943043
2359+669303265+672372348+675916203+679039678+680563197+681039474+682976806
2345+685910060+686613903+685026716+683727753+683664566+684706026+686198223
2332+687786313+689441626+690961531+692306694+693770460+695674241+697671326
2318+699177196+700183358+701142537+702193092+703215578+704263122+705384212
2305+706383387+707127527+707679880+708143568+708573162+708933005+709160030
2291+709335494+709536377+709676845+709613839+709347842+708989867+708575572
2278+708064841+707383947+706516927+705554254+704514180+703325928+701995582
2264+700623855+699327783+698270241+697695962+697868716+698860180+700475617
2251+702433249+704326007+705822480+707005552+707967742+708755011+709360130
2237+709850803+710303648+710697222+711003878+711250539+711487985+711684712
2224+711769402+711821505+711953901+712140147+712298745+712373195+712377592
2210+712400241+712502519+712656239+712790261+712881035+713007227+713258948
2197+713583433+713886534+714165903+714380098+714475932+714532191+714673502
2183+714995096+715489021+716034447+716544275+716980676+717341844+717670786
2170+718003463+718340235+718618701+718821993+719054018+719333628+719536077
2156+719602636+719568483+719440063+719205870+718890420+718520639+718133750
2143+717795050+717542245+717428040+717563929+718005872+718740737+719817494
2129+721206569+722663588+724108320+725661113+727261612+728773746+730128005
2116+731321016+732430902+733445798+734247403+734829211+735340665+735844950
2102+736256173+736567407+736896710+737249024+737736745+738322950+738956439
2089+739666487+740476525+741296802+742041605+742736836+743494288+744364741
2075+745242061+746034149+746754617+747394130+748003224+748725801+749468617
2062+750087529+750763063+751619059+752510775+753296900+753982793+754690311
2048+755443668+756129682+756700527+757161444+757476412+757687294+757955278
2035+758376982+758911988+759477291+760044402+760587840+761094114+761656888
2021+762319410+763003196+763640600+764186809+764645558+765076718+765433007
2008+765656780+765847965+766087338+766322856+766472660+766558675+766609634
1994+766596322+766537412+766307014+765888382+765531431+765257905+764930529
1981+764539725+764191327+763956713+763797452+763752938+763822630+763913404
1967+764031825+764144826+764193556+764240599+764260718+764115251+763763720
1954+763203175+762320193+761015327+759374591+757386060+754935648+751968903
1940+748307290+744006645+739295561+734273244+729257612+724840293+721819759
1927+720970749+722832667+727239084+732966149+739272431+745850493+751728446
1913+756732331+761350895+765512216+768983066+771817053+774271621+776478082
1900+778376321+779964472+781417577+782727382+783726075+784648451+785507399
1886+786044995+786537354+787161447+787768433+788305426+788851936+789499701
1873+790035249+790432437+790950698+791292169+791242475+791309034+791663456
1859+792017576+792283694+792539330+792818278+793130896+793495497+793618858
1846+793475680+793439720+793120114+792579145+792572941+792965491+793191071
1832+793275038+793517905+793494052+793006511+792657149+792335375+791885240
1819+791649000+791586114+791453658+791242475+791035749+790738129+790357927
1805+790013625+789664865+789302794+788954878+788512694+787831318+787075070
1792+786364420+785297180+783995566+783106862+782474577+781602437+780647475
1778+779821475+778967767+778065450+777140183+775749482+774055197+772758463
1765+771737663+770940757+770383525+769815209+769677573+769990252+770352624
1751+770956358+771447271+771276747+770857814+770522667+770297269+770225951
1738+769650226+768457216+767357931+765808029+763636806+761722303+760176196
1724+758905663+757730482+756173352+754144825+751530273+748276209+745026481
1711+742267185+739841770+737611336+735231881+732150208+728642254+724532614
1697+719320316+714098621+709418136+705119239+701289570+697085241+691819816
1684+685835429+679625703+673859907+668847468+664394008+660095894+655790190
1670+652029370+649069612+646493430+644519054+643544153+643288216+643543792
1657+644114577+645096645+646710878+647505796+647470740+648606105+650758174
1643+652820975+655360053+658669835+662623466+667332141+671723318+675359874
1630+679574322+684558150+689372778+694137652+698817414+702517818+705951804
1616+710150953+714052602+717226916+720458633+723644211+726270930+728392761
1603+730255944+731896619+733276538+734431300+735399092+736116007+736560660
1589+736795275+736849607+736753532+736611077+736448744+735985599+735240374
1576+734479668+733289790+731737359+730426890+729027576+727540017+726572767
1562+725725444+724441418+722096478+718210490+714302636+711424738+709110156
1549+706946642+704962267+703054450+700407853+696456872+691900049+687451047
1535+683418808+679674613+675648820+671461779+667565672+663508797+658667245
1522+653103115+647041326+640717515+634426472+628347455+622614187+616646906
1508+608835114+598544541+587646921+577638728+567476154+555201506+540112086
1495+523318563+505416299+485543543+464888337+447407836+435097861+426420315
1481+419111485+412336907+405839891+398189951+387286096+373217626+358805818
1468+345651441+332754839+319022117+305089145+292717429+284808931+284478423
1454+290747781+299664248+308820781+317932409+327003138+335050447+341008542
1441+344429969+345624727+345280364+343797413+341619323+339403676+337485108
1427+335945988+335054663+334906426+335407097+336632303+338338062+340213112
1414+342598711+345749654+349389251+353300899+357551880+361966819+365961893
1400+368847893+368994263+364643232+356984016+348595959+338842378+325187601
1387+308469522+293707448+285795125+287353400+298510391+317326146+342146679
1373+372027868+405199444+439152868+469496359+491254133+503104758+506946443
1360+506099602+503717828+501136676+498116172+494124171+489130887+483755894
1346+478976052+475340340+472562823+470072114+467762561+466053459+465499208
1333+466400020+468675931+472139794+476722066+482427597+489146156+496684240
1319+504878673+513570765+522750730+532548221+542905294+553567516+564314971
1306+574936776+585196449+594881542+603752442+611614830+618373054+623872251
1292+627794199+629807426+629549862+626453312+620014814+610206360+597905028
1279+585367214+576079068+573595708+579873560+594211069+613675704+634802698
1265+655003945+672811460+687651869+699591672+709013238+716294240+721517922
1252+724765301+726879603+728659240+729046550+726407422+722267906+719841889
1238+719072570+718631230+719834360+724399736+732135089+741647489+751472207
1225+760675602+768825612+775891515+781972460+787107055+791422276+795030642
1211+797861798+799908817+801419084+802619022+803530254+804070741+804277707
1198+804254878+804029540+803524833+802735877+801738088+800484602+798852540
1184+796821904+794384563+791549552+788324099+784556954+780077352+774777051
1171+768540942+761309152+753015121+743604939+733368517+722981387+713143418
1157+704368773+696859903+690351653+684253301+677927804+670904125+662989995
1144+654138732+644374912+633892370+622959693+611752948+600408627+589057018
1130+577788472+566693402+555714465+544444655+532208437+518219989+501713515
1117+481953187+458105296+429334414+395162309+355744836+311965339+265637188
1103+219561089+176874493+140120392+110823894+89631838+76486632+70793073
1090+71916241+79377759+92375940+109510790+128843970+147824965+163227802
1076+171760152+172051568+166673172+160557894+156129627+150944857+139819444
1063+119091971+90728548+61747101+38714292+23890504+16050316+13206768+14225694
1047+19533980+31457273+53737830+90268550+143071988+210762471+288169220
1034+368107245+443890877+510098410+564284191+603835506+619135145+602081709
1020+563165149+531844137+535857822+579428244+645268314+714583632+778496972
1007+835165210+884361260+925498979+957783386+981142683+996520146+1005264071
993+1008630533+1007417706+1001856046+991673714+976238426+954433067+924043465
980+881039793+819756304+736304060+636551255+543113947+488496795+494138838
966+556329583+652150020+755517335+848354041+922614334+977356324+1015266842
953+1040269224+1056063511+1065536638+1070767549+1073212480+1073741823
941+1072760357+1070499625+1067078529+1062634285+1057363137+1051305805
930+1044341096+1036394440+1027451499+1017348798+1005859853+992851244+978238041
916+961851946+943428891+922972611+900910892+878046244+855480059+833768545
903+811590212+785659552+752152378+707691445+649556249+576889407+492873305
889+405150654+323427480+256414668+211500393+197992483+227387864+305164258
876+421049389+550916643+669780927+762553483+825885316+863635489+881621360
862+886107046+885231954+887729952+897112727+909576090+919482787+924537993
849+925458200+923421541+919360571+914037923+907705679+900442025+892590238
835+884423423+875942724+867154888+858046001+848473728+838276096+827525088
822+816290334+804144287+790477312+774800242+756666555+735806460+712760144
808+689809480+671482680+663016257+666377721+678090016+691718923+702191044
795+707804085+709251226+707995450+705134237+701196447+696514697+691447264
781+686161419+680399298+674054044+667342562+660473204+653756603+647614460
768+642217241+637174805+631730061+625254218+617711194+609944399+603518851
754+599582688+597708783+596436745+594576393+591792581+588359559+584623736
741+580693657+576495170+572166397+568006882+564013195+560010652+555979679
727+551951296+547931045+543925491+540116784+536250553+532335592+528663318
714+525222525+521893528+518703614+515585499+512496056+509544912+506758571
700+504008822+501213295+498424122+495730874+493158637+490773881+488650845
687+486612620+484430253+482246169+480425211+479062549+477804214+476020993
673+474012825+474126578+476268498+475234537+471357916+470021366+471224134
660+472255505+472475121+472410429+472550716+473198240+474226267+475275377
646+476374180+477769097+479356947+480939707+482615529+484556084+486688968
633+488826641+491013766+493357984+495752317+498334252+501135682+504146850
619+507494580+510913989+514039452+517090285+520427293+524106133+527995615
606+531963883+536070813+540471748+544979118+549230671+553502162+558238906
592+563192616+568113799+573212073+578452561+583620104+588652782+593668052
579+599066235+604725053+610048424+615045744+620204855+625812414+631605977
565+637228595+642714419+648205183+653705102+659217429+664668679+669910371
552+675167665+680726253+686471568+692153879+697767702+703548616+709364828
538+714796080+719914050+725225013+730881482+736573490+742201167+747781018
525+753133784+758225251+763269855+768338614+773388880+778424027+783438273
511+788479083+793587536+798460652+802672510+806308704+809595236+812694798
498+815813395+818557030+820427079+821450649+821768087+821803685+822224124
484+823333348+825206831+827927818+831027199+833468757+834398722+833360937
471+830627361+827617127+826086922+827042306+830490387+835626849+840857459
457+844134834+844269037+841608466+836665478+829620777+820587243+809529700
444+796439895+782124432+768518716+757108437+748173147+742801889+744438770
430+756485007+778478600+806149986+835368924+864606956+894606959+924243264
417+948579388+966339740+980781756+994564442+1007562631+1018426760+1028846778
403+1040753753+1051099802+1056746092
##END=
