##TITLE=17
##JCAMP-DX=4.24
##DATA TYPE=INFRARED SPECTRUM
##DATE=16/11/2015
##SAMPLING PROCEDURE=Instrument type and / or accessory
##ORIGIN=Default
##XUNITS=1/CM
##YUNITS=TRANSMITTANCE
##RESOLUTION=4
##FIRSTX=3996.3359
##LASTX=399.24785
##DELTAX=-1.9287336
##MAXY=0.55896592
##MINY=0.010237546
##XFACTOR=1
##YFACTOR=5.2057758e-010
##NPOINTS=1866
##FIRSTY=0.15626085
##XYDATA=(X++(Y..Y))
3996+300168224+300252007+300423982+300660791+300854205+300931920+301039089
3983+301281079+301506810+301645437+301825770+302071252+302365624+302805322
3969+303266173+303522160+303696740+304001989+304384724+304650129+304784090
3956+304907032+304988439+305013399+305182054+305534047+305689677+305629365
3942+305781189+306122361+306415617+306471406+306268059+306333695+306823198
3929+307065675+306830956+306666996+306819935+306989248+307126645+307446550
3915+307781998+307760587+307493808+307232297+306985584+307027175+307530705
3902+308058909+308395788+308541944+308157749+307485965+307507777+307974066
3888+307774985+307542069+307825163+307779221+307690886+307719854+307283133
3875+306879989+306739701+306769614+306931055+306447190+305703617+305644880
3861+305883234+305806492+305120397+304420819+305060486+306129403+305818858
3848+304882100+304587899+305019010+305328782+305038675+304860660+305000204
3834+304898788+304793221+304880926+304870450+304788040+304471656+304255113
3821+304681157+304510843+303692589+303612727+303652086+303104503+302675425
3807+302917129+302910516+302177849+302080555+302353516+301938865+301591481
3794+301532028+301302919+301004826+300751730+300631193+300591234+300277311
3780+299857107+299707001+299618609+299374072+299035675+298818904+298626749
3767+298181212+297735246+297330441+296956236+296979393+297070246+296586667
3753+295902690+296041203+296479212+295495309+294155979+294355090+294525118
3740+293404964+292355855+292213564+292322765+292137309+291547648+290700942
3726+290069805+289629249+289039932+288502454+288024199+287079827+285569638
3713+284408866+284020864+283403896+282033680+280265787+278579845+277013295
3699+275064726+272681267+270153714+267438243+264560157+262134592+260518322
3686+259262260+258256173+257596384+256576844+254853605+253810650+253663722
3672+252737755+251526919+250867730+249883913+248405870+246980209+245673968
3659+244487921+243820832+243295977+241944281+240251813+239146801+238159850
3645+236619276+234732693+232874791+231132445+229478920+227932178+226338392
3632+224419649+222605971+221230202+219406649+216918054+214514616+212676922
3618+211203874+209401503+207198635+204994422+202863444+200840365+198775409
3605+196397891+193888342+191502351+189143051+186714123+184338522+182031648
3591+179563505+176988593+174595288+172186526+169570180+167039092+164672794
3578+162281965+159917957+157732321+155556145+153192452+150857969+148698468
3564+146408997+143862151+141303484+138911510+136685828+134467632+132152529
3551+129798768+127348229+124806707+122438663+120379460+118477570+116584431
3537+114641772+112590298+110446554+108320307+106304584+104313429+102285606
3524+100458053+98893084+97336775+95666054+93889438+92089671+90452155+89045858
3508+87736540+86200246+84244685+82330837+80934530+79788936+78543414+77270571
3493+76077182+74889217+73614541+72211336+70776558+69423660+68104860+66844576
3478+65695712+64542840+63231733+61722890+60282222+59337882+58807002+58111922
3462+57047760+55950649+55072878+54295736+53466247+52585238+51685212+50871860
3447+50168117+49445812+48631780+47675300+46596726+45631730+44996786+44558548
3431+44074973+43546916+43019964+42459476+41915518+41448749+41021524+40550765
3416+39941104+39278817+38765530+38417036+38138769+37767118+37124589+36354993
3400+35927010+35998255+36071247+35706374+35155338+34929103+35080389+35257137
3385+35235912+35097141+34954857+34814541+34704874+34646023+34547959+34363598
3369+34229235+34291865+34472402+34641482+34872516+35236434+35596245+35790676
3354+35797774+35745521+35844046+36133799+36440211+36660564+36811976+36948964
3339+37305147+38040187+38805700+39287916+39649501+39961978+40201993+40585891
3323+41172374+41822943+42524267+43228424+43881559+44568656+45248311+45745984
3308+46129363+46720809+47660952+48724266+49656848+50421360+51082842+51752082
3292+52567444+53560804+54662295+55810343+56967655+58105635+59170663+60091563
3277+60925038+61852744+62954128+64220659+65649075+67135556+68563300+69987952
3261+71519895+73088334+74597914+76207508+77993764+79712995+81247522+82817550
3246+84657941+86714868+88758806+90724923+92722726+94779123+96896505+99201847
3231+101638196+103966911+106231134+108639925+111199559+113808827+116491538
3217+119308390+122185123+125069506+128048235+131166465+134314521+137347307
3204+140290828+143355530+146630506+149944597+153202914+156507444+159875693
3190+163242367+166593698+169954561+173410343+176977358+180572554+184211717
3177+187914840+191572824+195108395+198610491+202183431+205786041+209353743
3163+212916551+216549602+220255817+223940707+227497346+230919294+234336862
3150+237838242+241413071+245015638+248509890+251793840+254990915+258271888
3136+261590158+264850464+268064285+271232392+274356704+277435675+280449498
3123+283365339+286066413+288542184+291079097+293896901+296809135+299514760
3109+301976620+304350633+306689523+308949983+311158518+313279778+315245580
3096+317099460+318871074+320592482+322328630+324009105+325520639+326928896
3082+328347545+329720795+330928825+332007560+333059503+334015926+334771750
3069+335389262+335928543+336311536+336516315+336701113+336939038+337061893
3055+336919488+336501888+335858757+335073450+334137293+332952248+331563540
3042+330062340+328338013+326291634+324010708+321515414+318671391+315448211
3028+311988279+308268381+304072863+299399576+294403436+289050036+283147279
3015+276621887+269618354+262224415+254285384+245583429+236028872+225641777
3001+214400634+202181184+188946846+174565189+158830663+141744269+123974928
2988+106478756+89903220+74745415+61631986+51411295+44769720+41801096+42440147
2972+46820192+54758719+65475147+78220232+92581079+108097474+123931720+138786450
2957+151181553+159859921+164214218+164478206+161359390+155721951+148542937
2943+141015480+134584491+130325455+128271362+127706962+127883689+128560854
2930+130159634+133126985+137404756+142586496+148051129+153099494+157214149
2916+159984580+160986530+160210611+158151423+155260585+151814178+148015635
2903+144332649+141696538+140430529+139776507+139095349+138276108+137182116
2889+135632526+133627753+131486442+129877327+129770959+132223302+137810348
2876+146348900+157260492+169953788+183950863+198913250+214375616+229697166
2862+244465937+258439140+271494390+283853440+295779548+307326356+318438733
2849+328946565+338639406+347467966+355546541+363021344+370095492+376980205
2835+383758350+390529511+397387260+404226804+410922969+417406369+423569979
2822+429316677+434617236+439561910+444252056+448761211+453292063+458094360
2808+463344397+469070399+475052044+480983140+486644451+491932616+496802007
2795+501129656+504819383+507914527+510523459+512815749+514874923+516579785
2781+517880645+518910890+519716549+520239286+520530967+520672257+520642774
2768+520433874+520119522+519743742+519299150+518811850+518297758+517806393
2754+517456605+517276672+517297682+517589078+518045921+518558010+519185397
2741+520004166+521049296+522312600+523711412+525150297+526604869+528108331
2727+529694460+531431668+533522500+536210206+539465760+542947790+546265516
2714+549126571+551454584+553397028+555104295+556749333+558592851+560766980
2700+563223917+565842696+568470748+571002223+573426013+575747271+577884703
2687+579796119+581572656+583292518+584961600+586552996+588085196+589607722
2673+591153720+592753646+594353915+595857778+597234377+598472148+599498729
2660+600262941+600852715+601429724+602109322+602822810+603446763+604039056
2646+604651960+605220266+605704131+606095139+606408117+606636653+606704149
2633+606666823+606730254+606964344+607357699+607915071+608498033+608973998
2619+609440631+610009968+610583255+610977755+611153393+611240354+611310999
2606+611321647+611288099+611263082+611267719+611274016+611227530+611189288
2592+611252491+611331093+611284035+611148127+611068036+611095744+611147898
2579+611117957+611016512+610901442+610725918+610473166+610238504+609970352
2565+609532343+609005599+608467291+607805669+606964172+606026784+605113269
2552+604289576+603573625+603019345+602733388+602758635+603028562+603523819
2538+604260322+605157980+606118324+607127101+608159579+609125535+610027658
2525+610913923+611713513+612356129+612859973+613283842+613740743+614319182
2511+614922067+615458715+616062745+616872755+617862182+618930383+620040032
2498+621192159+622373426+623622247+624944574+626253963+627515836+628766718
2484+629985082+631159937+632345498+633557450+634837013+636237255+637699899
2471+639107985+640414626+641697739+643062544+644472634+645794961+647037942
2457+648249837+649361948+650376565+651306510+652027556+652482281+652786443
2444+653078926+653376905+653563306+653584603+653522889+653419727+653253878
2430+652975650+652538900+651965556+651271360+650479383+649719866+649124653
2417+648782364+648816770+649237032+649978057+651038358+652272752+653456251
2403+654534356+655569697+656614655+657594178+658574503+659588776+660544082
2390+661240569+661502423+661364283+661039340+660706783+660331518+659831280
2376+659083958+657774626+655780887+653656221+651791177+649672064+647433759
2363+645663862+644985524+646598617+650293382+653948074+655312422+653636584
2349+651934470+654274333+659306254+661738517+660626177+659217461+658928184
2336+659609557+660506699+661559558+663063420+664381111+665101527+666080763
2322+667874418+669551630+670359980+670818541+671657404+672745871+673673584
2309+674410373+675050069+675567939+676076364+676645415+677139985+677556640
2295+677957437+678277400+678554769+678812216+678926484+678823494+678615109
2282+678425444+678225876+677904998+677401611+676754015+676017970+675205728
2268+674299826+673286698+672220444+671237886+670499151+670183883+670490735
2255+671400186+672665666+674143194+675685013+677114166+678258622+679056152
2241+679616787+680054624+680445174+680819866+681178814+681485839+681745976
2228+682041951+682346170+682535148+682636535+682758131+682891176+683000006
2214+683111469+683236500+683365252+683524002+683689336+683794673+683898522
2201+684120246+684462306+684783757+684991913+685169441+685374791+685584206
2187+685774615+685952486+686241077+686726888+687255578+687652254+687965861
2174+688299792+688656336+688986661+689226761+689408926+689661106+690009750
2160+690347345+690576854+690661811+690586816+690423371+690279791+690125793
2147+689905157+689690475+689518271+689334675+689235578+689423696+689944716
2133+690694271+691605668+692716405+693998487+695323333+696632207+697921388
2120+699148053+700239783+701234305+702233407+703122649+703771963+704302199
2106+704773813+705130987+705449231+705812187+706213557+706547488+706897620
2093+707281415+707780622+708424840+709103064+709715967+710285247+710889048
2079+711578034+712324441+713047605+713684324+714249424+714808228+715411742
2066+716079260+716719471+717263218+717861924+718604094+719344776+720019851
2052+720720917+721411793+721964356+722428928+722893443+723305003+723602753
2039+723826194+724117876+724563899+725060702+725504264+725950116+726417036
2025+726872219+727421691+728077874+728656084+729101421+729511951+729922079
2012+730304385+730632362+730904179+731149260+731388330+731599291+731735943
1998+731826339+731865268+731809507+731762678+731690488+731510040+731333543
1985+731166205+730972075+730767354+730535498+730315148+730222463+730316865
1971+730431878+730480024+730625321+730838972+730943508+730985300+731015298
1958+730925246+730678619+730268605+729587862+728591852+727356084+725789935
1944+723790815+721448432+718664835+715385064+711741937+707786462+703787134
1931+700351246+698218107+697902381+699680636+703432135+708213078+713448460
1917+718929094+723822301+727956507+731745446+735125803+737928235+740216975
1904+742185811+743910424+745349882+746567273+747753635+748854010+749624404
1890+750295701+751017262+751564501+752056953+752583926+753057486+753511925
1877+754032544+754631364+755032047+755234649+755640656+756068074+756192590
1863+756329872+756616573+756870069+757101983+757364353+757613900+757853714
1850+758134976+758193313+758055687+758182779+758115340+757670576+757624548
1836+758054886+758339354+758324927+758441428+758461923+758086430+757867912
1823+757762345+757497056+757336645+757309853+757196443+756969281+756780189
1809+756615714+756404524+756158069+755890718+755700996+755573275+755249763
1796+754557914+753832861+753398401+752782178+751808380+751035009+750480155
1782+749808000+749163610+748602803+747858285+747026177+746328031+745354462
1769+744110279+743161269+742386410+741807054+741485432+741112286+741071811
1755+741388854+741611379+741972159+742349027+742280385+742036621+741854742
1742+741739730+741720437+741151272+739987523+739147171+738153508+736532744
1728+735021610+733794945+732786340+731799088+730396613+728681732+726718678
1715+724283782+721745667+719551386+717608828+715833378+713909597+711284979
1701+708337937+705063949+700921785+696853473+693204907+689653836+686380076
1688+682741471+678291483+673573056+668851251+664346647+660291731+656688735
1674+653244775+649704753+646684547+644541332+642633810+641062623+640420122
1661+640483840+640797047+641020087+641547518+643074967+644025752+643875531
1647+644707582+646641210+648453642+650513904+653095814+656168975+660111340
1634+664004072+667083816+670435777+674426403+678348789+682333976+686301359
1620+689316355+692058333+695671347+699176849+701958786+704669620+707323721
1607+709550748+711392778+713016405+714406915+715555264+716571484+717484598
1593+718155265+718530644+718726950+718831543+718830684+718759066+718633921
1580+718201694+717585757+717120497+716179045+714659954+713413366+712324727
1566+711163669+710248952+709143253+707586664+705600081+702723226+699726035
1553+697397563+695415503+693461953+691534508+689623666+687220771+684001627
1539+680497957+676832102+673168938+669879092+666573674+662988425+659474450
1526+655871340+651683549+646937299+641783554+636345112+630939015+625721151
1512+620654710+615177510+608178357+599484818+590410748+581747951+572714299
1499+561872622+548659709+533879559+517905605+500170742+482035425+466930333
1485+456299273+448689593+442219331+436167384+430210327+423039285+412850270
1472+399880320+386719475+374679070+362709081+349775799+336533432+324835688
1458+317783065+318402953+325276159+334329047+343413508+352462703+361481271
1445+369402527+375165225+378368111+379383729+379037347+377770236+375866205
1431+373868402+372107722+370698978+369964908+370001347+370634631+371978942
1418+373919181+376051147+378540086+381639409+385164862+388925978+393003651
1404+397276827+401083256+403632964+403537932+399370465+392194356+384218571
1391+374713649+361350773+345152347+331068111+323820099+325976595+337641821
1377+356739200+381459763+410783740+442867900+475187809+503563865+523406277
1364+533797751+536885052+535830762+533459011+530943223+528066196+524400799
1350+519876502+514950663+510534336+507174361+504580771+502248293+500195130
1337+498863070+498613696+499575243+501795514+505283612+509902942+515472999
1323+521856615+528937691+536617587+544772245+553358958+562463599+571993883
1310+581690703+591437215+601076328+610325579+618985857+626914898+633953495
1296+639895554+644590566+647925868+649646416+649322905+646409983+640518819
1283+631710325+620766344+609636421+601503861+599654846+605749014+619013050
1269+636784036+655925153+674023487+689702382+702550622+712844602+720956724
1256+727060223+731239598+733764317+735455841+736911099+737140781+734764793
1242+731090179+728879812+728143652+727782471+728915363+732968619+739782172
1229+748134624+756643594+764436899+771157996+776888291+781883115+786196623
1215+789774658+792621515+794788431+796370323+797518157+798364692+798942788
1202+799199433+799190102+798930651+798409288+797662824+796792761+795799670
1188+794577470+793066451+791195396+788871848+786192100+783207102+779724500
1175+775589207+770729547+765049745+758459118+750907230+742457226+733348006
1161+724065780+715328846+707651870+701030901+695154278+689580729+683825645
1148+677470825+670264718+662205951+653420013+644018138+634131596+623944900
1134+613638210+603321617+593036339+582813347+572601920+562046028+550519257
1121+537350082+521840414+503171082+480524979+453247467+420806476+383095068
1107+340762441+295315520+249278452+205692683+167211854+135744991+112533472
1094+98053534+91989579+93820417+102983659+118409730+138373015+160445588
1080+181581946+198353244+207429919+207480055+201393587+194572706+189583350
1067+183620682+170849657+147081238+114234141+79962177+51986021+33485623
1053+23426491+19665744+21115532+28482159+44347895+72564696+116808760+178208846
1038+253868528+337233639+420513879+497238356+562600137+614714942+651699121
1024+665056472+647536234+609516771+579402191+583612194+625632931+688188501
1011+752911331+811588024+862935240+906903688+942986317+970637491+990120439
997+1002536623+1009102920+1010894228+1008648824+1002588147+992501178+977859398
984+957577031+929578473+890255403+834445088+758283078+666637105+580390760
970+530570649+537933388+598533576+689497032+785497789+869917505+936146601
957+983988545+1016306851+1037078121+1049864360+1057205344+1060908754+1062236692
943+1061886331+1060233221+1057610779+1054127776+1049758908+1044600125
932+1038735582+1032178101+1024906617+1016817966+1007703421+997402457+985768174
918+972590354+957800415+941326566+923071314+903392061+883060803+862864252
905+843216943+823142789+799722513+769289059+728657745+675182370+607588353
891+528226148+443812187+363460612+296113308+250419474+237483529+269716965
878+351221526+468817532+596522491+709748370+795333552+852061847+884937583
864+899920736+903014735+901604588+903356910+911340796+922127285+930636197
851+934819007+935263428+933088268+929207101+924155087+918269132+911876699
837+905007959+897535933+889617253+881510913+873201741+864596651+855644864
824+846277223+836253170+825133379+812594454+798297310+781792433+762881684
810+742091408+721357922+704779080+697298924+700690902+711628928+724192871
797+733835878+739150892+740645767+739425342+736654053+733060160+728847409
783+724053414+718758379+713113040+707336259+701431069+695285034+689086388
770+683394620+678552422+674079763+669093870+662986535+655812087+648435495
756+642337205+638652687+637087683+636246530+634739347+632113469+628861808
743+625427809+621781190+617859892+613801197+609744220+605759032+601817583
729+597934069+594284701+590884365+587419281+583943606+579973303+575909628
716+572501105+569532137+566488517+563346715+560210810+557108625+554122711
702+551351250+548733502+546167965+543695399+541284547+538768072+536241005
689+534001327+532153000+530548265+529002210+527447053+525918115+524269929
675+521857073+519321419+520457861+524885122+523939776+517978082+515954688
662+518094354+519759944+519850282+519554765+519754791+520560050+521566537
648+522499402+523552146+524991661+526754116+528598321+530402167+532217633
635+534157673+536240948+538504385+540945464+543312063+545817260+548675280
621+551669724+554720272+557881652+561008684+564236701+567775007+571501660
608+575324948+579278878+583362934+587461244+591503165+595560314+599775412
594+604361251+609313711+614311454+619144664+623827254+628615753+633773391
581+639077242+644304037+649525107+654652460+659624212+664757577+670217545
567+675640359+680821755+685917794+691089630+696447409+701883504+707178138
554+712386384+717603904+722676815+727775659+733300604+739124615+744924983
540+750587554+756002753+761080988+765881910+770542574+775333420+780489570
527+785740810+790776966+795724674+800683202+805622551+810533562+815306777
513+819998869+824688672+829229972+833528195+837513268+841272152+844730424
500+847508010+849840145+852098658+854008757+855254543+855843860+855978394
486+856065011+856569943+857981578+860712335+864159501+866675976+867277029
473+866194974+864085020+861979819+861182861+862425098+865647735+870415395
459+875713235+879581979+880295010+877610625+872018069+864602376+856250725
446+846548695+834841306+821612878+808606118+797686869+789985677+786534962
432+789030427+799171038+817263304+841976080+870524168+899100250+927031026
419+955127422+978808007+995742249+1010135455+1024276539+1036643719+1046446850
405+1054493480+1061438189+1067840297+1073741823
##END=
