##TITLE=17
##JCAMP-DX=4.24
##DATA TYPE=INFRARED SPECTRUM
##DATE=16/11/2015
##SAMPLING PROCEDURE=Instrument type and / or accessory
##ORIGIN=Default
##XUNITS=1/CM
##YUNITS=TRANSMITTANCE
##RESOLUTION=4
##FIRSTX=3996.3359
##LASTX=399.24785
##DELTAX=-1.9287336
##MAXY=0.59580988
##MINY=0.015940249
##XFACTOR=1
##YFACTOR=5.5489119e-010
##NPOINTS=1866
##FIRSTY=0.15679166
##XYDATA=(X++(Y..Y))
3996+282562889+282835754+282903158+282886186+283028299+283189693+283230484
3983+283305273+283445130+283616809+283930412+284387148+284798850+284956028
3969+284934142+285006594+285182946+285342513+285493246+285658695+285855563
3956+286080360+286263317+286338428+286449551+286675717+286747257+286788774
3942+287072649+287360795+287456208+287343259+287225718+287461391+287909453
3929+288079333+288041737+288231220+288461361+288416219+288322712+288420730
3915+288436037+288279182+288265218+288308480+288182426+288212073+288431579
3902+288466248+288571651+288793655+288628636+288275342+288482038+288659733
3888+288232375+288162796+288318711+288151463+288300182+288469417+288172866
3875+287873388+287565102+287495684+287550144+287096630+286670615+286680658
3861+286869578+286793849+286119057+285727710+286622680+287344468+286891007
3848+286165971+285894153+286005168+286028504+285974017+286245056+286395306
3834+286109201+285863217+285635332+285386662+285277634+284979257+285007400
3821+285496764+285276237+285002163+285179320+284899634+284198820+283908016
3807+284256127+284041535+283419162+283611599+283807044+283546209+283365561
3794+283120409+282793620+282582519+282469490+282471423+282375634+281942100
3780+281625274+281569498+281348273+280895887+280543399+280548206+280453222
3767+280104225+279838073+279553204+279397100+279553150+279473527+278796237
3753+278305423+278734687+278990071+277934379+277205797+277348903+276690841
3740+275433849+274753713+274798076+274973622+274890347+274228149+273388687
3726+272858343+272496832+272212526+271918043+271349137+270372825+269276476
3713+268560301+268088365+267304974+266183892+264919408+263665263+262177486
3699+260131250+257937073+255931467+253946619+251950922+250449530+249382774
3686+248113080+246900237+246111610+245238553+244034706+243413621+242959973
3672+241944347+241298477+240872972+239890592+238606719+237410445+236207108
3659+235170938+234810689+234456778+233370203+232310160+231690096+230776866
3645+229226384+227633635+226377717+225272452+224080233+222771748+221245369
3632+219568686+218383785+217371596+215720156+213801773+212125936+210789335
3618+209438998+207648562+205746398+203993114+202195037+200333637+198414327
3605+196471036+194645111+192872479+190934022+188921984+187054489+185115830
3591+182862991+180657468+178771873+176882640+174880323+172968035+171106327
3578+169115008+166971962+164788607+162581366+160448820+158639760+156941728
3564+154903024+152675737+150657576+148763831+146702999+144579396+142653748
3551+140821257+138812267+136669087+134612767+132708092+130863678+128990235
3537+127119370+125291390+123475952+121699949+120014687+118299200+116463487
3524+114663504+112962263+111264433+109575491+107962003+106372073+104769273
3510+103258234+101838352+100358316+98783404+97286094+95950816+94643171+93288000
3495+91948627+90679148+89405527+88029679+86618953+85312892+84069355+82781226
3479+81548940+80430019+79274134+77984347+76568714+75105677+73842663+72906109
3464+72075744+71174409+70240272+69314903+68393878+67502177+66619795+65629070
3449+64542629+63560336+62762437+61990842+61114267+60120843+59111044+58300551
3433+57682944+57119375+56626903+56128801+55498952+54857050+54327814+53865790
3418+53435865+52902023+52178789+51503574+50995932+50525651+50068106+49584438
3402+48990953+48524251+48427254+48400409+48042127+47563005+47501871+47770010
3387+47823051+47572471+47304556+47189090+47191722+47219617+47234997+47092761
3371+46690904+46374149+46575220+47120125+47457166+47552005+47804790+48209795
3356+48476467+48544492+48559061+48781034+49310203+49852255+50206768+50568400
3341+51039584+51548048+52118008+52725994+53352174+54019709+54586906+55056466
3325+55729217+56597289+57318902+57906996+58592899+59356445+60112095+60816723
3310+61420794+62006934+62831466+64053500+65408859+66512674+67361112+68201226
3294+69212904+70400907+71654233+72892461+74112850+75329775+76539288+77758422
3279+78982752+80223437+81559104+82975335+84456666+86088569+87855925+89653277
3263+91412576+93124626+94824490+96547120+98339256+100241581+102205167+104133252
3248+106094012+108268309+110559181+112738353+114874819+117137138+119499288
3234+121925109+124525441+127277863+129994743+132726608+135635321+138580811
3221+141413164+144286779+147309421+150363536+153357619+156366350+159484593
3207+162688327+165967722+169350197+172770550+176156193+179535594+182988091
3194+186498647+189972440+193452207+197040775+200687307+204267241+207733501
3180+211166435+214684188+218272622+221864909+225482640+229147567+232800545
3167+236333430+239710105+243073701+246572455+250104400+253491951+256755998
3153+260019885+263328135+266624811+269898956+273236799+276578026+279751361
3140+282812794+285868346+288813554+291661039+294536346+297382220+300145571
3126+302838269+305410687+307857266+310249304+312635005+314972475+317205859
3113+319370496+321525009+323681831+325795445+327756446+329548937+331301523
3099+333045919+334666087+336134286+337543434+338905211+340147379+341239808
3086+342239026+343256773+344248016+345076629+345839208+346677972+347492970
3072+348145635+348609810+348897338+349020464+349013912+348965225+348925427
3059+348819165+348520331+347988565+347323923+346592871+345702493+344574348
3045+343231691+341699444+339974464+338046870+335925898+333635127+331093054
3032+328190061+324965730+321530863+317872756+313862457+309455977+304698675
3018+299544440+293883117+287710007+281068962+273941615+266305756+258088612
3005+249145168+239377730+228695343+217021995+204478208+190987596+176169446
2991+159795122+142429287+125023990+108154467+92297329+78256561+67087515
2978+59696459+56490215+57611693+63062983+72472118+85065250+99923922+116280247
2963+133450651+150528206+166173680+178795008+187264019+191364306+191443285
2949+188093035+182171079+174721440+167053236+160647555+156411868+154283417
2936+153650934+153939751+154866624+156543789+159492421+163994609+169521151
2922+175229388+180481331+184726014+187459920+188363685+187503504+185352751
2909+182293601+178540981+174467735+170673236+168058469+166955124+166479335
2895+165844380+165010329+163951683+162506873+160647998+158676443+157341789
2882+157687376+160697692+166908129+176074369+187472112+200616332+215202716
2868+230646623+246248674+261556241+276252312+290029861+302788401+314703557
2855+326017556+336847534+347238392+357070361+366049225+374107178+381377068
2841+387992064+394182038+400231270+406320515+412429980+418479883+424493050
2828+430431186+436107708+441377335+446186359+450565743+454654832+458536822
2814+462285347+466120289+470254064+474758964+479545188+484428035+489302825
2801+494039369+498364239+502135536+505394884+508202975+510652884+512779951
2787+514571932+516036507+517115133+517864741+518512626+519063029+519352947
2774+519437807+519385065+519112763+518663600+518184091+517728913+517294626
2760+516886281+516448450+515960510+515579824+515366387+515244093+515260582
2747+515463170+515842781+516411768+517158368+518073667+519107930+520200574
2733+521376304+522572605+523686142+524879167+526410930+528316344+530531547
2720+533074049+535882193+538657522+541047600+542894041+544308022+545528653
2706+546777427+548272831+550079205+552064644+554148369+556310401+558467116
2693+560487680+562263656+563801919+565230455+566618119+567903952+569061798
2679+570156697+571262715+572428026+573679378+574967467+576149106+577175420
2666+578167575+579151889+579953057+580503407+580945481+581380412+581825816
2652+582262787+582658565+583050582+583481485+583896651+584272126+584644970
2639+584900944+584923609+584852338+584814366+584787834+584820704+584997673
2625+585324596+585747389+586150041+586504677+586921938+587375022+587693030
2612+587834122+587876122+587874886+587885359+587923439+587897712+587780843
2598+587664618+587556181+587428945+587379319+587458431+587526426+587444037
2585+587312882+587298541+587306813+587200631+587045253+586901260+586745882
2571+586573532+586381578+586121683+585770215+585362568+584895788+584346727
2558+583709746+583018733+582364028+581771141+581219716+580773561+580547770
2544+580610717+580938553+581453778+582110041+582875439+583671720+584460697
2530+585266108+586084785+586911196+587700012+588330226+588767842+589157228
2517+589596241+590005499+590405143+590930197+591551603+592182891+592868318
2503+593612394+594331335+595090879+596012194+597076157+598193936+599264452
2490+600292002+601366707+602440392+603461603+604516651+605608704+606676428
2476+607733302+608800273+609891252+610966011+611982979+613006232+614103817
2463+615257796+616388465+617460646+618499313+619455269+620204877+620759524
2449+621241074+621639214+621926662+622159649+622324909+622368897+622292953
2436+622166362+622048526+621887884+621622994+621307618+620979675+620544744
2422+619944821+619387113+619098430+618986986+619010241+619346348+620028553
2409+620922637+621910818+622899804+623812095+624663320+625502621+626298419
2395+627124024+627978203+628764333+629354158+629650897+629667278+629519365
2382+629314898+629019931+628574097+627962896+627047758+625686358+624084612
2368+622557306+621257133+620550760+620090640+619482123+619713607+621529918
2355+624105075+625860802+625631790+624701453+626000874+629362268+631071700
2341+629942212+628626087+628533548+629329828+630190613+631004779+632023681
2328+632977865+633680747+634541048+635806687+636983491+637638788+638032578
2314+638605647+639408158+640200840+640821387+641323668+641785131+642258785
2301+642738133+643125531+643450897+643800109+644104367+644331446+644547945
2287+644753057+644828142+644727009+644529362+644300940+644061937+643785715
2274+643396168+642864562+642234079+641528888+640774231+640030316+639362076
2260+638861084+638690667+639020329+639859362+641059530+642457184+643785393
2247+644897748+645765944+646415279+646957519+647437027+647819539+648117728
2233+648384122+648636873+648863952+649068313+649283093+649551205+649840532
2220+650047256+650151021+650254195+650421765+650588261+650729621+650901488
2206+651079908+651237649+651405918+651621235+651901055+652199621+652491526
2193+652771884+652978178+653132965+653332170+653579014+653874625+654246878
2179+654625629+654957708+655290110+655644800+656007439+656343869+656640554
2166+656951955+657269641+657524380+657710855+657834599+657901627+657953510
2152+657974402+657936645+657872464+657769773+657620840+657505420+657456116
2139+657483830+657680080+658136172+658885673+659835506+660814771+661820139
2125+662930507+664065097+665120897+666141410+667163052+668065782+668749115
2112+669326587+669940636+670524983+670957604+671265139+671551834+671890466
2098+672276146+672568266+672860225+673226838+673714833+674296656+674897116
2085+675482752+676067422+676638235+677187887+677749570+678338697+678956505
2071+679566901+680076701+680506154+681000432+681523337+682040012+682635101
2058+683276809+683880277+684425095+684954445+685522787+686122120+686654424
2044+687040909+687325725+687532449+687694917+687950300+688331683+688779558
2031+689235274+689667412+690079194+690519173+691013237+691487428+691965165
2017+692498274+692926008+693222854+693513471+693811552+694089869+694310128
2004+694442572+694523457+694662079+694873045+694974876+694979603+695033741
1990+694900114+694714767+694695324+694665999+694596286+694560086+694526035
1977+694439941+694381184+694415665+694421035+694460618+694678138+694877933
1963+695015856+695150557+695234879+695240679+695125421+694809508+694254862
1950+693476949+692483236+691141815+689595926+687831819+685495718+682844403
1936+680023100+676973752+673973976+671473527+669981669+669891815+671639701
1923+675023492+679029172+683654111+688288663+692038423+695401966+698605081
1909+701348238+703538521+705412730+707093212+708520728+709685448+710718261
1896+711780237+712570557+713116395+713936737+714503468+714685110+715084969
1882+715593534+716052526+716503999+716988181+717415001+717533106+717834142
1869+718459737+718577359+718459254+718745251+719224760+719588151+719823447
1855+719994938+720171102+720399846+720617365+720478797+720645186+721075927
1842+720591370+720189900+720588255+720998802+720982905+721089677+721597114
1828+721375835+720907659+720952344+720802498+720646260+720769521+720815495
1815+720582079+720416442+720433414+720292698+720039892+719802340+719694494
1801+719734130+719525258+718914647+718316712+718291630+718202850+717154784
1788+716183736+715976314+715711371+715182772+714748003+714098883+713268605
1774+712924656+712794198+711700749+710562399+709892387+709360459+709329576
1761+709086707+708560042+708635180+708651830+708796735+709565034+709878584
1747+709539845+709211042+709064687+709209431+709247510+708285163+707928109
1734+708120385+706588031+704837298+704010940+703411769+702717266+701484121
1720+700170950+699404800+697903650+695471142+693338005+691794479+690500160
1707+689301980+687401776+684986992+683471717+680727486+677088634+674361536
1693+671204072+668337332+665814971+662833187+660244442+657031659+652185817
1680+648058863+645394013+643407715+640581740+637418906+635618385+634090971
1666+632245175+631521615+631708413+631540359+631119661+631073955+632827911
1653+634847508+633529128+632631177+634608506+636553824+637531854+639039073
1639+641143208+644231334+647977280+650318269+652125127+655193972+658727287
1626+661924011+665350500+668184800+670132106+673163194+676767672+678928415
1612+680862939+683452275+685903473+687787671+689324430+690696841+691813009
1599+692673095+693431458+694126123+694651176+695010754+695250347+695357173
1585+695357925+695267372+694884432+694216460+694220542+694109688+692292034
1572+690915326+690820477+689881977+688374489+686980917+685801642+685803951
1558+684395394+680273972+677380002+675907371+674549891+672833800+670925701
1545+669145590+667197264+665183950+662010750+657540170+654593404+652738262
1531+649637729+646204688+643328388+640065495+636423098+632706315+627908060
1518+622994546+618591101+614038615+609329945+604363099+599155532+592275538
1504+583409892+575306528+567996545+559166024+547734404+534325509+520288387
1491+505489518+490105175+476974865+467841428+461551422+456181762+450917211
1477+445683890+439458495+430694249+419097987+406937705+396194009+385799821
1464+374039398+361639147+351238568+345772770+346965795+353360184+362102973
1450+371128805+379944557+388369016+395665142+401052418+404010784+405180903
1437+405178056+403709400+401752185+400271578+398937381+397739844+397257785
1423+397368048+398106753+399718274+401359200+403027142+405483227+408624095
1410+411994969+415531023+419454315+423353411+426659889+429100023+429008155
1396+424917561+418011976+410226647+401301061+389171796+374161907+360908767
1383+354397804+357070012+368792865+387535381+411596882+439656545+469827673
1369+499968724+525961176+543748327+553015068+555493819+554067699+551694701
1356+549398935+546757394+543306199+539068982+534566767+530656741+527730976
1342+525494987+523571636+521808066+520600379+520498279+521635931+523907689
1329+527216449+531497063+536688142+542679207+549341306+556490002+563896123
1315+571639962+579932004+588630617+597481548+606308901+614916264+623128817
1302+630786401+637724936+643815040+648958748+653014323+655783744+657090308
1288+656649040+653921566+648514526+640512993+630711531+620953411+614013480
1275+612694831+618506080+630742360+646817608+663814279+679682267+693318026
1261+704411175+713185088+719984143+725071994+728536240+730522646+731741934
1248+732779097+732768678+730492300+727187192+725378454+724995728+724882028
1234+725940298+729413674+735117615+742045838+749142867+755670265+761271945
1221+766009832+770082111+773562738+776483240+778825034+780533552+781695265
1207+782536177+783161128+783503305+783501156+783257052+782848599+782316617
1194+781607344+780693335+779584686+778283062+776787337+775025916+772901856
1180+770452162+767669368+764394874+760550587+756126894+750999137+745025097
1167+738167823+730512495+722361062+714196095+706520895+699684030+693715092
1153+688381417+683284543+677959677+672085320+665514633+658208034+650269287
1140+641857368+633056655+623965648+614725922+605413904+596071702+586723861
1126+577244596+567339047+556590544+544381334+529955632+512564527+491503204
1113+466169324+436094684+401086469+361490187+318500446+274330383+231737816
1099+193282704+161094906+136836469+121383312+114885910+117186402+127632298
1086+144737849+166396691+189996286+212279878+229591038+238697996+238604114
1072+232425365+225517604+220209025+213519508+199550435+173916687+138246852
1059+100215358+68099959+45963588+33462819+28726801+30722257+40196685+59857450
1043+93555925+144300609+211849982+292051446+377777799+461245499+536409610
1030+599103381+648067994+682169825+693974611+676958982+640967742+612826524
1016+617400332+657484367+716192598+776117969+829755106+876109114+915339937
1003+947134885+971086365+987535854+997592646+1002410934+1002852525+999526363
989+992826347+982655156+968460883+949285800+923277181+887215583+836562700
976+767757933+684890747+606782394+562221602+570892395+628902524+714127295
962+802568823+879045031+938006712+979939874+1007917765+1025554102+1035974285
949+1041542773+1043970930+1044407257+1043443514+1041325361+1038266238
937+1034431135+1029954969+1024913576+1019220485+1012837562+1005841076+998154328
924+989520594+979799050+968965420+956909279+943451778+928442533+911907970
910+894127641+875638629+857213422+839287113+820879684+799338208+771438409
897+734285457+685286202+623093960+549654587+470618851+394054535+328821269
883+284181203+272069716+305503764+387740413+503535338+626006298+731955532
870+810438286+861540118+890481377+903051131+905006977+903275633+904749391
856+911840727+921210266+928394840+931681795+931639473+929292093+925399737
843+920528170+915080204+909134361+902611260+895654034+888559529+881424421
829+874102944+866411094+858172815+849387516+840023187+829752743+818343305
816+805535568+790786111+773737935+754951163+736401085+721694541+715069179
802+718278686+728471575+740113893+748906658+753561512+754825002+753980384
789+751766577+748413668+744258840+739761297+735110310+730136643+724792066
775+719228788+713595044+708117539+703097468+698701327+694637641+690155836
762+684621453+678120587+671497105+666072341+662844842+661467651+660534790
748+658933044+656500053+653482446+650113371+646610294+643055227+639482705
735+635927316+632379607+628840813+625320657+621881009+618600500+615324341
721+612142332+608701342+605143321+601894500+598953964+596127237+593350727
708+590588665+587850503+585127433+582385243+579704334+577214680+574943835
694+572832128+570781810+568782192+566947351+565359785+563909335+562372845
681+560708959+559152113+557681684+555763059+553846528+554398489+556979125
667+556082194+552168140+550996975+552586582+553749477+553852812+553797385
654+554072103+554815535+555985734+557225163+558303413+559473934+560910473
640+562501155+564256184+566193984+568200315+570261375+572435062+574742375
627+577137287+579673129+582299524+584966630+587704899+590589739+593581244
613+596787850+600293667+603960286+607723956+611557448+615462371+619471006
600+623391129+627143252+631132873+635647924+640419165+644987441+649413389
586+653983492+658710476+663465980+668098974+672932624+678184876+683208600
573+687974952+693020857+698212473+703166161+708129193+713358029+718479180
559+723299832+728092555+732990547+737843854+742626802+747433382+752383096
546+757593993+762991473+768276434+773160999+777895717+782715617+787419453
532+792067916+796825675+801733174+806673058+811299447+815833725+820469030
519+825057285+829707252+834383697+838951167+843226732+847162968+850695961
505+853807665+857144836+860688410+864006623+866902097+868913477+870060742
492+870699926+871181207+871830488+872472894+872921252+873921839+876226091
478+879007542+881067045+882252443+881861016+879459230+876994981+875960557
465+877031395+880623360+885817016+890989243+893769244+893900830+892664892
451+888682414+881546715+872784080+863490861+853539498+842083065+829969188
438+819603196+812158459+808640182+811605907+822523108+840662424+863998781
424+889044408+913086333+938670225+965401652+986438054+1001315283+1014312073
411+1027485242+1039780278+1050049648+1058786395+1065529055+1070157646
399+1073741823
##END=
