##TITLE=17
##JCAMP-DX=4.24
##DATA TYPE=INFRARED SPECTRUM
##DATE=16/11/2015
##SAMPLING PROCEDURE=Instrument type and / or accessory
##ORIGIN=Default
##XUNITS=1/CM
##YUNITS=TRANSMITTANCE
##RESOLUTION=4
##FIRSTX=3996.3359
##LASTX=399.24785
##DELTAX=-1.9287336
##MAXY=0.60853249
##MINY=0.019843474
##XFACTOR=1
##YFACTOR=5.6674004e-010
##NPOINTS=1866
##FIRSTY=0.15301311
##XYDATA=(X++(Y..Y))
3996+269988175+270116037+270219209+270327904+270557702+270765994+270814530
3983+270813005+270872874+271007256+271229640+271522910+271818414+272036355
3969+272145154+272174471+272188695+272316215+272561211+272777442+273029275
3956+273367873+273620231+273742387+273784455+273764210+273759556+273945288
3942+274302870+274490705+274456472+274366393+274263194+274393790+274826674
3929+275116473+275101880+275103300+275189278+275182915+275228874+275522433
3915+275785466+275725282+275624002+275711347+275714134+275577254+275476789
3902+275313563+275191854+275282801+275252459+275102906+275439611+275969989
3888+275807131+275485466+275501136+275239418+275048795+275186017+275079242
3875+274878865+274661214+274562958+274868138+274850154+274451792+274345806
3861+274403466+274247892+273558153+272823718+273392246+274520337+274467646
3848+273814902+273598434+273839092+273951335+273674762+273568934+273648127
3834+273335848+272980870+273003928+273192000+273411466+273315182+273057460
3821+273214113+272941430+272249300+272284164+272448757+272000886+271542866
3807+271823909+272119598+271587090+271266003+271406328+271290140+271205319
3794+271088343+270649964+270173907+269870567+269800865+269809437+269526605
3780+269142889+269076552+269136342+269002328+268721258+268569864+268464378
3767+268160144+267855437+267478531+267065103+267149897+267432098+267102544
3753+266405839+266415882+266895594+266266145+265217143+265423436+265734926
3740+264948194+263957956+263517289+263361032+263135203+262645816+261896472
3726+261237760+260799012+260467303+260298372+260196908+259794208+258861709
3713+257882698+257276098+256548261+255402528+254007802+252653725+251454801
3699+250093388+248474911+246790860+245017334+243116656+241467758+240299702
3686+239286432+238409463+237883450+237339348+236413974+235814183+235536690
3672+234493630+233355810+232822882+232121050+231139725+230258944+229353210
3659+228414296+227936478+227639369+226570385+225151627+224369943+223818715
3645+222713631+221238081+219884056+218738625+217655469+216636782+215589843
3632+214174044+212679156+211595460+210346475+208545184+206616768+205139851
3618+204175853+203031368+201528790+200024581+198500468+196914279+195210271
3605+193267183+191275454+189460044+187759533+186027419+184274848+182531967
3591+180659173+178693697+176898519+175181536+173336113+171530944+169896954
3578+168287140+166571261+164795737+162986124+161103208+159241917+157436248
3564+155486916+153406265+151428839+149577894+147750573+145951662+144229617
3551+142464518+140485068+138453650+136648783+135075924+133505707+131719810
3537+129812849+128062947+126501446+124904529+123196012+121511540+119881008
3524+118273416+116717581+115183359+113651897+112152513+110663449+109188570
3510+107776911+106376743+104850507+103258007+101857753+100621507+99304917
3497+97955171+96774343+95690082+94433643+93035572+91787316+90664109+89390534
3481+88044042+86912362+85883382+84685023+83346110+81955440+80521269+79262181
3466+78390760+77664941+76817184+75941069+75039372+74015736+73040176+72205440
3451+71314694+70293923+69343519+68605310+67889634+66926326+65705047+64515221
3435+63682950+63129770+62547661+61960610+61557436+61236849+60833031+60367577
3420+59827221+59174832+58476142+57813222+57217185+56737329+56449311+56244629
3404+55842599+55222432+54759331+54623982+54487654+54043507+53486873+53250031
3389+53340800+53445764+53423747+53291107+53104928+52992300+53040208+53090286
3373+52909678+52583579+52450610+52709797+53188105+53538022+53722220+53972149
3358+54311289+54602633+54783504+54921794+55248120+55807380+56327701+56706632
3342+57047406+57352336+57744217+58423655+59226695+59953105+60669543+61344787
3327+61924385+62545058+63275294+64086025+64979926+65852293+66597108+67282074
3312+68000826+68784574+69622833+70559250+71700244+72977783+74120822+74994280
3296+75810960+76823073+78057256+79481995+80974812+82304529+83464408+84656745
3281+85969063+87324094+88649860+89951233+91258832+92682013+94348573+96193536
3265+98054374+99870244+101633127+103322740+105031598+106943187+109032509
3252+111096977+113075652+115082237+117216749+119491533+121883294+124309984
3238+126670377+128923220+131176063+133680462+136444607+139226446+141937151
3225+144606682+147256493+149973731+152869182+155900449+158967276+162091605
3211+165290054+168529598+171759783+174918082+178044397+181273648+184643854
3198+188023907+191348968+194727457+198198930+201672874+205103777+208486025
3184+211844716+215275803+218824852+222425804+225924345+229255559+232557825
3171+235919249+239304679+242657480+245943418+249243764+252613812+255940872
3157+259144961+262273878+265392174+268533528+271650009+274686507+277679018
3144+280611555+283422619+286168189+288928140+291643420+294268936+296879492
3130+299451476+301921287+304353919+306766254+309078755+311273464+313416535
3117+315559001+317667575+319635588+321413952+323122403+324905631+326732609
3103+328450342+330008582+331457629+332794327+334041682+335269133+336444788
3090+337502493+338498358+339500191+340449333+341267117+341924068+342492254
3076+343105507+343701432+344089172+344244273+344311004+344401950+344485219
3063+344459374+344295885+344059750+343697357+343077426+342307127+341533016
3049+340617633+339396282+337971135+336506839+334967108+333209595+331144772
3036+328773874+326201233+323552552+320750612+317577995+314027973+310237871
3022+306196016+301779753+296920324+291628669+285925427+279791799+273162605
3009+265999852+258284662+249880653+240649291+230553160+219493096+207502111
2995+194589893+180448502+164752722+148015709+131183306+114754655+99144038
2982+85188779+74009419+66595603+63435062+64733510+70597355+80634866+93921782
2966+109484521+126479821+144001173+160939733+176133531+188383263+196543906
2953+200209235+199874673+196372201+190588726+183448861+176061817+169772116
2939+165596312+163612300+163155095+163452611+164191516+165773486+168758595
2926+173216402+178679564+184337504+189410482+193383384+195937042+196856763
2912+196084558+193885379+190754003+187119541+183255083+179584062+176916976
2899+175672356+175196904+174647293+173832993+172851208+171574261+169851546
2885+168030181+166894281+167414720+170545688+176738514+185762322+197001321
2872+209916536+224161783+239221515+254385629+269085439+282985397+295928561
2858+307955239+319253397+330002298+340231813+349865613+358828526+367010360
2845+374350406+380964876+387057145+392822570+398423743+403940596+409417720
2831+414955081+420534300+425938198+431021063+435769956+440162294+444175936
2818+447856029+451336349+454763401+458262704+461994699+466032005+470293694
2804+474697100+479122330+483346367+487182376+490583398+493584927+496171872
2791+498313680+500049265+501445411+502568270+503447079+504102558+504617002
2777+505027852+505281630+505328011+505198545+505003348+504732795+504280770
2764+503710848+503149340+502610075+502089741+501618312+501212194+500905778
2750+500820011+500999749+501303377+501666323+502164308+502818314+503614459
2737+504536967+505541245+506595006+507662598+508701056+509759708+511039955
2723+512738520+514806499+517075617+519507855+521960128+524055030+525651106
2710+526988829+528241785+529460034+530815005+532433009+534221074+536026230
2696+537790264+539527269+541247237+542937809+544510642+545879443+547109261
2683+548285231+549396100+550443761+551474595+552508690+553596526+554776020
2669+555914654+556875076+557702194+558437129+559009259+559404808+559688296
2656+559955273+560341251+560827457+561250402+561588632+561934855+562301061
2642+562638239+562900431+563042517+563067652+563026110+562976364+562986355
2629+563099151+563324953+563639257+563961028+564248092+564584166+565007532
2615+565404658+565658278+565743467+565742888+565744045+565743519+565710811
2602+565637454+565567253+565526972+565506148+565511039+565507042+565478804
2588+565457402+565454720+565470864+565469128+565425482+565365272+565291389
2575+565173124+564987024+564775473+564602992+564407584+564092702+563711510
2561+563337416+562882026+562232489+561477782+560801953+560255379+559828226
2548+559547104+559424948+559472748+559718165+560161566+560773556+561531787
2534+562400815+563314857+564175682+564909460+565566937+566205483+566776141
2521+567222593+567575178+567918772+568292971+568741473+569294883+569838249
2507+570288486+570756550+571344772+572065351+572932171+573907001+574935364
2494+576003586+577054403+578037857+578973985+579878403+580755109+581666206
2480+582641352+583609241+584566455+585576991+586595152+587532384+588470405
2467+589526848+590600434+591574423+592537211+593568571+594560439+595409065
2453+596123123+596696463+597114255+597405106+597646368+597921443+598172066
2440+598229910+598095869+597978446+597982600+597956623+597727928+597347735
2426+596943510+596525298+596080003+595678197+595437303+595416742+595596322
2413+595954902+596516463+597279795+598153082+599056397+599975907+600859502
2399+601678048+602427812+603164378+603862030+604542171+605221155+605792707
2386+606113269+606131200+605911183+605575529+605177562+604568516+603533055
2372+602066760+600386022+598784004+597458428+596457830+595727470+595187627
2359+594937741+595269135+596705666+600029649+603934072+605620017+605089744
2345+604640401+604994617+605222154+605433391+606097441+607014953+607711553
2332+608143701+608551449+609051906+609669891+610379427+611273907+612445828
2318+613644673+614452176+614834683+615129635+615570460+616205588+616972968
2305+617684030+618215617+618620000+618958440+619230149+619450588+619658248
2291+619884156+620118687+620317618+620455392+620518863+620444086+620193832
2278+619867854+619558756+619204120+618732007+618204995+617710480+617199454
2264+616574843+615913212+615449829+615357646+615654860+616326640+617387816
2251+618721753+619949625+620969994+621781862+622455851+623043283+623506509
2237+623870401+624209420+624495696+624729701+624989894+625247353+625473734
2224+625728721+625997801+626208511+626366163+626541062+626756768+626991089
2210+627218942+627440380+627670547+627855332+627963185+628075297+628279224
2197+628598471+628971039+629287972+629500418+629664695+629872671+630154687
2183+630497387+630885100+631273970+631607362+631905154+632253691+632643455
2170+632960650+633177145+633386015+633653570+633936165+634154447+634322721
2156+634511029+634691818+634774010+634748453+634644018+634468015+634291853
2143+634209241+634249837+634412537+634711433+635182231+635829559+636651050
2129+637615468+638630317+639676821+640737050+641738857+642703591+643649447
2116+644518370+645272131+645884595+646367540+646784596+647157743+647492502
2102+647817849+648125369+648423476+648676728+649014327+649428018+649887563
2089+650381341+650899992+651460028+652069599+652659293+653177997+653676876
2075+654218822+654787955+655333214+655833198+656311831+656831849+657395566
2062+657951237+658496812+659021616+659507348+660008856+660590137+661205598
2048+661748438+662202724+662587177+662900376+663158098+663382901+663648458
2035+664012928+664429932+664827689+665226707+665696822+666207901+666682380
2021+667089076+667455545+667856457+668294757+668701191+669043680+669306713
2008+669529097+669781245+670006258+670140299+670262508+670432411+670554042
1994+670555304+670539844+670510869+670407013+670320036+670285382+670254094
1981+670199458+670133305+670095075+670126574+670278073+670464278+670586855
1967+670714901+670869765+671007697+671171659+671345875+671392623+671245384
1954+670969678+670609677+670085557+669270008+668042242+666480767+664788670
1940+662835381+660496903+657904015+655155580+652452001+650183146+648885020
1927+648976255+650689807+653945114+657909011+662015625+666176139+669866486
1913+672947577+675708107+678153807+680218735+681926135+683391325+684707173
1900+685863371+686870278+687861147+688773874+689359099+689836260+690386935
1886+690808198+691190127+691612441+692004992+692414107+692896474+693449569
1873+693833180+693988045+694240613+694530306+694659088+694887520+695251149
1859+695509133+695693866+695938599+696231869+696538548+696866208+696954026
1846+696802054+696867260+696867628+696633833+696718811+697151695+697439811
1832+697471678+697611818+697657515+697352151+697225998+697297725+697256550
1819+697224263+697275008+697287523+697198654+697123088+697068084+696956340
1805+696780231+696544069+696371063+696355971+696325681+696012429+695529221
1792+695143138+694635057+693948973+693461979+693128008+692702959+692337806
1778+692087551+691706043+691199066+690699767+689919608+689017819+688501955
1765+688090736+687706493+687492838+687265669+687368579+687769754+687965898
1751+688179605+688501955+688596924+688541131+688427020+688339676+688470403
1738+688243286+687373522+686561391+685677428+684555148+683706155+683086171
1724+682596074+682040981+680979332+679538068+677965656+676257415+674660235
1711+673304422+671990994+670782841+669562068+667818332+665807830+663486284
1697+660374904+657391149+654888341+652565270+650556766+648191048+644997687
1684+641513370+638071700+634931503+632241438+629934459+627741958+625384864
1670+623346281+621988208+620819179+619897617+619689274+620063788+620723789
1657+621226717+621581774+622433817+622932749+622690645+623200041+624573417
1643+625945005+627621642+629694090+631959422+634681932+637331770+639483096
1630+641972284+644966609+647787507+650562550+653381503+655574056+657602648
1616+660284089+662864934+664976558+667161855+669316441+671034042+672342055
1603+673466386+674491173+675378343+676120851+676755768+677246233+677548758
1589+677722132+677841186+677917645+677988951+678043640+677770564+677187338
1576+676702920+675982971+674879043+673955063+673112012+672281792+671781283
1562+671074113+669727818+667774529+665132106+662661849+660919375+659468487
1549+658036058+656677248+655352355+653437086+650518063+647328015+644293620
1535+641432073+638863533+636260287+633464472+630761261+627924062+624486861
1522+620547995+616307393+611880954+607545593+603435824+599510210+595198302
1508+589414788+582076689+574580254+567680139+560509577+551678101+540798261
1495+528761382+515929252+501759136+487310422+475374349+467120315+461349001
1481+456527803+452019593+447410893+441497282+432888559+422040980+411151675
1468+401125824+390990937+380020150+368937252+359295380+353745557+355018915
1454+361820642+370397920+378763830+386890554+394953572+402162101+407551065
1441+410628764+411621947+411292972+410175083+408624493+407099224+405801965
1427+404777520+404346135+404640115+405475094+406929609+408932198+411144734
1414+413690714+416729448+420061188+423518896+427154423+430832044+434001636
1400+436071403+435880491+432132615+425661099+418354708+409664267+397650289
1387+383221084+370828937+364867789+367681168+379210491+397424671+420564457
1373+447558710+476595122+505323068+530046783+546853274+555172725+557190221
1360+555851236+553524274+551127689+548502146+545267926+541329638+537115434
1346+533446016+530749063+528652004+526663956+524885251+523771437+523689298
1333+524786442+527002081+530214951+534322933+539282116+544993219+551263254
1319+557982054+565093352+572569752+580444171+588642202+596971012+605295932
1306+613464778+621239390+628462695+635065439+640929040+645848048+649664232
1292+652284832+653503922+652966498+650293944+645234270+637790158+628604623
1279+619440071+613043199+612113750+617935862+629725326+645135619+661481829
1265+676739256+689817487+700423566+708769099+715220870+720075302+723446508
1252+725431559+726560623+727357188+727211158+725143075+722178618+720473585
1238+720074146+720056161+721175970+724534502+729936876+736334694+742711162
1225+748499461+753454595+757632620+761228786+764259763+766714876+768690567
1211+770210657+771236495+771840913+772171098+772310397+772236567+771976899
1198+771548275+771008537+770304522+769374337+768274616+767082712+765759397
1184+764187038+762221233+759833429+757110656+753990915+750326230+746040562
1171+741053614+735271099+728649845+721295497+713503742+705684748+698318883
1157+691808164+686170523+681069201+676181639+671209363+665757926+659589434
1144+652713351+645224068+637309368+629130584+620683876+611999745+603144395
1130+594160789+585158042+576030668+566424660+556018563+544303507+530477195
1117+513738697+493437898+469064297+440195002+406596874+368532738+327123004
1103+284370421+242716481+204626064+172377202+147901191+132438628+126262748
1090+129015692+140007342+157891521+180477161+204891989+227773568+245577107
1076+255163869+255455613+249468199+242623220+237307612+230339399+215614822
1063+188841388+151777993+112089148+78107869+54156057+40307186+35013361+37354551
1047+48129466+69969339+106413612+160041519+230042002+311551221+397086914
1034+479106607+552188759+612985198+660452731+693109708+704029408+687670052
1020+653715263+627643833+632897916+671738531+727700361+784088029+833964032
1007+876704757+912631556+941504479+963045613+977653662+986321334+990086247
993+989863810+986296198+979587126+969550337+955752422+937320354+912623247
980+878781097+831443660+767209969+689901781+617117684+576184165+585931576
966+642293266+723590277+806742557+877681691+931858401+970221855+995675983
953+1011523682+1020813651+1025814219+1027879673+1027958762+1026813029
941+1024756304+1021922365+1018440362+1014251504+1009328342+1003840727+997844189
928+991232927+983973600+975949785+966932209+956766902+945336807+932594703
914+918539434+903161849+886629591+869435440+852253067+835393937+817934544
901+797389485+770625557+734926454+687998448+628399277+557597286+480970396
887+406398101+342451974+298524183+287045210+320971655+402740305+516506378
874+635676062+737817816+812705966+860949451+888019111+899766402+901787895
860+900344738+901586492+907940611+916509212+922895934+925513116+925271854
847+923083139+919413300+914726037+909375670+903581377+897508169+891203901
833+884580018+877665810+870537001+863134589+855393632+847382385+838949771
820+829513403+818668901+806260242+792046954+775802549+757884347+740185847
806+726379097+720485732+723952801+733948941+745182051+753546567+757947923
793+759178845+758359668+756225957+753139240+749405194+745284803+740895805
779+736194711+731172215+725932015+720601526+715390405+710587980+706267869
766+702150212+697769154+692594896+686564756+680453424+675474154+672502020
752+671232500+670380141+668906380+666630846+663799904+660711399+657529607
739+654157087+650640798+647213273+643908957+640639609+637360849+634042755
725+630722400+627442536+624150051+620907891+617957737+615267567+612570929
712+609700601+606771482+603984081+601408494+599016694+596749995+594485873
698+592149393+589825744+587604058+585491014+583503649+581662420+579986572
685+578513704+577238925+576037819+574732226+573410331+572507385+572026543
671+571114027+569507749+568554005+568817091+569303822+569544559+569623648
658+569811062+570273499+570879968+571464982+572123774+572999533+574060183
644+575306250+576792737+578519961+580416669+582395883+584446245+586557186
631+588712877+590966061+593331200+595848890+598526282+601187162+603918244
617+606798826+609740513+612958221+616519471+620146452+623781269+627549337
604+631377721+635078743+638691736+642401172+646398776+650791087+655359297
590+659771906+664141079+668768658+673585387+678371669+683050466+687731787
577+692593687+697569329+702334314+706899421+711690488+716680854+721517776
563+726180587+730809007+735636621+740754507+745704909+750238990+754709969
550+759267767+764032331+769230042+774600602+779719539+784481316+789134452
536+793955125+798882336+803737347+808471569+813092206+817567865+821992359
523+826463128+830783607+834799774+838683898+842734614+847206750+851824916
509+856003309+859720422+863339726+867035068+870312251+872687223+874669540
496+876497938+877752892+878534471+879183218+879633035+879830967+880302133
482+881850303+884455495+887069206+888896448+889868649+889630121+887844422
469+885506785+884390710+885684630+889287895+894014808+898368994+900930856
455+901032346+898912834+894642889+888636045+881747394+873812080+863834661
442+852174714+840947652+831283432+823174008+818658226+821270465+832480910
428+851107439+874663545+900159636+924858006+948518862+971634512+991468089
415+1007181801+1021395773+1034285116+1043410072+1049151359+1055526408
403+1063594500+1070199241+1073741823
##END=
