##TITLE=37
##JCAMP-DX=4.24
##DATA TYPE=INFRARED SPECTRUM
##DATE=16/11/2015
##SAMPLING PROCEDURE=Instrument type and / or accessory
##ORIGIN=Default
##XUNITS=1/CM
##YUNITS=TRANSMITTANCE
##RESOLUTION=4
##FIRSTX=3996.3359
##LASTX=399.24785
##DELTAX=-1.9287336
##MAXY=1.1332725
##MINY=0.032209523
##XFACTOR=1
##YFACTOR=1.0554423e-009
##NPOINTS=1866
##FIRSTY=0.12289096
##XYDATA=(X++(Y..Y))
3996+116435506+116553917+116622412+116680262+116789256+116908987+116991658
3983+117047306+117123877+117242789+117348557+117428629+117523449+117622263
3969+117710299+117821121+117973332+118137148+118310980+118475269+118572630
3956+118660347+118793060+118894995+118912559+118931689+119056411+119195491
3942+119292245+119438709+119614681+119731878+119733374+119660665+119663912
3929+119803557+119979077+120096655+120189653+120265384+120323326+120431501
3915+120624443+120781045+120822553+120841824+120890787+120933975+121026041
3902+121161874+121228302+121329220+121556216+121738470+121696186+121648564
3888+121722898+121714568+121746263+121851841+121860100+121935139+122098913
3875+122180291+122240662+122254935+122307978+122474011+122532772+122468970
3861+122399790+122459878+122688836+122775439+122545224+122458805+122630598
3848+122811441+122903069+122982838+123122568+123208888+123180722+123247360
3834+123415610+123481373+123494277+123545626+123644794+123807085+123793093
3821+123672522+123808779+123942763+123953027+124021755+124140999+124183142
3807+124116984+124229338+124366173+124285233+124312241+124422026+124426784
3794+124434267+124492519+124568081+124635962+124676087+124734297+124812230
3780+124788794+124727661+124753893+124833493+124877641+124852030+124886437
3767+124939352+124944689+124996066+125005907+124943588+125008533+125252569
3753+125408874+125324432+125307419+125509411+125398765+125053768+125058681
3740+125260207+125340936+125303974+125298271+125318192+125385085+125393287
3726+125286905+125183488+125117668+125076781+125055660+125099159+125151707
3713+125038930+124828029+124729511+124711015+124635073+124424087+124143780
3699+123880260+123576828+123256820+122946229+122528705+121942848+121477703
3686+121319648+121216837+121088374+121092468+121133567+120932295+120817357
3672+120883078+120688682+120381466+120209715+120088311+119942030+119805576
3659+119606549+119228133+118951116+118907998+118717075+118258982+117832846
3645+117595926+117365167+117007273+116576810+116146565+115714380+115344111
3632+115016747+114413094+113704583+113318656+113091540+112720015+112104085
3618+111441614+110922968+110407907+109846743+109265064+108588828+107920583
3605+107339491+106714476+105989623+105265829+104537171+103727071+102957632
3591+102324746+101594182+100669335+99841545+99196397+98534766+97772083+96966374
3576+96170816+95405507+94685066+93916883+92953479+91931525+91087760+90359490
3560+89606767+88807899+87983236+87126333+86232589+85366905+84496209+83510454
3545+82513766+81659998+80882801+80046567+79137088+78251652+77420460+76582285
3530+75697224+74754693+73787603+72878399+72070354+71281234+70426068+69542058
3514+68702952+67909886+67105892+66296583+65475188+64565737+63662992+62904537
3499+62184520+61397581+60617405+59888451+59146352+58363239+57610072+56912213
3483+56157115+55315291+54540018+53901093+53287077+52553675+51666898+50773665
3468+50035809+49440164+48865132+48243347+47584911+46926061+46315903+45762959
3452+45219188+44648957+44037496+43411122+42828907+42276429+41691133+41055357
3437+40432213+39917322+39492989+39050452+38592726+38210594+37870291+37457292
3422+36993474+36598889+36267079+35873931+35422184+35027875+34702879+34390238
3406+34051841+33635740+33179962+32875746+32780277+32667839+32367995+32003684
3391+31803806+31757921+31675823+31498309+31327430+31210343+31084830+30957606
3375+30888514+30831225+30709115+30562280+30517560+30603904+30700548+30732788
3360+30770660+30866147+30948192+30957489+30972557+31133323+31415907+31630612
3344+31736624+31838393+31955050+32117376+32378577+32681470+32981479+33265802
3329+33478839+33662593+33940337+34293026+34624582+34970233+35380633+35792418
3314+36143472+36432617+36686939+36954793+37326344+37869585+38486915+38999124
3298+39392043+39791227+40248056+40745415+41291469+41861782+42416438+42976437
3283+43567226+44175591+44773220+45338951+45872443+46400666+47004768+47720528
3267+48451703+49165438+49944103+50781826+51583024+52322292+53082444+53906980
3252+54725410+55497295+56296718+57214760+58250303+59302170+60261762+61119060
3236+61956811+62885428+63977642+65168642+66334992+67456092+68567789+69708726
3221+70886991+72059560+73217989+74400314+75612944+76822467+78029224+79268615
3206+80545999+81841956+83139472+84421600+85700438+87016047+88355510+89670145
3190+90962198+92280927+93649996+95031383+96386496+97726777+99086387+100461159
3175+101806827+103139858+104508292+105885380+107223063+108498061+109727026
3161+110982639+112293716+113592744+114820953+116036752+117332236+118657001
3148+119913977+121132720+122351407+123519563+124659879+125864503+127100951
3134+128285739+129419249+130517732+131592707+132676125+133760885+134776774
3121+135696814+136600957+137575946+138618519+139648880+140590352+141451264
3107+142307164+143193066+144064087+144883166+145680573+146487045+147290057
3094+148049402+148734469+149372621+150001497+150644957+151307901+151935634
3080+152522239+153149449+153812986+154428196+154961307+155412376+155811079
3067+156217322+156625005+156998691+157340695+157635205+157875374+158081714
3053+158243398+158370266+158509361+158625640+158654950+158631414+158605041
3040+158554991+158430114+158223689+157963585+157629233+157203648+156687239
3026+156052419+155313773+154519132+153656978+152645719+151431550+150045998
3013+148526477+146841360+144904301+142648547+140067477+137131640+133733876
2999+129769513+125186467+119910052+113827766+106839897+98890233+90019434
2986+80461924+70665205+61260378+53035617+46783077+43039981+41981556+43473554
2970+47067711+52101565+57993048+64425506+71286563+78405868+85322509+91348033
2955+95872212+98604525+99561294+98942259+97057798+94301342+91139405+88164389
2939+86005600+84937006+84713060+84928316+85404841+86221202+87555709+89524549
2924+92009713+94681339+97192487+99294725+100857780+101814161+102117509
2910+101781646+100913873+99682374+98282287+96920567+95778741+94930599+94279155
2895+93655538+92938824+92078512+91040273+89744549+88210443+86713970+85774348
2880+85993691+87723556+90844323+94952490+99718482+104932147+110382748+115875958
2864+121224447+126254948+130885784+135167769+139228053+143138498+146908973
2851+150550590+154024070+157222059+160080188+162637074+164986842+167211507
2837+169350926+171448469+173557942+175683665+177805803+179897953+181892770
2824+183767327+185549790+187217583+188765864+190232611+191646272+193075479
2810+194597104+196233582+197964230+199724922+201439405+203077338+204653544
2797+206155037+207526626+208763638+209890597+210891903+211787970+212628819
2783+213393529+214046660+214618018+215154362+215665095+216118381+216485262
2770+216798930+217090941+217332846+217514521+217675485+217857881+218059633
2756+218246617+218414909+218578301+218755854+218988935+219284701+219606488
2743+219947490+220317293+220730567+221228933+221798525+222377606+222951293
2729+223526082+224104866+224710531+225380068+226153940+227052167+228048588
2716+229073782+230040172+230893898+231655360+232366801+233033260+233688072
2702+234416595+235232752+236067969+236892681+237719624+238529936+239278579
2689+239971284+240653090+241310019+241909684+242479757+243062424+243680471
2675+244336977+245026718+245725324+246386574+247008772+247606319+248167921
2662+248692364+249169227+249623331+250111291+250607751+251062703+251488739
2648+251921186+252369615+252814091+253238490+253637956+254000714+254326962
2635+254651036+254995779+255345153+255692664+256039751+256382969+256746405
2621+257156517+257583881+257987498+258377815+258769290+259152492+259506610
2608+259829243+260129627+260376077+260593614+260857826+261150472+261425188
2594+261686407+261955532+262234370+262509397+262792132+263090793+263380389
2581+263651717+263933266+264247852+264569639+264848562+265092952+265355018
2567+265622448+265837415+266003871+266180069+266377388+266551298+266671898
2554+266738226+266775696+266828160+266933286+267111065+267376914+267735493
2540+268154754+268605583+269094446+269624536+270158833+270651961+271131083
2527+271659619+272199225+272655193+273047317+273471208+273939403+274376960
2513+274759146+275160052+275625423+276128151+276633110+277128779+277633173
2500+278170124+278749515+279335457+279889915+280448778+281032969+281617358
2486+282205164+282804377+283402405+283993062+284589000+285213711+285861125
2473+286502806+287132176+287745000+288355310+288994902+289649516+290307773
2459+290985795+291651930+292247500+292760563+293229181+293698562+294171698
2446+294614761+295026708+295442269+295855910+296226264+296548898+296841827
2432+297105672+297350146+297586234+297800579+297964240+298069676+298179913
2419+298363367+298624049+298959051+299349961+299762586+300232305+300768494
2405+301296579+301814724+302356984+302898481+303433625+303958830+304467290
2392+304963947+305433864+305827796+306086953+306180389+306149413+306099011
2378+306085287+306083791+306110277+306228561+306417606+306545576+306544757
2365+306498025+306747779+307496309+308430919+309150760+309763160+310625823
2351+311748095+312612762+312656332+312195959+312308370+313284940+314375812
2338+315132530+315569184+315878490+316181923+316523165+316975152+317495951
2324+317937970+318299656+318741788+319316746+319874423+320295320+320663190
2311+321114047+321652268+322230248+322816218+323343089+323795499+324246441
2297+324736773+325238061+325736892+326215280+326654419+327062272+327448975
2284+327794198+328086138+328351395+328604877+328826677+329013012+329203328
2270+329417560+329607001+329724749+329805449+329915375+330085474+330331247
2257+330680056+331161635+331783438+332481508+333146005+333839332+334481098
2243+335108520+335702396+336253748+336764948+337232549+337689901+338168769
2230+338667261+339168239+339650015+340087912+340498616+340916775+341347838
2216+341792511+342248169+342707808+343152904+343579252+344014861+344472890
2203+344937217+345407642+345901984+346400533+346900748+347418696+347924360
2189+348417799+348926174+349428535+349899243+350371899+350897725+351461303
2176+352013107+352536758+353036296+353530073+354047117+354558006+355013663
2162+355438825+355860739+356288696+356751243+357242310+357710504+358133576
2149+358538182+358932283+359308566+359674770+360048936+360463028+360918770
2135+361418167+362000692+362654572+363337394+364056360+364812937+365576630
2122+366339927+367099469+367830520+368525484+369215649+369919112+370598236
2108+371213883+371767465+372282985+372769336+373231911+373734357+374287855
2095+374835536+375339874+375844494+376395224+376972554+377546524+378106601
2081+378634460+379135042+379642147+380181244+380758941+381357222+381930599
2068+382444594+382941138+383523042+384147584+384709666+385240941+385808219
2054+386423555+387062780+387702174+388326377+388925421+389479512+389976311
2041+390471895+390993711+391508835+392021136+392519063+393012784+393557246
2027+394164027+394779505+395364458+395930522+396475436+397023173+397630829
2014+398232048+398780830+399325772+399845075+400314992+400774659+401263890
2000+401765178+402242973+402699450+403075592+403392889+403853629+404344216
1987+404741282+405115222+405495910+405895546+406280498+406661610+407097022
1973+407579194+408043943+408435531+408855526+409437486+410008632+410471688
1960+410931496+411382777+411780577+412158216+412506884+412752544+412857868
1946+412860296+412692146+412466901+412335261+411994075+411357561+410612053
1933+409876428+409255557+408903020+409022603+409680323+410976929+412842761
1919+414735502+416765108+418928810+420727749+422187902+423539598+424881157
1906+426121798+427216567+428234335+429197125+430066367+430857365+431739850
1892+432577467+433193396+433999331+434911070+435595247+436241277+436939433
1879+437647583+438337945+439013934+439682328+440124121+440595930+441591983
1865+442649113+443340604+443892097+444518531+445220300+445919867+446563638
1852+447162767+447737894+448348092+448691564+449156116+450314277+451272634
1838+451746166+452285517+452978759+453493968+453896963+454731220+455490677
1825+456020964+456833592+457574413+458063248+458608190+459308322+459911263
1811+460425991+461109294+461849240+462445742+462817903+463147879+463791537
1798+464638810+465221703+465360515+465756000+466827558+467638774+467853063
1784+468147008+468637255+469087774+469601260+470014449+470064739+470172604
1771+470935308+471695641+472273733+472718632+472810995+473203882+473912597
1757+474483715+475259832+475862236+476173801+477007182+478167433+479046727
1744+479599547+479967303+480484828+481277830+481217460+480979198+482062813
1730+483134118+483532144+483676660+483703598+483847944+483714384+483142194
1717+483279086+484133136+484694879+484683133+484285333+483727712+483554620
1703+483417615+482462872+482247877+482415096+482013004+481961048+481411503
1690+480339408+479268103+477551249+476211695+476259584+475998620+474762864
1676+473123604+472212628+471674463+470612307+470113928+470276713+469841160
1663+469213625+469302373+469621336+469398237+468163583+467821381+469833282
1649+470723673+470045679+470420946+471670849+472463541+472967765+473415149
1636+474593104+477103752+479334008+480611272+482049260+483939319+485799560
1622+487984129+490168472+491659997+493710328+496831963+499360344+501061950
1609+502751076+504591721+506375666+508033506+509609063+511059757+512357182
1595+513610784+514887991+516087604+517158626+518148100+519039310+519818533
1582+520582113+521196941+521256860+521694530+523141723+523726507+523371966
1568+523771460+524429435+524678370+524215456+522648483+522544402+524536000
1555+525353738+525022690+524589368+524347830+524032086+523364512+522647240
1541+521947927+522228375+523280422+522774645+521358908+520877244+520391966
1528+519215734+518154877+517085831+515679638+514872687+514021121+512686536
1514+511364602+509807455+507701045+504583702+501804183+500617559+498744725
1501+494875943+489763104+484181704+478551736+471750505+462773543+453330957
1487+445688580+440172914+435780199+431782431+428078948+424393677+420061812
1474+414194175+407269831+400554356+393749595+386220081+378321314+370433982
1460+362587848+356873960+357232794+363242377+370457532+376799830+382583434
1447+388336684+393553434+397485636+400009357+401020065+401132476+401560349
1433+401777772+401180140+400531992+400280289+400252900+400651716+401321070
1420+402232243+404318915+407141806+409737954+412285846+415093348+418005325
1406+420756945+423484282+425917928+427353064+427826962+426954897+424299451
1393+420290982+414316609+405481029+395191452+386414830+381519245+382213899
1379+388901194+400148536+414327706+430813909+448603014+466031534+481352262
1366+492543978+498941592+501964286+503115896+503156105+502720016+502097959
1352+501095270+499556872+497801390+496383845+495582485+495055642+494423025
1339+494116712+494449850+495175875+496248986+497874240+500174354+503077437
1325+506461675+510240438+514335114+518737967+523464526+528379708+533401229
1312+538614309+543912325+549132238+554234234+559159863+563854684+568243192
1298+572256829+575861088+579017116+581621284+583503098+584513298+584502455
1285+583189331+580339841+576177679+571580331+568021816+567133486+569924525
1271+576314797+585190247+595006096+604516480+613044165+620377321+626548306
1258+631644824+635780274+639044450+641438253+643029002+643945287+644149608
1244+643562226+642449413+641368904+640769945+641058920+642737881+646051131
1231+650731157+656110438+661507114+666492830+670844236+674550712+677769765
1217+680617278+683107087+685288098+687260891+689086683+690775244+692278346
1204+693581644+694793455+696035987+697236560+698305436+699239453+700135746
1190+701013346+701733102+702210643+702537061+702840776+703126306+703239028
1177+703088921+702738841+702146433+701115111+699566492+697625663+695357118
1163+692687328+689690611+686742237+684231589+682218587+680509695+678882690
1150+677134154+675052424+672506141+669539074+666222209+662548769+658566306
1136+654464853+650398245+646315767+642200873+638234674+634458058+630548333
1123+626007571+620417869+613438859+604492817+592671082+577056465+556882451
1109+531375181+499802476+462200421+420118878+376246049+333410669+294391126
1096+262272885+240023098+229553723+231193928+243641307+264315536+289945466
1082+316837130+341003490+358565204+366348003+363511785+353886054+345009107
1069+341595870+339712080+329290664+302421900+259255584+207621417+158190807
1055+119386951+95089318+85770183+91183045+112042621+149530832+203496993
1042+270907701+345530698+419526244+486261288+542434805+587978350+623899976
1028+650374977+665831355+666770172+650928306+624169750+603055112+604086264
1015+629002424+665861060+702726699+734870918+762086232+784961266+803786182
1001+818630103+829547753+836999672+841895766+844867690+845917478+844875257
988+841779486+836612659+828721092+816570397+797701715+768572227+725622064
974+669923490+613675879+578769028+581916020+620958209+678705194+737353667
961+787106699+825508759+853632791+873535675+887345677+896966974+903872738
947+908978630+912711367+915383247+917436797+919081365+920204400+920832217
934+921129664+921083863+920566000+919535978+918034514+916152135+913851570
920+910839832+906955576+902294865+896827315+890446135+883291775+875738033
907+868299554+861432249+854734421+846423199+833977430+814890138+786779265
893+747486842+696160060+635195603+570637730+510751411+466489733+452662591
880+481552122+550289608+638577356+722582993+788469577+833957608+862832286
866+879527243+887188172+888801341+888490792+890448789+896124783+903619566
853+910316773+915135328+918089632+919270778+919123156+918418309+917489092
839+916153830+914272919+912027246+909716967+907380597+904753331+901725780
825+898491480+895143328+891371060+886786870+881362410+875097792+867620459
812+858459252+847739994+836696465+827689996+823490901+825371472+831695388
798+839148663+845183321+848900923+850479868+850607442+850017067+848955928
785+847247093+844993569+842578870+840162421+837572428+834554647+831277765
771+828165165+825458950+823135681+820863522+818275167+815064641+811028867
758+806620932+803166836+801804184+802112925+802605093+802436971+801710494
744+800619085+799238588+797636318+795838537+793902565+791887530+789876899
731+788032415+786355713+784573688+782523470+780108093+777793070+775936104
717+774548604+773148397+771480731+769728750+768010936+766334912+764724510
704+763139521+761523134+759971013+758626376+757527964+756567687+755567482
690+754439535+753299389+752314376+751554636+750981090+750452328+749846309
677+749321105+749204769+748851809+746614720+744017385+745547199+749242945
663+750351127+749333698+748776812+749246164+750044984+750783150+751595806
650+752645029+753879599+755152062+756453158+757980431+759764940+761539567
636+763212824+764979658+766973346+769137076+771410761+773951339+776629375
623+779072254+780971575+782853727+785670010+789269582+792610392+795420632
609+798173439+801160215+804382205+807642878+810848095+814219457+817769332
596+821285097+824901611+828868940+832950966+836665461+840230359+844101851
582+848083523+851904020+855580679+859249092+863271651+867435451+871319707
569+875052895+878849899+882620868+886306901+890157498+894195870+898205497
555+902237318+906304831+910244204+914088872+917976064+921839650+925551096
542+929086345+932506726+936067274+939893306+943589278+947087649+950753013
528+954159840+957051967+960264413+963675080+966546312+969103663+972026399
515+975423174+978599024+981237698+983466937+985616097+987921576+989962533
501+991828986+993569729+994874834+995569798+995387050+994826041+994428241
488+993801835+992828908+992398805+993367327+995324816+997037548+997603526
474+996786127+995353279+994038121+992315337+990925747+991516122+994341045
461+997883861+1000274051+1002052292+1003135004+1002323704+1000575733+997711617
447+992798412+986470769+980398839+975327056+969598372+962752866+957649684
434+955967222+957308922+962581751+972318819+984601944+997263781+1009174180
420+1019419850+1029690029+1039906671+1047293872+1052400104+1056601063
409+1060544390+1063811841+1066121386+1068785698+1071565330+1073741823
##END=
