##TITLE=37
##JCAMP-DX=4.24
##DATA TYPE=INFRARED SPECTRUM
##DATE=16/11/2015
##SAMPLING PROCEDURE=Instrument type and / or accessory
##ORIGIN=Default
##XUNITS=1/CM
##YUNITS=TRANSMITTANCE
##RESOLUTION=4
##FIRSTX=3996.3359
##LASTX=399.24785
##DELTAX=-1.9287336
##MAXY=1.1048697
##MINY=0.029287402
##XFACTOR=1
##YFACTOR=1.0289901e-009
##NPOINTS=1866
##FIRSTY=0.12613407
##XYDATA=(X++(Y..Y))
3996+122580446+122702741+122836462+122992383+123135009+123233642+123300488
3983+123340239+123379759+123476364+123642219+123852980+124061787+124204138
3969+124284553+124390412+124551864+124690436+124763857+124806620+124872264
3956+125016049+125194952+125295641+125283230+125261190+125350062+125496048
3942+125656501+125833232+125949633+126026138+126106567+126181291+126293420
3929+126466617+126606883+126649545+126717144+126847244+126923083+126930237
3915+127008784+127149658+127230421+127304898+127455808+127575946+127613423
3902+127617391+127566953+127589312+127790443+128010777+128084009+128196544
3888+128349727+128286039+128258205+128412852+128520535+128637515+128784501
3875+128857501+128907201+128848595+128805629+128918526+128960377+128903639
3861+128864322+128959479+129215031+129356007+129241938+129258099+129437986
3848+129556110+129551650+129538704+129650398+129778225+129782715+129811576
3834+129903301+129922749+129931554+129991116+130106677+130336134+130462440
3821+130462396+130565721+130531863+130395493+130438430+130605863+130669320
3807+130565518+130647034+130814221+130799913+130866701+130994962+131033584
3794+131058536+131090105+131119053+131141079+131133723+131141181+131189461
3780+131171302+131136575+131208403+131359516+131478914+131484953+131502476
3767+131549352+131585845+131671299+131710370+131670575+131697090+131835011
3753+131903580+131804701+131831202+132116021+132038184+131617240+131550525
3740+131776101+131871851+131711514+131549424+131544052+131688662+131760910
3726+131665869+131574853+131565947+131574767+131522170+131476134+131468473
3713+131356489+131133100+130954516+130845443+130691651+130361997+129928947
3699+129548030+129166157+128758232+128342139+127835278+127181532+126637902
3686+126396426+126245675+126104395+126081601+126039316+125708822+125482247
3672+125489097+125282231+125000395+124856074+124709769+124476257+124260949
3659+124071851+123782832+123581049+123545020+123342426+122878849+122392450
3645+122057930+121791619+121478387+121096318+120672558+120256321+119962241
3632+119703821+119052711+118172274+117583448+117215354+116789204+116169794
3618+115517025+114991519+114410021+113718341+113035879+112354654+111684965
3605+111017527+110280861+109484734+108712104+107942073+107081135+106216468
3591+105476826+104669252+103647615+102675120+101900752+101172341+100400145
3578+99589805+98712670+97785284+96913927+96059325+95044248+93971731+93063374
3562+92223905+91306902+90360641+89457823+88537982+87539906+86556768+85611462
3547+84597977+83555516+82588712+81671927+80741363+79767956+78780235+77851198
3532+76989493+76078334+75025555+73916117+72897318+72045692+71299519+70491735
3516+69547110+68576693+67694540+66835572+65930271+65008931+64063900+63140020
3501+62326306+61595461+60857636+60050410+59208660+58396181+57582901+56769346
3485+56012247+55230874+54330373+53445707+52727092+52094044+51371200+50497595
3470+49607025+48890636+48366133+47834429+47122500+46317381+45601134+44974779
3454+44353877+43744180+43164586+42576574+41966254+41362846+40759263+40126935
3439+39457890+38799528+38259233+37844179+37426403+36976566+36587981+36240135
3424+35812671+35310802+34839568+34422397+34014255+33613273+33229941+32872527
3408+32586676+32321650+31929509+31459977+31150062+31010740+30819554+30495074
3393+30152154+29943845+29889785+29851257+29730826+29549218+29353359+29173675
3377+29022269+28897526+28781659+28636158+28489945+28462277+28562620+28663323
3362+28731002+28836826+28979350+29089694+29114701+29077425+29113836+29294513
3346+29503504+29632455+29714309+29830795+30020522+30278475+30581633+30896026
3331+31170477+31367224+31525027+31755918+32105200+32478989+32821513+33184940
3315+33578681+33935429+34209452+34430224+34671537+35029824+35561532+36164104
3300+36672932+37059482+37410778+37824673+38363763+39002126+39624469+40152788
3285+40633355+41155875+41739285+42331905+42906297+43482165+44057067+44651976
3269+45346526+46137765+46925851+47670033+48412401+49171680+49933062+50709164
3254+51507872+52323903+53171572+54054387+54955304+55870670+56825208+57808357
3238+58739769+59610489+60561964+61692211+62899636+64067868+65234746+66441151
3223+67642878+68822405+70003048+71170657+72334168+73560144+74851033+76165143
3207+77492532+78821354+80145673+81486001+82856480+84252424+85646550+86997645
3192+88336510+89735452+91175839+92594946+94005697+95438003+96857247+98238217
3177+99605220+101002199+102474192+103983162+105427307+106794694+108164151
3163+109575424+110999338+112409698+113789024+115107877+116414080+117802247
3150+119232453+120604148+121913653+123183667+124408036+125629914+126938303
3136+128306472+129607621+130820042+132006861+133195866+134384336+135549983
3123+136663178+137729555+138773834+139826672+140938202+142071121+143116978
3109+144096322+145107178+146139640+147101926+147981421+148854530+149717662
3096+150522955+151312044+152116960+152907338+153668434+154401045+155099002
3082+155739150+156327440+156968631+157713508+158441977+159046067+159544153
3069+160005673+160483688+160964251+161384109+161729967+162068917+162442464
3055+162771465+162958506+163032332+163098744+163186182+163216694+163176118
3042+163142057+163074343+162861105+162527353+162165609+161769371+161279076
3028+160674190+159945416+159080880+158094483+156997579+155749649+154294086
3015+152635841+150825297+148852344+146635177+144083000+141117973+137714524
3001+133875563+129551114+124646500+119016479+112487716+104941038+96435826
2988+87209290+77493596+67574012+58055094+49806317+43585330+39819551+38661756
2972+39983965+43356094+48183628+53915544+60240651+67068374+74214549+81176419
2957+87286939+91958302+94833914+95891544+95336112+93447354+90612203+87368107
2941+84361215+82175603+81063305+80847867+81128225+81634877+82459445+83873657
2926+85933215+88415282+91056426+93638261+95896924+97552366+98488440+98767901
2910+98444041+97563980+96307000+94885663+93471436+92295899+91482344+90875474
2895+90271320+89565854+88683889+87541296+86094733+84441123+82858876+81867802
2880+82116136+83939569+87160944+91405593+96377690+101827426+107553176+113367212
2864+119028686+124386082+129407749+134103629+138551806+142829523+146942602
2851+150891216+154649038+158129731+161301058+164217109+166940094+169495487
2837+171911280+174247555+176547598+178868031+181238120+183568791+185770709
2824+187854328+189846570+191727596+193497636+195186987+196816485+198424364
2810+200066099+201817966+203720525+205700096+207646128+209504620+211276558
2797+212955293+214500757+215897989+217153174+218259100+219239676+220138851
2783+220958988+221684011+222326027+222915519+223460162+223947547+224379264
2770+224750899+225045319+225264060+225431450+225601910+225815307+226032658
2756+226230922+226437860+226631085+226797577+226993538+227266989+227634425
2743+228075584+228545287+229042127+229597501+230217926+230879839+231532919
2729+232153473+232790479+233477995+234218209+235065643+236073168+237208172
2716+238383116+239494560+240465867+241290435+242007754+242691273+243428431
2702+244244948+245112380+246008399+246921882+247830934+248699612+249513029
2689+250288708+251043563+251773220+252463777+253101536+253693678+254302561
2675+254985327+255747364+256562983+257351724+258045033+258658607+259247969
2662+259852826+260439928+260955667+261428020+261909524+262416082+262933240
2648+263428415+263895322+264353454+264810341+265255874+265675427+266068856
2635+266428254+266740125+267050054+267405311+267771660+268129436+268522054
2621+268958551+269396409+269810894+270216777+270628829+271038593+271421509
2608+271756376+272047480+272321525+272604606+272898491+273205987+273528024
2594+273827179+274080313+274304108+274534216+274819702+275159086+275479037
2581+275742974+276013862+276322054+276604788+276842079+277079689+277341049
2567+277612690+277858612+278057325+278223976+278360883+278465149+278565388
2554+278659952+278731113+278804099+278901385+279056103+279319664+279674515
2540+280072752+280512666+281017283+281598014+282206549+282776593+283304843
2527+283818352+284341823+284876851+285382279+285842728+286294227+286741180
2513+287161631+287575247+288018087+288510308+289045915+289607212+290178732
2500+290741448+291326958+291969206+292625327+293265373+293890012+294495448
2486+295114293+295768850+296427549+297063135+297686470+298324142+298979944
2473+299634443+300287320+300951695+301614390+302267962+302941229+303636304
2459+304336738+305046990+305740560+306376812+306946306+307440061+307870389
2446+308305669+308772925+309215359+309604936+309951127+310270180+310577474
2432+310850621+311088057+311317529+311517719+311660592+311787419+311951609
2419+312147426+312360504+312628699+313003650+313474873+313998257+314561784
2405+315162789+315785313+316393964+316964674+317545260+318139806+318696788
2392+319188429+319622928+319982673+320226336+320354989+320422443+320480252
2378+320529605+320542464+320548691+320635492+320819116+321016178+321165307
2365+321303314+321537970+321942781+322548826+323368788+324298896+325024701
2351+325465369+325941139+326471040+326815841+327182595+327878366+328697779
2338+329365658+329772874+330018448+330324584+330822453+331409382+331936705
2324+332456643+333036187+333609098+334092311+334487565+334874767+335343731
2311+335914586+336524511+337119028+337687972+338222304+338719449+339209671
2297+339719965+340231996+340715586+341167549+341600831+342002428+342348155
2284+342644965+342925584+343220656+343524649+343803531+344043573+344249382
2270+344415947+344534230+344610518+344672904+344768567+344938723+345202689
2257+345581724+346107397+346782894+347523643+348210262+348917096+349574318
2243+350190036+350767059+351318161+351858576+352404204+352936394+353412048
2230+353845677+354292774+354778508+355285384+355780298+356223717+356620940
2216+357039770+357498394+357959625+358430269+358922055+359388702+359808198
2203+360212053+360640846+361127274+361653092+362190582+362730967+363244186
2189+363736755+364242994+364738169+365207654+365710417+366272380+366826321
2176+367324885+367813717+368330556+368867177+369425375+369976477+370491607
2162+370993067+371481204+371958973+372456726+372922069+373282105+373603504
2149+373976543+374385844+374792567+375185272+375577369+375988900+376427105
2135+376919442+377507790+378197739+378953810+379730821+380511974+381319164
2122+382144109+382945738+383724081+384471695+385172216+385849277+386504673
2108+387133627+387755167+388354376+388909851+389433149+389953464+390489650
2095+391021521+391513974+392011437+392583682+393205105+393804459+394368826
2081+394924765+395485482+396061811+396655112+397233004+397792042+398355222
2068+398894304+399418037+400029902+400692482+401307852+401907959+402526342
2054+403153702+403782338+404420357+405079055+405742590+406349417+406845026
2041+407301304+407811395+408356560+408896309+409411323+409936011+410511935
2027+411121396+411736912+412378725+413046083+413652562+414201897+414810925
2014+415418967+415965870+416546456+417135036+417635482+418072761+418527128
2000+419008719+419478697+419939319+420354934+420723195+421190305+421647655
1987+422028224+422430024+422840396+423232551+423602491+423987985+424426567
1973+424910823+425410169+425852864+426273691+426815931+427374505+427847640
1960+428301340+428735984+429124113+429490549+429803085+429990937+430045329
1946+430004463+429764623+429431899+429181082+428710641+427940205+427076682
1933+426233491+425495985+425058069+425199147+425980328+427441033+429485799
1919+431527379+433647042+435878067+437771793+439384030+440918502+442415497
1906+443763681+444925519+445978777+446983434+447927618+448791141+449719656
1892+450611909+451281729+452092337+452990007+453701504+454403386+455133101
1879+455830436+456517257+457256848+458022014+458507834+458961737+459924833
1865+460950489+461631576+462209121+462869181+463577869+464269758+464912585
1852+465533661+466174664+466889752+467308495+467747396+468795150+469655660
1838+470121670+470724210+471504291+472103992+472548599+473381479+474122576
1825+474619605+475389810+476100612+476573718+477104488+477810251+478439349
1811+478967165+479646804+480404989+481055260+481480808+481829722+482452391
1798+483272527+483868116+484030771+484394455+485374813+486091553+486267530
1784+486588089+487113357+487569056+488096119+488565082+488663729+488745404
1771+489409229+490031406+490511839+490946569+491063520+491470272+492179684
1757+492754709+493569140+494242523+494611102+495423853+496479196+497257133
1744+497772901+498137773+498681229+499585850+499640937+499391568+500355388
1730+501268814+501516676+501565565+501575297+501793328+501791416+501289609
1717+501331141+501948858+502258295+502088574+501645908+501091157+500946864
1703+500869013+499904381+499545418+499438372+498701850+498389922+497693659
1690+496588906+495569072+493826039+492216293+491821242+491195706+489784238
1676+488051574+487043441+486397399+485166513+484440651+484423302+483879701
1663+483127077+483075176+483392925+483388002+482391222+482065362+483991874
1649+484890586+484241329+484582915+485826023+486740838+487486744+488166266
1636+489451920+491994265+494305951+495771695+497487676+499673665+501770505
1622+504133803+506486790+508102561+510190944+513327546+515923588+517757563
1609+519601270+521570154+523442592+525162280+526792590+528311857+529696100
1595+531011875+532289303+533463335+534519489+535492983+536367308+537140438
1582+537928861+538622401+538737789+539133940+540522585+541093556+540732449
1568+541089443+541691288+542001652+541793295+540472306+540293375+541928261
1555+542410142+541893158+541363720+541072355+540811865+540339657+539798808
1541+538973313+538847094+539588075+538965377+537426358+536736467+536064880
1528+534803844+533697759+532514923+530901701+529887138+528844018+527249911
1514+525635125+523916305+521820565+518575701+515223791+513292385+510948377
1501+506840598+501394512+495199740+488864209+481469831+471888684+461640554
1487+453065049+446702496+441627654+437072402+432927290+428921750+424265882
1474+417849980+410131191+402635849+395239039+387208525+378763728+370350964
1460+362112614+356091444+356205384+362188554+369655802+376411900+382647857
1447+388810770+394347249+398522336+401240775+402390912+402535581+402877659
1433+402973149+402249835+401436968+401004816+400831300+401108792+401654941
1420+402381296+404138723+406559107+408808320+411068540+413633099+416415718
1406+419197614+422106626+424880992+426731186+427328860+425949686+422550711
1393+418330616+412594236+403715144+392836207+383312493+377944432+378625084
1379+385763402+397812808+412975646+430497697+449365008+467947035+484386693
1366+496495183+503544934+506933279+508225246+508328064+507940891+507344491
1352+506344931+504746885+502822372+501200346+500303893+499843502+499318756
1339+499001904+499236849+499933286+501091910+502856954+505284085+508302345
1325+511875762+515957068+520410140+525169753+530238224+535486031+540847315
1312+546423386+552092311+557647935+563024047+568194235+573135849+577737673
1298+581922840+585699749+589010358+591714720+593675379+594724234+594614117
1285+593053318+589862383+585264092+580149628+576116921+574949435+577722265
1271+584303573+593459954+603572857+613379508+622138810+629590447+635845867
1258+641041368+645226014+648445043+650711605+652217144+653230722+653530312
1244+652668151+651089626+649894626+649401855+649557210+650977193+654220899
1231+659080896+664851481+670816462+676471254+681494717+685853834+689719716
1217+693199699+696282835+698949256+701271079+703395666+705400290+707212544
1204+708797034+710271930+711733562+713086525+714253779+715289775+716258171
1190+717162328+717922193+718457076+718809321+719085509+719313619+719390949
1177+719241734+718886825+718268761+717183819+715507632+713360338+710853617
1163+707938754+704679988+701459510+698684016+696408186+694443646+692610424
1150+690702362+688413035+685550131+682185940+678430928+674298415+669838277
1136+665248733+660701243+656114248+651480681+647084434+642948793+638594890
1123+633512749+627361247+619746029+610012479+597210854+580345590+558604515
1109+531259854+497695571+458111335+414252756+368978625+325191034+285596458
1096+253109906+230561365+219708726+220740580+232430241+252325336+277154355
1082+303248552+326646988+343450446+350522411+347037765+336816600+327297027
1069+323084375+320784621+311043397+285610621+243884217+193682404+145977232
1055+108987763+86023717+77212173+82254939+101909289+137559979+189564836
1042+255489944+329478613+404009608+472572203+531370897+579421680+616939197
1028+644383779+661069359+662921581+646415454+617667434+594598535+594900037
1015+620745242+659801024+699437857+734489026+764587112+790214691+811556545
1001+828544437+841173966+849969472+855850346+859487481+860950676+860041074
988+856791460+851213303+842605881+829336046+808799355+777168389+730576283
974+670280595+609478639+571335529+573348609+613483600+674127304+736656536
961+790444945+832525822+863767645+886146595+901772198+912697273+920607621
947+926489016+930789628+933886956+936239422+938054224+939240362+939811275
934+940016446+939990148+939508151+938345067+936576779+934387779+931732248
920+928299822+923867835+918438778+912086739+904839810+896713401+887977732
907+879381779+871606339+864150532+855046979+841607769+821194633+791345626
893+749843655+696039259+632611719+565762470+504025077+458491846+444003260
880+473249554+543800872+635074880+722455492+791578023+839845737+870705716
866+888517886+896647540+898327202+897951150+900098444+906452106+914891138
853+922454629+927945318+931329087+932677127+932509722+931723849+930748733
839+929323653+927222873+924748590+922247836+919629956+916648015+913380039
825+910031373+906498562+902382326+897344208+891367757+884481935+876369428
812+866524951+855066152+843314135+833712771+829137072+830936408+837419185
798+845152050+851446453+855261535+856746799+856709785+855947082+854663571
785+852731991+850304512+847717623+845100843+842252768+838872243+835168552
771+831736473+828887066+826447828+823947884+820987029+817358757+812991994
758+808283761+804472444+802812187+803045337+803647703+803569851+802743835
744+801386875+799713469+797851052+795826618+793703942+791545816+789388617
731+787297569+785317969+783337558+781238111+778859231+776752311+774897541
717+773203802+771498827+769571649+767480601+765468273+763684693+762048938
704+760395226+758686022+756987997+755324728+753723844+752279938+751033732
690+749927878+748896980+747869442+746889808+746117836+745473938+744730639
677+743967878+743298782+742506478+741805871+742028594+742980713+743335564
663+743238887+743277929+743564543+744051812+744610444+745158360+745845761
650+746807380+747949263+749148260+750472493+752072855+753885108+755686588
636+757446708+759340637+761447441+763617499+765762071+768095768+770630236
623+773003786+775039458+777298084+780438103+784218314+787782926+790826731
609+793713732+796768774+799965676+803173178+806539338+810262028+814029379
596+817492506+820981584+824900294+829013922+832941785+836807493+840765824
582+844718710+848700095+852747805+856836468+861141598+865215432+868711055
569+872319343+876425615+880478596+884181882+887960702+892096864+896352931
555+900427576+904244743+907978323+911921304+916088224+920192875+924067098
542+927685697+931209935+935074369+939314275+943277993+946761394+950201119
528+953498984+956562889+959971161+963558712+966851190+969799360+972607815
515+975653647+978726357+981534463+984107972+986634330+988981698+990680186
501+992340212+994303419+995960316+996695621+996151817+995260462+994892636
488+994399227+993338613+992663667+993418319+995172299+996735474+997425712
474+996864879+995497956+994051096+992031585+990193497+990308884+992762835
461+996302887+999190815+1001559268+1003027908+1002569255+1001099688+998247789
447+993150819+986503187+979624664+973255073+966843196+960419793+955844846
434+954225600+955660528+961213660+971053097+983450403+996480139+1008393304
420+1018511362+1030020093+1042214892+1050340432+1055113020+1058936327
409+1062727196+1065955377+1068199175+1070487923+1072375247+1073741823
##END=
