##TITLE=37
##JCAMP-DX=4.24
##DATA TYPE=INFRARED SPECTRUM
##DATE=16/11/2015
##SAMPLING PROCEDURE=Instrument type and / or accessory
##ORIGIN=Default
##XUNITS=1/CM
##YUNITS=TRANSMITTANCE
##RESOLUTION=4
##FIRSTX=3996.3359
##LASTX=399.24785
##DELTAX=-1.9287336
##MAXY=1.1293874
##MINY=0.031338573
##XFACTOR=1
##YFACTOR=1.051824e-009
##NPOINTS=1866
##FIRSTY=0.11215167
##XYDATA=(X++(Y..Y))
3996+106625898+106712267+106742344+106751538+106784398+106867020+106980923
3983+107105585+107234079+107337647+107384979+107413731+107515181+107689675
3969+107851901+107973822+108091479+108222771+108353964+108466981+108531937
3956+108570053+108672898+108846940+108958993+108947716+108979422+109120376
3942+109202198+109222598+109308719+109463770+109654861+109817200+109897222
3929+109967151+110058542+110090849+110097749+110180980+110278116+110310515
3915+110378078+110545177+110681945+110725091+110770524+110817835+110814208
3902+110832788+110926928+111087694+111314663+111494655+111461802+111349592
3888+111416460+111534103+111583043+111705445+111786756+111767907+111835824
3875+111965742+112103275+112203775+112210370+112274589+112365378+112333765
3861+112286050+112357742+112627559+112979382+113023590+112801685+112733854
3848+112818530+112888564+112920192+112992748+113145560+113246486+113262835
3834+113342885+113473568+113568622+113611144+113588023+113617731+113716921
3821+113721342+113790753+113954006+113938125+113877292+114000247+114210959
3807+114290946+114281794+114353366+114358445+114314343+114412286+114507368
3794+114503918+114502962+114555819+114660463+114741909+114743425+114733253
3780+114740244+114742979+114772233+114832578+114900154+114923374+114896060
3767+114906678+114977867+115105278+115233992+115242166+115212366+115321614
3753+115487354+115443344+115264883+115362592+115540069+115351294+115133980
3740+115214895+115347271+115399724+115496067+115628400+115730431+115773456
3726+115702274+115597700+115590100+115587514+115475744+115363931+115419650
3713+115534091+115497830+115386591+115326367+115313596+115223940+114941840
3699+114604950+114360201+114166454+113973089+113731301+113338777+112914582
3686+112736305+112731198+112675536+112614596+112613314+112457230+112234589
3672+112273420+112285080+112056977+111879926+111773312+111588079+111399148
3659+111273792+111056747+110743401+110542549+110340698+109936104+109521649
3645+109282227+109071217+108735913+108319107+107883012+107429995+107055484
3632+106808397+106392760+105709982+105204066+104929609+104606389+104157424
3618+103640379+103127577+102607366+102088139+101608998+101035866+100347904
3605+99716213+99131336+98513359+97930905+97375956+96719331+95998905+95362050
3589+94727136+93931462+93124313+92477315+91861724+91184359+90514523+89862169
3574+89190209+88516647+87815984+86998040+86137403+85405686+84737543+84012888
3559+83272714+82564514+81839583+81040502+80202653+79339799+78394048+77454551
3543+76665889+75966006+75226893+74437063+73660012+72936809+72228985+71466568
3528+70610543+69682769+68811132+68101487+67456387+66730308+65938112+65164171
3512+64442888+63726188+62940544+62104898+61277186+60505036+59810691+59132497
3497+58423989+57712952+57020708+56332338+55626094+54925554+54269238+53595655
3481+52847894+52128495+51501982+50884472+50231084+49548912+48826301+48128177
3466+47536380+46968455+46327017+45693137+45143433+44607653+44048224+43516169
3451+42988899+42394718+41769346+41207799+40705208+40190437+39630183+39069043
3435+38598204+38206320+37798804+37382072+37036684+36737411+36369130+35924407
3420+35515594+35181661+34824097+34421688+34090124+33834095+33568904+33265929
3404+32863410+32372467+32004374+31855603+31750991+31548495+31302939+31158393
3389+31114058+31025124+30835202+30619722+30454482+30355639+30301334+30244921
3373+30135003+29958660+29798973+29794503+29957700+30148331+30251523+30295217
3358+30351517+30409941+30445447+30494469+30613135+30790356+30946190+31053529
3342+31158786+31298717+31508976+31803281+32111026+32375177+32601398+32794484
3327+32971401+33181030+33495547+33917032+34332649+34670453+34972925+35279920
3312+35542522+35727720+35954675+36364908+36911190+37444810+37899053+38275402
3296+38622914+39037405+39560885+40131353+40671271+41197503+41753192+42301946
3281+42828051+43359447+43866497+44337860+44833634+45424389+46145247+46919947
3265+47640681+48321811+49027915+49751528+50458832+51176141+51929891+52684531
3250+53404333+54127642+54945647+55851178+56756019+57656061+58549264+59372199
3234+60186123+61143726+62223036+63288952+64310122+65325030+66343656+67354533
3219+68379443+69445869+70541273+71645525+72763136+73913962+75082900+76255132
3204+77445370+78628419+79790252+80968328+82165820+83366230+84573922+85782124
3188+86988526+88199172+89412205+90632874+91859132+93089214+94318631+95506737
3173+96645422+97813985+99061387+100327872+101544453+102726106+103926793
3159+105129795+106254228+107278670+108298430+109427743+110638070+111807851
3146+112907428+113966005+114976380+115977035+117053626+118176359+119231210
3132+120203787+121166589+122137423+123087871+124022622+124939877+125827168
3119+126699401+127576988+128481209+129385218+130215941+130994614+131793773
3105+132597692+133385135+134176743+134948191+135660152+136326014+136968203
3092+137582752+138192669+138823255+139446942+140045510+140615844+141147205
3078+141684190+142255445+142790418+143254060+143682399+144084571+144472675
3065+144858952+145221442+145561577+145895195+146206996+146463262+146640165
3051+146754521+146858974+146963045+147029020+147064537+147098155+147107066
3038+147034050+146868211+146672367+146466053+146188834+145810972+145363211
3024+144841271+144190781+143422562+142578395+141628868+140533733+139300384
3011+137940312+136404655+134595759+132456844+129981279+127117865+123760250
2997+119833646+115260548+109906473+103666156+96479066+88318494+79335237
2984+69988528+60994080+53157120+47190285+43607064+42658334+44183759+47647031
2968+52437388+58043939+64128027+70575168+77284972+83830489+89471473+93596782
2953+96039777+96924788+96421548+94736253+92190688+89250680+86501183+84492731
2937+83452188+83160667+83261005+83609711+84312853+85541186+87302127+89447842
2922+91798228+94120166+96147786+97663510+98552566+98835268+98586411+97863824
2907+96782693+95540986+94322896+93251115+92396634+91765892+91246708+90629446
2891+89789174+88729442+87461682+86052593+84716463+83844620+83985702+85513773
2876+88299793+91956799+96201316+100854281+105743296+110641272+115335321
2862+119745797+123839840+127604557+131144543+134579864+137894964+141018073
2849+143925164+146605244+149055988+151304032+153397400+155381570+157271090
2835+159096943+160918604+162752561+164572932+166371500+168130698+169795827
2822+171366108+172878801+174296079+175576235+176787483+178023480+179329491
2808+180755737+182296126+183858275+185394230+186882641+188282522+189589581
2795+190807346+191942333+192997928+193928854+194734473+195481667+196181799
2781+196793090+197318514+197816243+198299960+198726797+199083195+199378449
2768+199635806+199885995+200121620+200326956+200502811+200642370+200749585
2754+200878590+201082948+201328249+201571921+201834180+202121770+202444153
2741+202829169+203266390+203728191+204196282+204667079+205149776+205648113
2727+206173481+206759767+207426593+208158218+208959544+209836678+210734949
2714+211583976+212340676+212996494+213579861+214152490+214782708+215484639
2700+216214621+216927970+217633301+218371868+219127251+219840657+220508970
2687+221167494+221793603+222353567+222883440+223419022+223983123+224594739
2673+225216882+225830623+226446065+227023256+227549360+228051976+228522532
2660+228981231+229471819+229955026+230370515+230755233+231175822+231618299
2646+232051610+232489752+232914124+233284873+233629443+233971447+234271589
2633+234552917+234874819+235206283+235520889+235851476+236212903+236611987
2619+237030550+237414135+237762799+238118361+238484407+238832320+239142067
2606+239421156+239685200+239951624+240230118+240498894+240745371+240998025
2592+241294030+241627350+241949451+242239477+242526358+242827916+243112247
2579+243350479+243573042+243822806+244106287+244392120+244638852+244858383
2565+245081655+245284469+245456598+245639324+245827744+245960035+246042034
2552+246151290+246299448+246453103+246622766+246843431+247147624+247533703
2538+247961630+248409590+248890134+249399748+249902534+250369307+250814434
2525+251270978+251718683+252144089+252575870+252991982+253376332+253757226
2511+254140640+254542897+254980629+255428532+255893265+256403616+256933404
2498+257475517+258034178+258560113+259064683+259606655+260180814+260757892
2484+261317997+261858694+262405454+262974541+263568619+264175589+264752836
2471+265284636+265806774+266353222+266949652+267589007+268224000+268834256
2457+269422355+269985323+270509699+270985312+271452993+271924668+272340610
2444+272699403+273058507+273421890+273758101+274092838+274445482+274756532
2430+275003038+275226224+275428500+275589550+275727055+275877083+276075364
2417+276341590+276660687+277023390+277432673+277878961+278369790+278904395
2403+279433532+279937819+280447547+280944099+281402627+281826787+282209720
2390+282494363+282622064+282626569+282628241+282744495+282980573+283300548
2376+283710937+284105969+284247525+284209586+284343606+284659784+285074027
2363+285437721+285958952+287367235+289453293+290618583+288985074+285407036
2349+283826568+286329305+290362558+292277309+291975921+291365579+291292393
2336+291830001+292590257+293261205+293756851+293937480+293938670+294317438
2322+295218542+295967975+296128345+296166851+296578940+297232633+297824359
2309+298294334+298736853+299219550+299760927+300318652+300847392+301352983
2295+301827917+302251764+302672665+303120285+303532714+303860452+304160480
2282+304512841+304924137+305323334+305636906+305877517+306103084+306313322
2268+306471284+306579661+306664209+306763548+306935054+307208221+307567326
2255+308024267+308611658+309269487+309906123+310566955+311179762+311738932
2241+312276427+312808369+313311778+313789942+314271080+314741509+315184595
2228+315610483+316032007+316480306+316969294+317437937+317860680+318306032
2214+318785075+319223599+319602367+319982325+320392913+320834157+321318214
2201+321823267+322310809+322765285+323212622+323703082+324221849+324712961
2187+325180698+325653846+326136600+326634286+327147583+327657793+328152192
2174+328654808+329178674+329678428+330136956+330596646+331061040+331491489
2160+331902869+332353577+332850583+333335774+333763928+334154058+334541411
2147+334922475+335268744+335598976+335975789+336397370+336844763+337355425
2133+337928650+338525476+339153923+339848671+340602949+341362100+342096799
2120+342825180+343542482+344214649+344849244+345464771+346045616+346605495
2106+347167159+347703776+348193726+348660330+349150960+349674373+350214503
2093+350734629+351227668+351735526+352279793+352820688+353339199+353862102
2079+354391805+354912271+355433219+355970176+356510249+357039045+357562005
2066+358086325+358631385+359201634+359777833+360353154+360911842+361448969
2052+362002303+362603096+363216780+363781533+364304634+364813200+365295160
2039+365770406+366274665+366791221+367282872+367765200+368284590+368851325
2025+369435656+369999757+370532747+371064292+371631849+372229922+372802806
2012+373324575+373848697+374378938+374858065+375316990+375809491+376304258
1998+376752671+377159688+377555825+377960094+378399157+378850205+379266459
1985+379674524+380098088+380499637+380864862+381231956+381647105+382115947
1971+382607002+383087065+383541768+384001996+384489425+384975635+385458219
1958+385952335+386437667+386876418+387226342+387463157+387593862+387635881
1944+387587657+387470496+387323811+387066964+386616227+386036288+385430197
1931+384908002+384607719+384703969+385347943+386553581+388190433+390034321
1917+391894218+393673391+395263464+396644546+397948615+399227015+400410382
1904+401459163+402407245+403297583+404156073+404982886+405763287+406512635
1890+407244048+407992036+408754190+409465656+410146605+410824495+411483628
1877+412145735+412790417+413357380+413879659+414511166+415359428+416283625
1863+417051673+417676295+418308935+418992945+419670438+420273242+420787900
1850+421245805+421755306+422389675+423107430+423919368+424727112+425373919
1836+425902914+426440324+427040805+427688973+428375277+429055717+429716210
1823+430453204+431191246+431788753+432321629+432898820+433512618+434128995
1809+434743671+435338599+435890233+436424554+436999932+437600895+438136605
1796+438609838+439091175+439652924+440356173+441048626+441549343+441969281
1782+442458410+442951392+443350419+443679546+444035930+444483777+445049521
1769+445637592+446124057+446556802+446963790+447385569+447937600+448564970
1755+449198007+449815489+450410785+451136870+452004626+452770577+453380437
1742+453932694+454397286+454811471+455248806+455716259+456356295+457083174
1728+457631124+457937216+458010516+457955774+457964331+458106539+458416966
1715+458850900+459193968+459290445+459159287+458833220+458455925+458234949
1701+458034061+457868534+457942202+457945999+457686262+457120830+456184761
1688+455239909+454454662+453685877+453066299+452476074+451690261+450730335
1674+449829429+449182735+448662439+448231479+448022177+447868862+447628760
1661+447389225+447085145+446758483+446711987+447026408+447474141+447785730
1647+447974575+448388081+449034605+449552691+450025953+450921844+452412436
1634+454143810+455702262+457077932+458545857+460298878+462225162+464082508
1620+465856553+467821286+470137444+472561243+474760722+476683719+478473574
1607+480224385+481938249+483582071+485111084+486525911+487869847+489163858
1593+490383464+491520789+492611703+493673149+494642566+495398969+495918331
1580+496420465+497135330+497948174+498632439+499128793+499507958+499910867
1566+500154255+499973995+499623901+499550799+500035706+500873711+501402082
1553+501443903+501268459+500992090+500549231+500004312+499758147+500016212
1539+500369593+500449325+500131702+499528132+498945359+498349326+497502765
1526+496577605+495785614+494979910+494171430+493379779+492412685+491180838
1512+489613178+487818676+486057438+484358478+482590270+480363901+477300832
1499+473356322+468621663+463231952+456967543+449301766+441029982+434036428
1485+428979130+425110612+421593888+418200189+414913112+411266476+406308489
1472+399829904+393080220+386764612+380202074+372799066+364927244+357605696
1458+352865087+353221160+358207367+364708223+370769874+376301623+381609251
1445+386352523+389928324+392129163+393231835+393664948+393812539+393782420
1431+393452982+392968755+392666460+392679068+393028879+393807893+395154548
1418+397197171+399765728+402492700+405248998+408084178+410990050+413870082
1404+416536533+418708500+420133839+420680430+420096269+417975019+414145630
1391+408407071+400366634+390862211+382499192+377805617+378321182+384329593
1377+394635839+407824554+423010868+439230493+455279265+469387671+479709444
1364+485848843+488777893+489811289+489928251+489657435+489159778+488338207
1350+487073946+485537623+484191647+483344916+482845218+482434886+482245389
1337+482499431+483150318+484154303+485645632+487755548+490440076+493545759
1323+496978644+500749495+504852647+509197884+513716695+518409873+523264498
1310+528190071+533086913+537860333+542444312+546830237+550953789+554721240
1296+558088786+561027186+563479206+565348113+566489971+566667171+565587025
1283+563099248+559440315+555364251+552151578+551307737+553853938+559760942
1269+567973763+577043686+585832989+593778450+600719813+606614237+611491359
1256+615496079+618764116+621280171+622990691+623976712+624350324+624163773
1242+623528413+622749342+622290729+622696641+624457766+627730563+632191006
1229+637182257+642106867+646639165+650610111+653973633+656862506+659451435
1215+661757931+663751338+665485092+667042779+668498973+669833729+671016898
1202+672155866+673354732+674500216+675504428+676389070+677255239+678126621
1188+678875771+679407599+679807844+680190806+680544244+680744451+680719404
1175+680512736+680111358+679387482+678218367+676598685+674626642+672356810
1161+669845856+667349975+665199202+663505739+662124516+660813958+659392047
1148+657704250+655602835+653078054+650212925+647064287+643686484+640206849
1134+636735318+633210688+629618114+626155819+622888405+619505672+615552010
1121+610702089+604651828+596804232+586259471+572097372+553521128+529776545
1107+500171256+464626180+424449128+382160346+340509985+302242896+270515111
1094+248495442+238249519+240079807+252654667+273428974+299107263+326012667
1080+350277263+368095971+376354239+374259624+365546879+357641822+355186855
1067+353991758+343679505+316363599+272425130+219770545+169025129+128745905
1053+103258905+93473281+99184675+120816962+159167736+213586336+280490444
1040+353408730+424662879+488116182+541092726+583915517+617745454+642661192
1026+657052230+657988043+643726095+619519443+600325348+601351660+624352590
1013+658231092+691821834+720822703+745137138+765392282+782055192+795304598
999+805135570+811978161+816739284+820004035+821726965+821669277+819810457
986+816146651+810067887+800042374+783639229+757493798+718185323+666647917
972+614385785+581823905+584562325+620810450+674388467+728252657+773281529
959+807558009+832342108+849628081+861423332+869594899+875556927+880032217
945+883323035+885733120+887661132+889276110+890436952+891151874+891645621
932+891946755+891837839+891177375+890072407+888711131+887052179+884797420
918+881723244+877855547+873280182+867988477+861991881+855528625+849106113
905+843185962+837427711+830208562+819157700+801930831+776300794+740088652
891+692222532+634740325+573288531+515829501+473066211+459514170+487021529
878+552390490+635756380+714469213+775850058+818150485+845034185+860665853
864+868056535+869909179+869823044+871673930+876963538+883897704+890025656
851+894450399+897182641+898337476+898396354+897981772+897352305+896350813
837+894800776+892942579+891084609+889115287+886766233+884088165+881371336
824+878610533+875373663+871326216+866514999+860947775+854261984+846024286
810+836337874+826302841+818122717+814338889+816091287+821992851+829066477
797+834887686+838607990+840339080+840622250+840197751+839357082+837928032
783+836028467+834027014+832028904+829803103+827067574+824030685+821257132
770+819023057+817135109+815151393+812781032+809891253+806314999+802366664
756+799247550+798061434+798485083+799132571+799142317+798574335+797607354
743+796332497+794871599+793264101+791560607+789850540+788116899+786388925
729+784772134+783161916+781398524+779319380+778137911+776646185+774530489
716+772822236+771552082+770175732+768645189+767088862+765506468+763935861
702+762503806+761197102+759937148+758781916+757739227+756662537+755542043
689+754550921+753770038+753173948+752797617+752603586+752378671+751353549
675+747873404+743845677+748152493+760397801+761552579+750234018+745384663
662+749047903+752492517+753414957+753731277+754333883+755444064+756988717
648+758343873+759291984+760398651+762036353+763951558+765798931+767524978
635+769364305+771479604+773806387+776238743+778640272+781134792+783590608
621+785723701+787699030+790294816+793653296+797011265+799952725+802677090
608+805562449+808735341+811909310+815064238+818392343+821741699+825119898
594+828857712+832858919+836605970+840060614+843616071+847324474+851074359
581+854957809+858911245+862708447+866414867+870118567+873806910+877647632
567+881573074+885184065+888490977+892012773+895914640+899926954+903945444
554+907959797+911903712+915593245+919047096+922608730+926332830+929881884
540+933188795+936799220+940875964+944672260+947855635+951095735+954720100
527+958171401+961114165+963866637+966700259+969617522+972687448+975893377
513+978778453+981195792+983547282+985847885+987756800+989399715+991302170
500+993521851+995328537+996028158+995868695+995731559+995884335+995761253
486+995178707+994865107+995670584+997534278+999199294+999590642+999005716
473+998117617+996993213+995409005+994035375+994557967+997393061+1001072167
459+1004317991+1006454937+1006994869+1006218858+1004473941+1001470769+997105982
446+991870662+986309615+980562245+974593642+969294855+966028517+964782617
432+965241514+968685221+976079361+986353023+997878818+1009514323+1021216582
419+1033335804+1044135344+1051642366+1055845650+1058318183+1061373036
407+1065283574+1068391581+1070483306+1072133362+1073741823
##END=
