##TITLE=37
##JCAMP-DX=4.24
##DATA TYPE=INFRARED SPECTRUM
##DATE=16/11/2015
##SAMPLING PROCEDURE=Instrument type and / or accessory
##ORIGIN=Default
##XUNITS=1/CM
##YUNITS=TRANSMITTANCE
##RESOLUTION=4
##FIRSTX=3996.3359
##LASTX=399.24785
##DELTAX=-1.9287336
##MAXY=1.0711331
##MINY=0.024753949
##XFACTOR=1
##YFACTOR=9.9757047e-010
##NPOINTS=1866
##FIRSTY=0.12886211
##XYDATA=(X++(Y..Y))
3996+129175949+129294478+129453965+129559693+129620981+129705452+129847851
3983+130031432+130189381+130295004+130386107+130500543+130639760+130788268
3969+130982470+131221544+131403049+131498858+131565075+131618656+131674343
3956+131781235+131965638+132170311+132288108+132325063+132420484+132576072
3942+132679260+132766390+132884590+133009437+133161411+133283928+133303571
3929+133336015+133460324+133583842+133707913+133890374+134035700+134084008
3915+134146999+134287023+134407508+134466795+134559766+134686122+134777285
3902+134862324+134905403+134878441+134946929+135137516+135212144+135166898
3888+135241033+135324190+135310806+135420432+135558558+135589822+135667617
3875+135759960+135811330+135817559+135754164+135811196+135971728+135997779
3861+135921165+135924616+136170023+136540068+136545132+136219854+136135488
3848+136326015+136525265+136650292+136780263+136911862+136895774+136812826
3834+136880075+136998081+137045253+137102807+137212015+137420108+137602032
3821+137512825+137443979+137584032+137635820+137653103+137819551+137978530
3807+137910834+137797010+137869771+137868605+137774186+137852921+137977500
3794+138056354+138163127+138248136+138284046+138298192+138307841+138358464
3780+138409819+138389624+138360645+138398736+138499115+138577522+138569172
3767+138503298+138426938+138459277+138600391+138655839+138677678+138899678
3753+139208405+139177604+138850997+138822810+138978354+138778072+138537893
3740+138655391+138873971+138939860+138874494+138742133+138641395+138634762
3726+138658125+138665041+138633702+138515248+138368054+138312801+138354371
3713+138282985+137939693+137528629+137267283+137119418+136865989+136370872
3699+135771746+135158250+134525365+133958698+133435454+132757980+131992511
3686+131505565+131349662+131269135+131161032+131026535+130708741+130362849
3672+130333333+130272538+129900013+129559259+129349254+129095541+128833389
3659+128655544+128405789+128062243+127872089+127690226+127189059+126546106
3645+126078534+125739589+125344777+124859466+124370638+123930618+123563739
3632+123248485+122674834+121706290+120875177+120407493+119986757+119334118
3618+118473601+117680348+117000910+116289932+115521161+114636229+113668977
3605+112825123+112079415+111236204+110331181+109486162+108616518+107658677
3591+106714473+105730139+104550394+103344979+102361624+101518756+100620500
3578+99595246+98488059+97414042+96483267+95643909+94669180+93487770+92297972
3562+91195244+90134625+89111238+88104543+87034820+85880290+84754349+83699399
3547+82606411+81475601+80416872+79429909+78426508+77377615+76372370+75471014
3532+74552025+73486118+72317195+71166645+70123877+69198068+68291933+67320841
3516+66312944+65322397+64365429+63442563+62559708+61675190+60682003+59634312
3501+58719640+57921300+57115906+56321439+55569010+54781324+53926794+53070314
3485+52241155+51402947+50560568+49780867+49047023+48271979+47436512+46567216
3470+45707379+44954632+44345516+43742880+43025684+42263004+41590684+41024958
3454+40444728+39761306+39048173+38421651+37905648+37444712+36925819+36296000
3439+35604661+34914300+34328838+33886144+33489107+33087215+32692474+32306804
3424+31957372+31629312+31227675+30738687+30253024+29858957+29552653+29245188
3408+28930852+28622061+28215844+27712169+27337743+27206532+27091947+26780759
3393+26411464+26252919+26263857+26208284+26039542+25824989+25613428+25465296
3377+25393887+25338876+25199553+24968758+24814236+24832586+24914356+24961707
3362+24988345+25041942+25147537+25271682+25339819+25336822+25367160+25492734
3346+25619325+25686560+25755164+25856427+25987965+26200683+26508764+26821403
3331+27052637+27197988+27328506+27574748+27972218+28379921+28704626+28978898
3315+29227104+29451194+29647476+29810576+29996547+30356702+30954156+31603459
3300+32103699+32457317+32767176+33116343+33543416+34058929+34628651+35169996
3285+35670068+36196270+36749445+37259514+37723486+38222236+38790001+39415668
3269+40101383+40798383+41457039+42134142+42889593+43651231+44334862+45001827
3254+45746978+46559799+47362863+48150616+49016965+49960635+50867649+51734629
3238+52651184+53600485+54540899+55554625+56673922+57817123+58944377+60056321
3223+61160162+62285187+63454439+64666105+65904382+67146178+68381311+69637013
3207+70929102+72231409+73523260+74811406+76111002+77438747+78824711+80278894
3192+81746992+83173989+84585668+86020851+87457102+88877295+90312635+91784624
3177+93283186+94799577+96300380+97745451+99178274+100653542+102162038+103690079
3161+105186834+106589752+107939187+109302147+110708620+112198751+113748736
3148+115245633+116647475+118011757+119354119+120677488+122037804+123441969
3134+124838360+126203591+127547692+128867312+130140595+131360253+132538833
3121+133708047+134898204+136127481+137394058+138630386+139770083+140858127
3107+141969250+143096744+144206820+145272249+146267621+147228742+148216182
3094+149210419+150140021+150993039+151807773+152613544+153432744+154254916
3080+155061852+155869371+156666224+157406838+158079710+158695312+159263219
3067+159822044+160388532+160927894+161409701+161831132+162216697+162558197
3053+162823307+163036853+163218328+163329926+163364133+163376068+163387943
3040+163343489+163171320+162866462+162475459+162002435+161426715+160744118
3026+159932910+158975703+157869779+156604129+155181605+153607198+151833809
3013+149810277+147550898+145063229+142285296+139125323+135496837+131346077
2999+126664441+121427019+115480330+108559711+100501523+91504390+81934375
2986+72039291+62126663+52759115+44686654+38620032+34980593+33837052+34984454
2970+38014423+42398221+47677046+53627044+60195890+67196465+74117091+80283913
2955+85065369+88065250+89250097+88794519+86948698+84077720+80729453+77621716
2939+75382188+74239182+73996292+74264703+74783204+75603681+76963206+78973540
2924+81461597+84106512+86639217+88870491+90614961+91675319+91969818+91592297
2909+90684585+89406372+87949515+86480895+85251371+84492623+84026634+83449637
2893+82639803+81684576+80524765+79029892+77291113+75642907+74629528+74870125
2878+76660648+79824848+83996976+88903779+94347435+100114852+106002965+111816247
2862+117368715+122563334+127437424+132098253+136626810+141026069+145264900
2849+149323271+153137684+156646984+159866498+162829193+165570693+168170452
2835+170741920+173356168+175986220+178584201+181138864+183616913+185980376
2822+188209940+190283841+192241230+194135613+195963180+197765458+199653104
2808+201682387+203824044+206028723+208236463+210399018+212488215+214431965
2795+216175271+217764526+219226081+220513659+221660288+222746749+223758926
2781+224654381+225430755+226113740+226728566+227257277+227700979+228100601
2768+228454887+228761045+229036835+229253354+229415679+229603786+229843174
2754+230090553+230327745+230586566+230894651+231245472+231632113+232040488
2741+232460305+232965042+233625083+234377109+235140457+235886912+236581832
2727+237253046+238006327+238893462+239911061+241084772+242395772+243736976
2714+244994799+246075852+246954100+247724604+248520576+249389861+250321420
2700+251334075+252419251+253499139+254521070+255497979+256454603+257388463
2687+258276763+259089361+259817143+260486431+261142902+261848129+262631957
2673+263468036+264350272+265274213+266156001+266911328+267556028+268156155
2660+268747171+269349538+269975029+270583133+271136804+271665620+272236171
2646+272853058+273432213+273942715+274422596+274870809+275268444+275640147
2633+276030134+276431653+276816890+277195256+277605349+278068828+278548499
2619+279002448+279442536+279889375+280322591+280736059+281149946+281543638
2606+281885825+282170055+282429966+282705054+282981845+283266284+283598344
2592+283950091+284250812+284511620+284787485+285089221+285420683+285776643
2579+286115096+286401148+286668259+286947679+287210728+287458421+287692461
2565+287882614+288045074+288207803+288345197+288436555+288502011+288539832
2552+288557130+288603107+288715676+288904097+289159050+289478024+289884084
2538+290404982+291005797+291599441+292149468+292694834+293285073+293912087
2525+294530796+295099017+295597779+296076135+296573762+297052447+297498928
2511+297954490+298441720+298968415+299534932+300115462+300694258+301304841
2498+301973442+302671797+303378040+304072303+304744249+305446489+306186281
2484+306907133+307597362+308266650+308925601+309615352+310356579+311116626
2471+311868219+312599019+313312641+314042365+314800979+315562102+316311036
2457+317068783+317824468+318515654+319109836+319644507+320158774+320646273
2444+321106884+321558742+322019771+322471301+322861766+323179784+323423384
2430+323610700+323788395+323951841+324091895+324216413+324329788+324480716
2417+324715055+325028682+325433606+325939657+326511881+327130023+327772035
2403+328392626+328992305+329592104+330189900+330773178+331355619+331949622
2390+332512674+332973405+333305584+333532125+333670954+333734707+333735902
2376+333650251+333448864+333191193+333019562+332987566+333010778+333050213
2363+333197078+333598806+334317029+335274191+336288713+337083206+337690324
2349+338402302+339078162+339378047+339612834+340246361+341023646+341675307
2336+342274777+342926170+343576367+344123735+344567258+344988494+345484089
2322+346098645+346804649+347505664+348120250+348653697+349173341+349741143
2309+350350770+350973334+351578002+352125609+352645103+353188946+353726037
2295+354218376+354702648+355203202+355684247+356109188+356475245+356789201
2282+357066201+357335045+357595733+357821558+358008844+358168107+358293611
2268+358367163+358389510+358394529+358424553+358517822+358729994+359114723
2255+359673414+360370574+361149294+361927236+362731737+363429167+364071776
2241+364717104+365332945+365871440+366361807+366856267+367354401+367843244
2228+368327068+368820960+369334719+369838439+370296750+370729369+371160553
2214+371583433+371997230+372403738+372819895+373268825+373745778+374233934
2201+374735922+375252549+375772999+376309433+376845060+377346600+377828662
2187+378309200+378803032+379327366+379883547+380461716+381036061+381579277
2174+382089749+382587256+383095219+383636313+384193869+384732214+385242806
2160+385707062+386145028+386617351+387100786+387539231+387954223+388367363
2147+388744952+389075040+389397569+389759474+390174107+390643890+391189167
2133+391803276+392465662+393191562+393995556+394864916+395769080+396662160
2120+397509143+398309821+399074768+399820236+400557041+401261700+401921547
2106+402556120+403169541+403741556+404279992+404836083+405405051+405957677
2093+406524404+407140663+407767319+408370344+408967275+409575767+410183811
2079+410776110+411371906+411991332+412612371+413199891+413749709+414290773
2066+414856156+415484724+416177284+416853741+417478993+418115866+418798120
2052+419489544+420159639+420812375+421466098+422120239+422731181+423275233
2039+423793293+424319062+424844681+425376633+425947991+426561980+427197987
2025+427838415+428468447+429106545+429776759+430454053+431109956+431730637
2012+432313048+432891128+433456182+433977887+434513126+435097210+435649089
1998+436097930+436513460+436976879+437438566+437863268+438273450+438665110
1985+439039652+439406307+439770243+440142872+440538625+440964612+441404310
1971+441856109+442344444+442851062+443333632+443809061+444319354+444835652
1958+445282342+445656435+445998264+446275443+446407789+446361334+446186685
1944+445915122+445507180+444971822+444298203+443413248+442350090+441239341
1931+440239876+439589051+439598552+440440217+442024274+444159613+446602693
1917+449058978+451375807+453525216+455457884+457166459+458713949+460154099
1904+461475645+462656869+463724688+464747575+465757376+466731418+467659034
1890+468503119+469285244+470082426+470877576+471662151+472436300+473158764
1877+473842392+474543675+475280600+476007874+476707126+477462185+478278606
1863+479021774+479690912+480417619+481212023+481954355+482584237+483146961
1850+483677658+484271392+484958157+485599720+486252726+486994072+487692248
1836+488303638+488918613+489572455+490206251+490850593+491547903+492219073
1823+492882624+493572406+494230909+494863211+495517113+496176781+496780373
1809+497333567+497883116+498425973+498950815+499469473+499992792+500525760
1796+501082330+501613744+502073220+502572490+503124220+503578736+503958207
1782+504376934+504780723+505100026+505402121+505723396+506019516+506361643
1769+506763760+507117598+507477531+507865486+508267244+508782885+509371241
1755+510007159+510750566+511518530+512269645+513027153+513714873+514300780
1742+514791146+515170797+515598844+516124165+516505667+516806567+517165305
1728+517438063+517565330+517542207+517468954+517485385+517456645+517277695
1715+517105675+516978647+516778545+516433728+515875964+515244289+514787621
1701+514246168+513497862+512825557+511986968+510946485+509842309+508539823
1688+507252991+505939332+504253849+502571116+501160901+499771150+498178280
1674+496564796+495298877+494237182+493227082+492522094+492035103+491515638
1661+491077015+490865023+490925251+491136287+491227525+491419800+491940250
1647+492519913+493132408+493930785+494841880+495977127+497583739+499588405
1634+501697454+503788279+505912265+508177679+510669485+513265017+515715297
1620+518030243+520488410+523198423+525933351+528470447+530805768+533034197
1607+535187520+537241241+539155445+540886577+542439056+543866539+545227281
1593+546536638+547778777+548930992+549975538+550890009+551628696+552208150
1580+552791009+553460147+554057346+554552015+554984843+555230235+555339757
1566+555375726+555280126+555224320+555267639+555294406+555392336+555406437
1553+555175325+554813660+554381190+553881503+553340707+552890970+552514547
1539+551976141+551418616+550794589+549813736+548682971+547626534+546442891
1526+545152295+543897429+542453097+540836865+539203066+537383864+535344722
1512+533165228+530882726+528203664+524742895+521069656+517539638+513424250
1499+508002851+501167622+493466081+484964639+474779956+463494532+453512490
1485+446011529+440214214+435047618+430241373+425756284+420789402+413953306
1472+405127274+396196111+388132068+379928151+370767638+361241577+352537673
1458+346649031+346359692+351625353+359220689+366735931+373696992+380182864
1445+385778463+389962145+392639683+394096234+394622869+394571335+394247999
1431+393603119+392715685+391981957+391655455+391770563+392320769+393255435
1418+394619254+396451960+398582011+400906039+403461419+406286808+409358935
1404+412537326+415527654+417807318+418497339+416728536+412845037+408107027
1391+402173034+393301502+381895562+371464441+365573827+366213657+373579913
1377+386131585+402175394+420661477+440511798+460378967+478071931+491248377
1364+499268923+503042781+504197087+504250922+503941179+503289249+502082601
1350+500265819+498154081+496361408+495311155+494836593+494467757+494124554
1337+494118310+494677539+495875343+497758328+500333545+503535717+507324751
1323+511652907+516416760+521529491+526912411+532506427+538321936+544343282
1310+550418225+556400256+562241636+567884528+573227535+578173146+582664838
1296+586679547+590176644+593039496+595129186+596274171+596147561+594364269
1283+590739188+585580270+579889638+575340587+573814517+576541797+583427425
1269+593107013+603825472+614239564+623592680+631626699+638366657+643902656
1256+648332746+651712792+654077690+655731385+656993122+657418660+656284549
1242+654234772+652820076+652287107+652260758+653473022+656785192+662105853
1229+668644454+675461011+681913452+687718565+692848265+697410103+701500694
1215+705112750+708250332+711022723+713548407+715873810+717916775+719651432
1202+721237431+722788058+724237409+725521432+726664984+727732533+728712908
1188+729489118+730022564+730414643+730764717+731046079+731086828+730828530
1175+730370786+729653550+728441764+726596152+724182080+721291683+717938106
1161+714269766+710704017+707616685+705038720+702810112+700742529+698551563
1148+695893713+692600482+688744947+684424797+679683829+674618539+669454542
1134+664367264+659272876+654142936+649230666+644625210+639922303+634516319
1121+627912113+619627324+608963776+594963798+576624491+553099497+523666682
1107+487813092+445961697+400159645+353489249+308926228+269114572+236742708
1094+214288058+203232895+203752972+214729176+233766944+257672753+282902079
1080+305615670+321963427+328742342+325055062+314748429+305217408+300934422
1067+298721857+289627488+265367662+225158400+176911057+131593994+96955514
1053+75639904+67421049+71913772+89865841+122833477+171559297+234275131
1040+305944772+379644369+448914234+509428541+559483466+598727976+627607150
1026+645684455+648303588+631098092+600510014+575706793+575431347+602147697
1013+643209976+685486730+723389320+756311883+784654503+808534948+827776597
999+842318685+852659286+859720040+864232286+866340857+865912331+862927171
986+857251895+848149908+833932082+811627957+776969184+726043645+660692292
972+595276349+554075331+555065445+596261146+659811819+726432796+784640761
959+830774544+865302345+890155158+907652472+920024387+929021393+935679135
945+940505187+943943729+946526115+948538071+949949301+950762317+951121533
932+951082994+950484959+949176916+947236003+944832208+941876684+938017026
918+933017281+926899737+919783296+911651765+902434162+892502191+882781016
905+873988294+865667775+855825129+841456734+819544508+787365471+742731169
891+685456497+618757905+549187259+485473021+438609961+423203951+452124442
878+523571381+617367407+708501520+781572130+833127551+866454202+885995855
864+895060618+897002128+896677268+899135256+906189318+915560717+924052241
851+930185021+933860411+935381282+935368854+934648869+933633780+932075146
837+929726441+926862394+923913980+920948955+917665165+913956794+910072757
824+906042394+901493641+896064295+889642326+882161172+873283545+862552838
810+850128582+837329038+826709466+821337301+822750981+829377354+837599406
797+844386447+848497831+850021571+849860366+848978458+847562089+845390721
783+842649400+839703077+836718096+833551476+829832230+825717738+821883952
770+818690265+815943387+813155042+809917559+806001377+801249833+796037499
756+791775426+789826208+789863790+790306297+790119878+789259720+787855181
743+786020264+783935474+781726942+779501142+777276955+774950895+772515314
729+770145158+767887213+765602201+762998364+760541512+758319297+756359623
716+754534923+752629860+750566759+748424908+746366766+744433023+742544690
702+740692864+738953667+737358586+735834070+734278543+732699894+731213199
689+729922603+728818187+727851973+727028979+726300928+725568156+724816145
675+724009164+723055199+722260646+722296496+723034765+723388663+723336680
662+723334709+723567972+723979588+724336056+724652252+725343198+726562572
648+727935324+729197061+730502594+732041869+733747726+735441394+737165176
635+739112482+741288690+743566890+745938599+748485255+751014763+753428895
621+755716954+758111666+761063606+764569784+768096815+771258716+774180421
608+777285499+780721054+784292778+787922399+791580820+795207933+798994577
594+803118270+807369528+811386687+815212826+819160615+823206394+827202760
581+831274112+835487609+839579634+843482671+847442709+851537065+855763408
567+860037431+864153775+868165855+872338662+876704043+881110651+885502082
554+889795285+893855285+897766388+901873530+906266993+910593059+914556682
540+918288475+922181175+926194271+929967591+933600021+937333906+941066297
527+944683670+948209447+951636815+954935244+958044206+961156155+964544686
513+967744408+970226833+972437636+974984053+977749931+980286490+982395658
500+984285306+985903271+986662213+986536201+986125182+985575364+984642968
486+983480117+982864336+983603979+985448157+987075084+987735080+987503251
473+986078995+983459324+980552675+978691887+979328940+982464550+986312318
459+989590312+992022906+993220651+993010989+991271253+987595027+982010750
446+975368663+968732431+961914679+954021191+946116531+940639863+938685268
432+940324145+946186079+956485990+969962141+984476206+997954807+1010570382
419+1023587953+1035420805+1044131610+1049475992+1052376486+1055591146
407+1060486925+1065226878+1068214129+1070264982+1073741823
##END=
