##TITLE=37
##JCAMP-DX=4.24
##DATA TYPE=INFRARED SPECTRUM
##DATE=16/11/2015
##SAMPLING PROCEDURE=Instrument type and / or accessory
##ORIGIN=Default
##XUNITS=1/CM
##YUNITS=TRANSMITTANCE
##RESOLUTION=4
##FIRSTX=3996.3359
##LASTX=399.24785
##DELTAX=-1.9287336
##MAXY=1.1302193
##MINY=0.03172088
##XFACTOR=1
##YFACTOR=1.0525988e-009
##NPOINTS=1866
##FIRSTY=0.11629623
##XYDATA=(X++(Y..Y))
3996+110484862+110521542+110603508+110686359+110736664+110816288+110918435
3983+110983569+111044038+111151741+111276439+111366602+111432204+111533345
3969+111686385+111849383+112012573+112165102+112275184+112358898+112448219
3956+112562278+112680025+112739823+112737996+112757207+112880178+113057687
3942+113169275+113220097+113289436+113410376+113557802+113641042+113643187
3929+113704740+113880068+114037723+114120114+114207934+114310703+114374918
3915+114425400+114478246+114486372+114520978+114686878+114861719+114905540
3902+114910969+114959682+115021532+115117945+115230603+115229456+115182711
3888+115310892+115484798+115551362+115656793+115748966+115780493+115898905
3875+116057494+116181342+116206604+116096417+116078877+116183069+116195499
3861+116130987+116175347+116490967+116904819+116919457+116635427+116589829
3848+116746422+116851449+116871750+116936537+117094418+117166220+117109650
3834+117111823+117171274+117218189+117295158+117408587+117588312+117734903
3821+117681455+117686006+117829263+117823791+117777811+117901999+118080761
3807+118102491+118080704+118186411+118175298+118086997+118190212+118309205
3794+118338545+118383980+118433301+118479516+118529460+118571299+118643427
3780+118701745+118689839+118694185+118772457+118872388+118894982+118847529
3767+118841357+118879027+118955529+119032867+118985131+118918652+119067777
3753+119336185+119365758+119207332+119304488+119474112+119276019+119074119
3740+119199857+119337218+119276104+119199248+119226655+119316606+119403626
3726+119404575+119349732+119326544+119308509+119295938+119356896+119459262
3713+119397327+119107047+118854905+118790436+118827795+118808230+118623318
3699+118330313+118013249+117703822+117435938+117208838+116924221+116562486
3686+116301821+116208912+116172763+116164821+116189971+116053678+115815792
3672+115801133+115808480+115650875+115527466+115396921+115143632+114895510
3659+114723926+114457804+114127744+113977458+113823180+113354188+112782342
3645+112438210+112252427+111997482+111632158+111244226+110863097+110521669
3632+110244031+109794546+109074729+108484840+108127557+107756330+107250941
3618+106673234+106185385+105752075+105230137+104626389+103951546+103284738
3605+102752140+102254714+101645119+100971176+100285567+99528603+98763909
3591+98136618+97491009+96625881+95775802+95150755+94568617+93872809+93138105
3576+92440782+91720264+90950955+90176231+89323716+88407908+87648226+87030540
3560+86332665+85521729+84711932+83911868+83051709+82178222+81338895+80462569
3545+79590937+78839451+78148696+77383578+76507011+75605395+74768114+73958168
3530+73114112+72242664+71363656+70523706+69778066+69081847+68320558+67451474
3514+66557559+65746417+64989679+64207395+63422358+62653318+61908939+61234542
3499+60587248+59867813+59075206+58295467+57571243+56874631+56179821+55483793
3483+54751064+53972536+53258020+52650761+52027728+51296344+50486186+49680803
3468+48965904+48366785+47781437+47118663+46469737+45934231+45430254+44856620
3452+44236224+43605677+42982843+42444377+42002799+41519891+40918776+40255312
3437+39616084+39113841+38765743+38427302+38010494+37579930+37177743+36779286
3422+36402003+36048504+35659464+35223407+34815447+34489712+34209983+33946073
3406+33676132+33292001+32813340+32489141+32372874+32226991+31934007+31608608
3391+31416620+31348333+31262318+31127735+30998507+30879001+30767129+30681885
3375+30600977+30471459+30291851+30146934+30135775+30256814+30395350+30448837
3360+30460017+30528251+30635038+30693823+30722107+30846575+31071848+31239536
3344+31323431+31422828+31544978+31727123+32030073+32354937+32614161+32843883
3329+33066445+33290773+33569070+33917140+34254848+34533683+34818487+35183861
3314+35588090+35912137+36158744+36459100+36883910+37388088+37904904+38380720
3298+38766985+39113551+39525128+40025870+40593735+41184399+41755187+42303601
3283+42830207+43355998+43903432+44450883+44993780+45551395+46139557+46782586
3267+47476763+48197207+48952686+49750701+50527251+51208704+51857669+52601368
3252+53406964+54164159+54928421+55811315+56764260+57691347+58604770+59517474
3236+60372515+61227790+62240988+63379060+64494306+65572532+66650687+67718346
3221+68775924+69852162+70964831+72115913+73294509+74469559+75621640+76764023
3206+77923940+79118200+80346797+81602001+82870909+84137113+85384205+86607550
3190+87826860+89070244+90329716+91570381+92798610+94052356+95341777+96648036
3175+97942284+99210088+100470919+101731120+102962435+104169203+105386177
3161+106603336+107785202+108937453+110090149+111271470+112510069+113777101
3148+114983635+116110453+117231163+118360997+119450357+120511716+121578864
3134+122641908+123692153+124741592+125794074+126818300+127767327+128650823
3121+129536626+130443296+131354737+132300139+133272821+134197810+135032395
3107+135810665+136613058+137468382+138288456+139015055+139721368+140456545
3094+141170290+141822326+142445851+143069419+143665536+144244171+144847396
3080+145456637+146047786+146648575+147245174+147734127+148093434+148467776
3067+148940477+149406100+149764926+150049444+150318376+150584165+150831522
3053+151046475+151233837+151386884+151475164+151506379+151524768+151532852
3040+151517280+151466911+151330767+151089384+150775335+150419454+150047703
3026+149625017+149063512+148353419+147544387+146631729+145599674+144462861
3013+143196771+141735815+140038856+138078670+135803770+133189043+130203314
2999+126726198+122649156+117884113+112289283+105777330+98289891+89814050
2986+80554318+70970132+61738183+53655461+47477906+43781130+42818981+44410597
2970+48004455+52931846+58652183+64904577+71636374+78637713+85340943+91068284
2955+95342647+97961438+98930963+98384053+96553909+93842047+90811145+88035202
2939+85969826+84836212+84515772+84666617+85066617+85798815+87053531+88874359
2924+91122489+93560402+95940478+98035144+99620550+100533095+100778810+100483172
2909+99742140+98642417+97348318+96060915+94944629+94072791+93417442+92888568
2893+92309197+91483403+90352826+88974121+87451407+86007574+85103764+85317528
2878+86950832+89851784+93656794+98085492+102946998+108028595+113119175
2864+118070851+122752980+127037161+130953243+134668019+138251536+141668034
2851+144901629+147945725+150759154+153328156+155706456+157940712+160029525
2837+161991480+163909621+165845670+167780360+169705140+171630544+173482644
2824+175189400+176784701+178320190+179804787+181210631+182529440+183818748
2810+185162742+186630662+188221235+189860648+191481614+193054293+194547455
2797+195927180+197202472+198386398+199447403+200365327+201186364+201962794
2783+202685273+203327825+203897314+204423484+204916104+205347341+205699725
2770+205997452+206272711+206520083+206714495+206869622+207046055+207262084
2756+207463404+207630805+207782733+207927484+208112821+208385208+208719571
2743+209086409+209481901+209892639+210325857+210811653+211376245+211987680
2729+212525360+212968091+213463401+214106207+214883387+215774796+216737031
2716+217692640+218590335+219404661+220110351+220706271+221266842+221900092
2702+222620306+223381688+224157495+224918933+225657310+226387419+227114669
2689+227820331+228474589+229081509+229664546+230243690+230828016+231405858
2675+231978886+232577722+233219028+233868742+234480362+235045831+235575498
2662+236079032+236566244+237051516+237536533+237990109+238395411+238783753
2648+239206920+239667461+240103483+240497771+240878582+241238753+241569648
2635+241890576+242223000+242558850+242882525+243206144+243541683+243899192
2621+244295887+244722112+245140041+245519295+245844669+246138757+246454873
2608+246787665+247100213+247403276+247710473+248006005+248286673+248564339
2594+248828472+249080204+249344903+249633640+249949529+250259387+250529013
2581+250786634+251051220+251305273+251554683+251824592+252109648+252371600
2567+252602805+252830046+253057174+253267511+253438268+253561826+253679212
2554+253804469+253910388+254024519+254185139+254380442+254600633+254875695
2540+255252995+255719680+256212922+256717065+257238337+257749105+258215054
2527+258643487+259091231+259567740+260011321+260415264+260834807+261273377
2513+261685757+262076761+262504798+262988159+263490575+263978438+264435128
2500+264892356+265416176+265984647+266538224+267098738+267680063+268251987
2486+268813237+269371543+269925574+270490788+271071574+271658278+272258119
2473+272870050+273479376+274089126+274713685+275345548+275968436+276585860
2459+277193062+277773197+278328049+278856145+279344177+279808031+280277971
2446+280744854+281171391+281554693+281928851+282293976+282621587+282905794
2432+283161744+283409144+283631260+283805725+283962183+284128664+284311086
2419+284519385+284757102+285038109+285392646+285812925+286265538+286757223
2405+287285998+287810074+288317756+288818954+289334054+289882903+290450269
2392+290985188+291455752+291854910+292138607+292245234+292205398+292179406
2378+292257522+292323095+292280965+292264742+292409620+292632302+292837685
2365+292945445+293071495+293455562+294059140+294676139+295437875+296854378
2351+298824431+300010693+299271637+297640152+297390373+298857671+300472734
2338+301405198+301787481+302011721+302234545+302515212+302942230+303444080
2324+303815972+304014051+304329147+304981197+305721103+306180936+306400136
2311+306680719+307172092+307811600+308453883+308973881+309408855+309881004
2297+310374416+310823009+311256567+311689757+312103100+312499257+312886297
2284+313241966+313539904+313801829+314076126+314365344+314625286+314835454
2270+315006550+315141576+315251119+315372554+315517545+315678222+315903452
2257+316261613+316771532+317414664+318111760+318759818+319447968+320061060
2243+320623131+321147914+321644526+322131114+322604906+323075469+323540427
2230+323995645+324475353+324971738+325421407+325833532+326263353+326705009
2216+327138454+327580506+328037649+328465687+328865326+329295996+329750733
2203+330199495+330665359+331171597+331708526+332242879+332743738+333219935
2189+333699899+334180853+334653512+335122122+335587306+336070610+336573026
2176+337049252+337522421+338044089+338567400+339056141+339545731+340049137
2162+340545777+341007960+341447492+341914375+342393121+342823197+343208510
2149+343591784+343978286+344338683+344675439+345043056+345462940+345905671
2135+346380000+346940685+347612158+348344985+349063090+349758969+350483501
2122+351236431+351967419+352664742+353347993+354029093+354698641+355334524
2108+355932865+356490916+356998456+357471766+357955495+358471190+358990112
2095+359513932+360036167+360545152+361067896+361614537+362153250+362673305
2081+363182827+363684196+364197937+364747692+365324429+365894089+366420825
2068+366907584+367411642+367985775+368608493+369217111+369795349+370367783
2054+370943813+371520466+372103970+372694524+373281738+373855673+374393933
2041+374890573+375378181+375882607+376398329+376892251+377357152+377843769
2027+378377386+378927141+379489977+380072009+380642376+381209374+381811905
2014+382417749+382973251+383496562+383999063+384461727+384917653+385407413
2000+385904251+386346869+386738184+387144619+387594146+388067852+388517011
1987+388909883+389277444+389665418+390082951+390500626+390898594+391307322
1973+391748214+392192956+392628298+393096964+393635904+394199334+394720465
1960+395198786+395649531+396063157+396428509+396743662+396995252+397145962
1946+397185657+397117621+396967194+396793295+396526614+396049170+395398648
1933+394706280+394119548+393801790+393931379+394615707+395845995+397512079
1919+399400392+401329249+403205558+404900719+406359551+407682650+408944253
1906+410138329+411238009+412225145+413114771+413960822+414785299+415577755
1892+416349626+417088088+417822105+418577923+419305937+420018379+420725923
1879+421392413+422029090+422652686+423250488+423822271+424453256+425260746
1865+426154279+426916382+427561977+428230449+428929188+429592592+430199879
1852+430768321+431281581+431797785+432401731+433081444+433861214+434650980
1838+435312883+435893216+436479864+437081573+437678074+438314637+438997095
1825+439683348+440426085+441166557+441782905+442332037+442904868+443479340
1811+444041015+444656400+445313377+445899034+446389586+446902676+447503423
1798+448090778+448607435+449106963+449657879+450308995+450939556+451424106
1784+451882976+452413111+452904626+453276745+453584763+453921717+454340496
1771+454882975+455463336+455940015+456347667+456735585+457175967+457767993
1757+458410106+459027728+459634647+460232534+460955509+461832705+462641978
1744+463283440+463812158+464233230+464628481+465059718+465511765+466124828
1730+466818300+467345264+467663106+467777265+467770017+467790402+467858070
1717+468030639+468365922+468692514+468822103+468731614+468422463+468027383
1703+467752123+467465339+467219837+467232662+467167712+466859354+466294367
1690+465373993+464417181+463563456+462661741+461893550+461189149+460315775
1676+459279120+458339550+457696446+457158554+456674825+456433258+456271477
1663+456019490+455787040+455551532+455315202+455251356+455427322+455822913
1649+456247269+456569614+457020443+457654571+458200561+458748334+459695492
1636+461172784+462891417+464495296+465950249+467505034+469340600+471321129
1622+473206554+475007946+477000678+479337640+481774321+483987782+485934024
1609+487743796+489506739+491240632+492920958+494493127+495925712+497243970
1595+498509961+499736881+500882428+501940035+502945943+503882313+504658375
1582+505245022+505795202+506470412+507188036+507807583+508271691+508609863
1568+508977083+509237507+509132862+508846900+508719887+509043563+509770020
1555+510261705+510264876+510048790+509760903+509314972+508741575+508432340
1541+508578888+508796219+508797862+508472148+507876044+507276769+506639158
1528+505740841+504762397+503907851+503030429+502162066+501315052+500280435
1514+498979958+497337290+495415454+493425440+491456548+489534203+487259869
1501+484119211+480006792+475038581+469393659+462868115+454902199+446298418
1487+439028721+433790035+429776429+426101984+422549484+419109189+415286271
1474+410103023+403377447+396425054+389947303+383198397+375568841+367469712
1460+359928153+355002553+355336846+360515508+367299239+373610708+379306791
1447+384699784+389508110+393174032+395457851+396579417+396977216+397090639
1433+397034437+396683836+396214547+395939259+395933001+396243143+397005076
1420+398321550+400318642+402916453+405760956+408641501+411566526+414548432
1406+417506640+420249980+422480259+423914628+424413986+423738606+421475427
1393+417473882+411559165+403293895+393494650+384862810+380051482+380654636
1379+386900248+397500810+411031069+426634610+443345986+459921515+474486561
1366+485113623+491407170+494354676+495324965+495380516+495081812+494559493
1352+493661345+492261885+490610610+489239407+488408248+487875112+487377934
1339+487098314+487300300+487972339+489073549+490675956+492843040+495550337
1325+498725311+502293666+506211178+510439115+514901427+519545453+524377365
1312+529393368+534496236+539536192+544405647+549097692+553622633+557884036
1298+561768592+565242098+568290965+570812189+572663468+573747520+573863887
1285+572680966+570024802+566160915+561883260+558532179+557687034+560379269
1271+566522473+575021609+584424385+593553148+601760829+608875965+614928510
1258+619965579+624065314+627332531+629815079+631526775+632515242+632815361
1244+632484381+631708942+630831009+630310049+630711528+632540497+635917116
1231+640494493+645645436+650762461+655463623+659568228+663049945+666035220
1217+668660466+670944144+672918302+674683283+676334786+677907691+679293334
1204+680438032+681527633+682713441+683844096+684820445+685677369+686488595
1190+687284136+687981091+688488688+688869952+689229019+689544087+689697827
1177+689631291+689374378+688881504+687995871+686653434+684914841+682812650
1163+680368608+677694833+675061206+672785853+670970871+669460255+668032709
1150+666503236+664658864+662372809+659717211+656744903+653423665+649812783
1136+646086724+642373350+638640495+634883065+631291437+627914025+624379476
1123+620214054+615123021+608802124+600633968+589682522+575009661+555857385
1109+531483271+501117597+464674745+423629317+380644840+338456894+299769692
1096+267762227+245618504+235383578+237300586+249966800+270850760+296721533
1082+323886922+348361747+366275353+374543794+372342649+363397667+355278578
1069+352740507+351534511+341143297+313628552+269458011+216648014+165914018
1055+125839375+100569470+90797689+96389212+117918336+156169063+210605945
1042+277943642+351808837+424371856+489257640+543557217+587483105+622215733
1028+647852102+662656789+663509183+648606929+623408960+603421732+604366200
1015+628006722+662947621+697747408+727879726+753155499+774237368+791555748
1001+805267154+815454203+822560222+827458159+830729057+832341827+832120079
988+830043258+826030953+819456258+808824863+791640064+764350041+723461468
974+670057491+616038157+582469650+585371685+622769594+678050332+733831193
961+780665798+816396179+842247388+860248396+872478518+880929522+887097755
947+891715393+895065058+897477673+899372441+900881982+901911446+902530143
934+902942382+903162658+902953367+902182458+900961825+899412872+897467480
920+894891782+891563748+887503255+882665737+877007140+870604418+863751518
907+857021667+850852755+844776370+837138574+825556879+807602191+781047062
893+743714386+694476454+635445703+572535606+513968964+470548805+456878849
880+484977494+551717559+636987577+717683899+780794679+824397571+852119879
866+868223231+875775011+877546391+877370170+879274792+884670021+891712901
853+897970150+902467458+905200011+906313168+906297653+905853590+905207259
839+904079662+902325270+900237689+898175987+896099391+893665145+890887178
825+888101114+885238774+881822970+877500920+872287235+866315098+859344020
812+850843128+840820918+830433469+821963665+818001701+819765663+825864812
798+833126326+838986853+842602094+844135305+844254673+843778333+842950119
785+841487804+839477122+837363720+835262832+832886685+830003619+826939464
771+824190376+821875498+819810455+817642352+815140664+812152387+808487824
758+804462213+801186501+799732681+799903522+800459874+800540567+800020682
744+798955260+797493455+795878194+794260667+792633570+790884784+789006834
731+787146664+785404333+783754699+782065144+779950383+777688337+775998668
717+774905670+773608874+771873055+770056827+768383071+766940575+765681945
704+764403043+762974704+761516184+760226240+759177410+758277110+757341306
690+756277357+755257972+754437459+753794469+753320564+752945246+752490821
677+752226207+752953004+753623231+750363545+744879413+746343200+752904645
663+755171561+753288627+752050722+752466642+753363883+754170467+755014140
650+756089584+757340683+758571057+759824307+761353044+763184788+765051809
636+766817357+768608839+770522974+772451039+774373101+776676597+779268207
623+781819386+783992359+785989961+788532023+791713452+794941767+797934517
609+800916395+804149240+807517478+810762214+814042965+817498238+820877348
596+824186978+827749728+831561972+835217871+838630674+842239687+846193723
582+850106308+853788142+857531303+861544909+865630545+869407680+872889851
569+876535500+880407202+884143341+887692443+891304740+895135954+899275327
555+903599359+907589522+911065010+914565584+918648048+922980121+926846613
542+930261284+933584108+937076131+940797037+944553335+948290040+952003811
528+955449287+958407665+960925718+963410814+966353677+969560983+972526043
515+975489291+978639405+981549311+984056605+986382808+988566540+990481411
501+992191408+993885097+995425895+996295447+996350148+996192727+996265775
488+996223872+995692039+995285236+996103711+998031945+999669688+1000155314
474+999717933+998547470+996727392+994686811+993321893+993944555+996622293
461+999727786+1002392161+1004730482+1006093701+1005873652+1004152216+1000804136
447+995805064+990172685+985040994+979953246+973941811+967775560+963123380
434+961009072+962357114+967896287+976717853+987083954+998243614+1009740313
420+1021395906+1032904723+1041875442+1047488908+1052253322+1057776639
409+1062972543+1066535689+1068965518+1070883900+1072083582+1073741823
##END=
