##TITLE=2
##JCAMP-DX=4.24
##DATA TYPE=INFRARED SPECTRUM
##DATE=16/11/2015
##SAMPLING PROCEDURE=Instrument type and / or accessory
##ORIGIN=Default
##XUNITS=1/CM
##YUNITS=TRANSMITTANCE
##RESOLUTION=4
##FIRSTX=3996.3359
##LASTX=399.24785
##DELTAX=-1.9287336
##MAXY=0.71323615
##MINY=0.006587259
##XFACTOR=1
##YFACTOR=6.6425293e-010
##NPOINTS=1866
##FIRSTY=0.042694166
##XYDATA=(X++(Y..Y))
3996+64273960+64375374+64555847+64745821+64813748+64763554+64770132+64856101
3981+64907579+64941728+65039513+65175748+65269187+65320934+65379709+65456850
3965+65553598+65662824+65753537+65802329+65803753+65762365+65718867+65746061
3950+65856835+66008594+66151829+66188204+66125257+66098483+66141796+66223732
3935+66279422+66227254+66139451+66148756+66224097+66271969+66322005+66400711
3919+66451707+66445415+66439700+66466255+66485659+66490073+66515411+66555819
3904+66593511+66583439+66494016+66465150+66568016+66637609+66543951+66518636
3888+66700606+66803462+66761243+66724890+66697572+66743672+66842506+66869639
3873+66885437+66892066+66899138+66924151+66815463+66606506+66483556+66555633
3857+66779716+66859656+66604616+66375138+66382305+66445179+66412382+66342296
3842+66384919+66496523+66503533+66458168+66463742+66465072+66439851+66384952
3827+66358571+66483870+66582609+66546761+66594168+66590191+66433862+66365267
3811+66460164+66545813+66503595+66536930+66629746+66537031+66400784+66371902
3796+66394554+66401962+66316509+66188254+66144841+66160488+66148178+66107412
3780+66050331+66032121+66095068+66198450+66234853+66109812+65945692+65863403
3765+65845776+65867570+65830583+65715665+65704774+65864928+65942709+65747239
3749+65588526+65761753+65826444+65582536+65492053+65600275+65602008+65460810
3734+65376697+65373641+65388996+65340530+65217877+65102695+65005622+64887075
3719+64754390+64682896+64676923+64602911+64408193+64199797+64070858+64000698
3703+63829384+63488761+63082321+62678040+62367893+62204351+62018264+61554087
3688+60910552+60440369+60216919+60128960+60149161+60212080+60109471+59987873
3672+60014647+59957392+59804355+59699812+59579728+59358808+59125567+58932402
3657+58688315+58481685+58399849+58242920+57899858+57540802+57325069+57183988
3641+56985339+56710249+56421060+56132937+55878682+55676286+55353369+54944781
3626+54679270+54508757+54270266+53887268+53469561+53159633+52869446+52519749
3611+52135377+51703896+51276352+50885340+50453191+49980686+49578760+49242579
3595+48806746+48246797+47752941+47324533+46792692+46212638+45726485+45342135
3580+45014420+44636341+44104621+43498499+42978351+42517892+41963554+41345633
3564+40803044+40307533+39809275+39345016+38903345+38430203+37937011+37478582
3549+37027744+36514032+35974831+35475874+34993882+34505934+34021315+33541491
3533+33075449+32623217+32132821+31571978+31017567+30561488+30190671+29827145
3518+29419933+28944509+28426582+27955221+27539827+27108564+26635854+26151753
3503+25718009+25321509+24877752+24427561+24086802+23806791+23442439+22994988
3487+22571840+22225449+21897517+21510146+21119182+20802339+20514724+20187059
3472+19805491+19400813+19034763+18745544+18486238+18227065+18003748+17772965
3456+17468324+17164618+16936203+16697130+16369535+16026933+15769993+15577386
3441+15342914+15046384+14784638+14597355+14400989+14167130+13972599+13811808
3425+13640681+13498058+13388690+13277048+13159325+13006591+12786120+12536283
3410+12323301+12172864+12068481+11920941+11642052+11353163+11246269+11248474
3395+11166057+11029810+11006827+11059814+11015323+10872051+10781134+10771955
3379+10731039+10627162+10506739+10389392+10302104+10260825+10269228+10328101
3364+10369627+10345217+10347117+10429325+10489503+10472186+10452520+10508310
3348+10622873+10719719+10783782+10833624+10876805+10958539+11066231+11139361
3333+11227670+11359838+11443397+11487800+11627637+11867845+12070294+12207595
3317+12395775+12654510+12862283+12947942+12982253+13072652+13237527+13458608
3302+13751196+14074570+14328106+14493438+14662986+14929595+15298629+15684499
3287+16006295+16261122+16497082+16786258+17132799+17454255+17737508+18038014
3271+18400423+18843330+19310432+19749198+20179528+20592351+20965923+21335126
3256+21732764+22184571+22706434+23254019+23788631+24312472+24846253+25452341
3240+26146246+26829361+27432544+28019009+28676558+29378494+30060148+30744810
3225+31443919+32123798+32795917+33496098+34254455+35071969+35901627+36689200
3209+37453138+38274919+39140986+39969269+40776292+41622270+42517730+43429826
3194+44306184+45154015+46047915+47010875+47986165+48923084+49821636+50717479
3179+51611590+52463353+53290753+54163648+55089972+56016605+56931752+57830966
3163+58667200+59461091+60282312+61122084+61940203+62748726+63550710+64311832
3148+65069237+65886357+66711268+67457046+68136030+68817224+69509320+70174766
3132+70825310+71487447+72158288+72833403+73480050+74060833+74595125+75124262
3117+75678951+76254738+76793527+77257065+77697643+78183395+78675395+79080663
3101+79410949+79775782+80202788+80591321+80881464+81121328+81359701+81594411
3086+81828477+82084824+82326988+82486402+82604326+82760017+82900896+82931915
3071+82889045+82881009+82920440+82940905+82914726+82844623+82717731+82517275
3055+82279452+82076114+81886466+81631308+81313046+80953905+80521936+80042897
3040+79600054+79177484+78676247+78057198+77362309+76648526+75932264+75172617
3024+74322991+73386622+72377486+71292196+70123736+68850167+67479120+66025116
3009+64447154+62721038+60854644+58826990+56613653+54222602+51641796+48829387
2993+45772775+42530525+39101927+35394187+31421831+27381781+23480628+19913020
2978+16948938+14747334+13220571+12163837+11355542+10647229+10080073+9916793
2963+10501645+11992550+14242486+16833399+19191165+20858446+21658281+21568849
2947+20651145+19147141+17471128+16061431+15253875+15236109+16004070+17321674
2932+18915018+20704088+22684875+24782443+26953827+29258163+31728038+34219090
2916+36476987+38313804+39634819+40417592+40783788+40968448+41107762+41172888
2901+41092667+40775541+40126020+39087926+37582071+35556504+33080398+30264293
2885+27255304+24378467+22190225+21325041+22139750+24468350+27833314+31806562
2870+36104157+40528119+44939076+49249809+53378831+57274343+61016026+64800860
2855+68834273+73190087+77764207+82376189+86837011+90960857+94634855+97889205
2839+100784852+103346584+105674654+107926004+110196063+112465651+114687445
2826+116886829+119068356+121143079+123043813+124804150+126457302+128013735
2812+129540758+131072099+132579213+134074527+135560015+136978597+138280909
2799+139441243+140477175+141448724+142345886+143086802+143656789+144112908
2785+144481526+144764720+144989487+145187783+145369333+145506690+145581089
2772+145625461+145651775+145658640+145672593+145682082+145688453+145770962
2758+145941026+146076757+146114590+146108174+146060212+145920803+145696798
2745+145424518+145152003+144983968+145038548+145372855+145980037+146780636
2731+147616073+148306963+148765358+149077345+149414075+149900107+150617648
2718+151589466+152706718+153782962+154703565+155478725+156161921+156786298
2704+157358260+157844135+158220998+158509733+158732458+158921019+159071488
2691+159125787+159089030+158998132+158823940+158536764+158188358+157886545
2677+157738936+157856945+158325749+159098396+159988199+160801013+161474282
2664+162083674+162687917+163253732+163776173+164308956+164859203+165393209
2650+165894249+166352420+166762102+167151336+167560794+167972394+168354674
2637+168726366+169087862+169408014+169664804+169865803+170036641+170174458
2623+170279377+170355918+170384633+170357006+170294104+170228320+170153797
2610+170061542+169995286+169983105+170000109+169997316+169949041+169878388
2596+169801140+169709614+169611009+169515198+169428158+169361073+169328029
2583+169340591+169378122+169430076+169543632+169761602+170061845+170366069
2569+170643083+170915699+171155822+171352985+171544293+171721547+171880294
2556+172035699+172163118+172255239+172344746+172448521+172582323+172782290
2542+173023332+173234303+173453338+173752942+174103558+174458156+174796086
2529+175138738+175544562+176001050+176448576+176876250+177291226+177702164
2515+178158888+178673781+179175449+179639991+180105082+180562367+180992552
2502+181418913+181841663+182223730+182545912+182810273+183040043+183274478
2488+183525638+183766411+183975834+184180232+184409799+184669708+184965161
2475+185282823+185596122+185880796+186127424+186377978+186683806+187046704
2461+187420595+187782012+188155240+188513585+188838975+189199652+189593620
2448+189947298+190255527+190548882+190851974+191179181+191515967+191852911
2434+192179019+192479643+192775062+193093521+193423397+193712020+193930315
2421+194098136+194237983+194348735+194404952+194432634+194512091+194657614
2407+194833264+195018246+195187772+195356805+195591633+195870093+196122285
2394+196350091+196615249+196938777+197280364+197588032+197821155+197960644
2380+198033439+198083599+198112223+198104327+198108724+198173443+198287200
2367+198439026+198603729+198830347+199129760+199249754+199153718+199175770
2353+199436777+199921621+200497296+200688402+200349821+200090070+200345200
2340+200819321+201264279+201689181+202116799+202515275+202909512+203312565
2326+203705007+204090854+204449670+204787084+205138362+205494283+205815231
2313+206110651+206438150+206834181+207262629+207650382+207959643+208215738
2299+208487962+208799085+209104442+209379223+209637584+209873422+210071168
2286+210248658+210432227+210614136+210754364+210835684+210906302+211010818
2272+211125405+211218278+211296569+211384910+211526596+211747740+211994458
2259+212205306+212390647+212568809+212718931+212838498+212979086+213094257
2245+213212905+213386693+213618470+213861643+214116639+214416164+214734802
2232+215018534+215299036+215613994+215903043+216149357+216409265+216670564
2218+216914635+217167813+217398806+217543633+217587355+217580176+217599715
2205+217682852+217837550+218082652+218432965+218879134+219405793+219985573
2191+220555393+221069736+221548029+222013356+222438169+222814908+223192230
2178+223573636+223915312+224210777+224479972+224749280+225039136+225343821
2164+225646800+225947896+226280913+226660165+227033629+227346681+227601250
2151+227848708+228148861+228503616+228843183+229124201+229376729+229630984
2137+229890937+230149432+230406110+230666894+230913275+231146780+231390110
2124+231630950+231874841+232155096+232440264+232686242+232956402+233315082
2110+233703487+234043840+234347492+234682013+235079884+235513760+235949811
2097+236382970+236781514+237118030+237388123+237633674+237872047+238045723
2083+238099652+238070377+238005007+237893471+237753781+237603323+237418453
2070+237237037+237144950+237189995+237414572+237812600+238332641+238924804
2056+239548081+240195900+240838896+241436017+241970392+242410258+242739888
2043+242968569+243130042+243277023+243426561+243608829+243914680+244407577
2029+245023160+245681096+246398839+247190341+247975854+248659408+249257292
2016+249850397+250424434+250943129+251420884+251858820+252258732+252637266
2002+253012861+253373785+253692692+253995537+254283330+254534624+254833520
1989+255149354+255440713+255744433+256062533+256387654+256679215+256925663
1975+257169599+257439872+257734843+257999888+258231486+258488972+258685686
1962+258772076+258818377+258839734+258815573+258749396+258631601+258426339
1948+258097920+257683808+257207354+256809191+256707862+256849526+257203271
1935+257804363+258572176+259410585+260284192+261199098+262102137+263052734
1921+264142863+265107414+265986270+266880066+267597540+268174493+268737089
1908+269320750+269860173+270307285+270721958+271162631+271577192+271929973
1894+272352498+272792924+273060101+273358280+273744979+274055743+274348134
1881+274666099+274994203+275307098+275618647+275985942+276246434+276436665
1867+276895307+277495187+277981265+278394839+278794033+279151996+279448358
1854+279707638+279952651+280162063+280403666+280457729+280422352+280786574
1840+281218027+281495433+281888885+282475731+283003444+283363000+283915411
1827+284488865+284904817+285414449+285893640+286256740+286643888+287105581
1813+287510361+287835841+288211862+288618392+289004464+289320948+289571277
1800+289902208+290350868+290747123+290860701+290957836+291454749+291960522
1786+292144226+292279429+292465354+292613501+292863673+293188323+293316774
1773+293317784+293609704+293906358+294098563+294259609+294219881+294335747
1759+294669235+294874856+295143311+295333139+295276585+295377982+295645136
1746+295824802+295904080+295900850+295983426+296389956+296439802+296232947
1732+296676245+297167864+297291649+297311322+297304548+297388380+297353631
1719+296969893+296792717+296994546+297149693+297090986+296874373+296546134
1705+296441484+296455482+295915274+295626248+295540060+295031371+294721908
1691+294312349+293728801+293235993+292287595+291261982+291008535+290825661
1678+290231950+289363458+288911681+288825404+288435788+288238714+288520943
1664+288615409+288554279+288853893+289443768+289988800+289891373+289838207
1651+291082878+292011939+291959244+292234003+293045448+293765209+294439454
1637+295018180+295729552+297098411+298457826+299286612+300101243+301129951
1624+302065136+303124309+304254369+304888123+305518085+306691935+307666378
1610+308182179+308651477+309242832+309834995+310313266+310725494+311136892
1597+311522043+311860736+312157502+312390625+312563404+312704171+312786230
1583+312788137+312837467+312944181+312665182+312286761+312472416+312361664
1570+311618191+311156880+310931832+310700189+310307882+309101527+308114544
1556+308219575+307942864+307073048+306078147+305177755+304345492+303434041
1543+302417401+300975881+299611195+298866600+297566138+295583109+293978165
1529+292534470+290723748+288856877+286939375+284677369+282615668+280596073
1516+278297031+275990160+273722277+271303510+267945273+263843720+260375831
1502+257113539+252948411+247658629+241600002+235455815+228864203+220557950
1489+210449051+199582547+188802521+178564274+169406096+161893128+155895350
1475+150328027+143697606+136077600+129488702+125183626+122764680+120932602
1462+118599338+116514969+117892554+125893293+139181200+153766070+167146692
1448+177908267+185053637+188441530+189232269+189381538+190345214+192641811
1435+195789290+198451903+200161878+201498142+202816707+204123135+205606268
1421+207275976+209118911+211464345+214011810+216376311+218743662+221236278
1408+223665028+225796361+227659733+229128710+229769014+229436760+227733290
1394+224181614+219084037+212660156+205117252+198162608+194528355+196213161
1381+204040111+216824499+230987102+242627207+250029344+253857462+255910953
1367+257883596+260188426+262210802+263528245+264021613+263695393+262788339
1354+261602263+260291729+258947457+258136774+259095200+262661525+268001400
1340+273422819+278278748+282907633+287705887+292928639+298674102+304877848
1327+311400120+318101385+324777457+331239675+337436131+343256026+348426779
1313+352766683+356229502+358635258+359787056+359721754+358730351+357295584
1300+355931480+355005246+354678554+355073016+356249131+358048524+360206687
1286+362475243+364536563+366000448+366598960+366325008+365529042+364978515
1273+365533641+367595768+370854964+374651451+378423531+381763799+384405012
1259+386190137+386920599+386346315+384251166+380423026+374700647+367164966
1246+358216883+348537957+339068936+330960699+325518373+324108573+327787444
1232+336720026+349856096+365236920+380767282+394842082+406640609+416128631
1219+423673509+429679710+434493959+438368849+441520456+444167591+446422732
1205+448328143+449974453+451417027+452618985+453619495+454438926+455068036
1192+455533790+455838519+455963650+455966118+455854671+455577085+455194020
1178+454752405+454204681+453553587+452803698+451869993+450644346+449087139
1165+447211699+445044136+442667902+440178830+437531606+434533889+430994596
1151+426769572+421668899+415493553+408242323+400176730+391768273+383674460
1138+376482452+370473985+365669427+361825584+358593084+355765364+353163522
1124+350504476+347409871+343369874+337792478+329977978+319017816+303998835
1111+284356376+260180866+232762244+205192290+182099574+167953359+164704135
1097+170791982+182530915+196295018+209562882+220615737+227987590+230252736
1084+225946437+213691467+192632097+163212624+128429395+94373376+68202920
1070+54502347+53012405+58489391+62814640+60159755+51132097+40901782+34421253
1055+34584032+43591010+64198434+99045680+148733492+209945902+275450109
1042+336776198+387365714+423836507+445622234+453782762+449356290+432121897
1028+400297016+351626999+286992855+215325574+153538521+117973324+115506068
1015+142477578+188308031+241689195+296345673+350192747+400977094+444981683
1001+478895342+501415973+513164609+515721742+510710578+499310460+482148615
988+459321281+430463742+394767650+351026513+298224389+237371321+173919731
974+117405310+76653837+55454990+54003780+73533950+116828189+183930979+269036547
959+361402297+449159418+523656865+581566615+623938848+653926380+674876389
945+689449694+699540983+706411212+710838492+713361886+714411255+714229504
932+712905510+710524879+707088508+702413434+696318667+688696485+679292138
918+667698290+653629637+637203414+619259870+601454334+586149804+576452618
905+575109556+581606232+590628680+594787661+588869083+571212009+543182067
891+510163079+483082859+475177438+492400120+527678736+568304607+606089702
878+637663648+660848026+674682479+679999988+678004980+668902132+651876590
864+626581585+596566236+572367172+567505276+586585722+619655633+651934512
851+675644942+690834705+700005480+705027951+707207717+707603659+706803206
837+705188616+703103248+700643518+697859857+694887130+691768500+688462285
824+684975529+681289390+677408173+673497614+669565430+665412909+661001243
810+656435058+651832083+647382999+643302667+639732955+636583501+633452578
797+630045639+626292200+622174091+617850721+613467231+608923030+604053776
783+598835151+593271373+587259249+580551030+572886405+564585625+556892017
770+551447267+548787705+547258360+544064983+537171199+526337245+513832842
756+504779482+504295019+512418040+523811742+533137797+538606056+540888969
743+541149102+540259186+538744782+536909990+534890664+532765410+530608032
729+528475061+526267568+523902461+521644448+519239769+516852992+514540916
716+512204299+509940723+507908656+506042323+504158672+502196191+500269200
702+498475012+496777868+495196299+493813487+492589320+491395079+490172617
689+488997489+487947716+487002211+486169230+485487941+484878034+484352744
675+484180369+484168973+483223603+481761871+482461465+484673625+485430737
662+485009357+485098371+485961277+487184501+488518859+489873765+491334869
648+493035242+494880713+496688809+498546438+500655675+503005034+505486299
635+508024006+510595317+513305802+516315588+519679231+523329657+527160220
621+530973016+534610432+538224741+542150105+546405997+550749692+555140630
608+559666301+564326973+569081505+573884313+578680615+583638165+588976672
594+594452648+599800845+605170758+610709277+616351840+621876271+627263413
581+632874839+638917157+645043420+650933823+656584282+662226800+668045731
567+674034390+680058089+685963432+691765224+697394148+702934641+708700990
554+714450378+719943762+725570443+731539361+737616091+743487785+749028143
540+754427443+759731583+764777294+769669834+774592164+779576320+784602470
527+789761513+794958782+799560321+803686281+808028226+812479015+816438433
513+819682150+822559761+825078444+827166594+828823493+829479971+828910263
500+826970978+823557220+818848721+812805550+805453640+796821795+787192221
486+777993001+771672290+769968731+772506258+777182992+780990135+781070624
473+776184097+767265738+757195222+750830273+752909180+766043411+789834016
459+821122346+855283800+885217448+907038529+923330244+936125647+946011854
446+953934369+960712533+967273816+973829356+979643800+984861617+990067859
432+995666947+1002175737+1008623150+1014073462+1019622839+1025736360+1030856280
419+1036434460+1042743776+1046869826+1049754435+1052573631+1055318169
407+1059358615+1064398225+1067594922+1069475074+1073741823
##END=
