##TITLE=2
##JCAMP-DX=4.24
##DATA TYPE=INFRARED SPECTRUM
##DATE=16/11/2015
##SAMPLING PROCEDURE=Instrument type and / or accessory
##ORIGIN=Default
##XUNITS=1/CM
##YUNITS=TRANSMITTANCE
##RESOLUTION=4
##FIRSTX=3996.3359
##LASTX=399.24785
##DELTAX=-1.9287336
##MAXY=0.70835423
##MINY=0.0066431393
##XFACTOR=1
##YFACTOR=6.5970629e-010
##NPOINTS=1866
##FIRSTY=0.042715602
##XYDATA=(X++(Y..Y))
3996+64749423+64880504+64946347+64931631+64914651+64952062+65037917+65111987
3981+65130057+65146699+65211367+65286313+65346017+65427931+65544771+65651429
3965+65725274+65784159+65839725+65899605+65974093+66053093+66099657+66080599
3950+65998854+65959795+66078447+66240338+66303657+66300269+66253614+66204836
3935+66202334+66208382+66251005+66379003+66467112+66401337+66311941+66351554
3919+66488982+66597871+66654526+66721216+66788962+66808523+66792034+66766899
3904+66754499+66734187+66678994+66711650+66866471+66925972+66733859+66559562
3888+66597058+66602688+66573776+66655949+66727473+66776640+66855776+66904887
3873+66925560+66897840+66932466+67075062+67084040+66942766+66830359+66820675
3857+66888251+66850970+66593754+66412585+66454609+66581309+66663782+66695212
3842+66757447+66818597+66766177+66663979+66621040+66617138+66626614+66630386
3827+66632345+66679141+66639658+66500248+66491365+66526206+66528601+66592179
3811+66703711+66775274+66737750+66714553+66644910+66419819+66349035+66501292
3796+66607296+66584126+66493223+66400461+66353795+66333596+66326831+66332399
3780+66275377+66198619+66219151+66302544+66329491+66250090+66154438+66068057
3765+65997973+66018647+66059197+66032510+66020753+66063477+65994913+65756518
3749+65666998+65898983+66003564+65823360+65724009+65741164+65719847+65656833
3734+65608485+65559696+65560147+65562152+65488629+65383151+65269880+65140346
3719+65023388+64997576+65044072+64968522+64701921+64419419+64231061+64087940
3703+63871399+63578337+63304547+63021920+62685473+62302094+61862720+61362366
3688+60934236+60690262+60521369+60384974+60395844+60487623+60393535+60267264
3672+60265830+60145772+59939248+59794450+59623197+59375072+59183626+59073969
3657+58888265+58706430+58628779+58431646+58059787+57773529+57651556+57509695
3641+57258318+56958078+56658618+56361992+56124089+55944823+55591090+55093299
3626+54760585+54573757+54347876+53995961+53593457+53254016+52920641+52548573
3611+52170220+51761317+51340821+50965517+50598537+50175223+49742406+49336824
3595+48894762+48437025+48048897+47672063+47201912+46654220+46092961+45571055
3580+45114589+44659237+44143422+43635128+43209237+42786680+42253845+41680719
3564+41167276+40665947+40170766+39707828+39226049+38688671+38115497+37565679
3549+37074945+36609988+36122511+35603415+35099004+34642721+34211931+33765637
3533+33265396+32752054+32311215+31892786+31364796+30748212+30208389+29789965
3518+29358579+28865857+28438943+28114106+27752208+27312578+26875584+26431369
3503+25956951+25506343+25106501+24747886+24432216+24107323+23674182+23173888
3487+22763114+22443251+22058486+21574351+21145151+20852444+20593634+20260226
3472+19827729+19373952+19059201+18885462+18663641+18354291+18081284+17863338
3456+17629676+17349699+17054717+16818917+16640496+16404671+16104544+15852676
3441+15637430+15350105+14985899+14658743+14447488+14297855+14129319+13959297
3425+13814227+13661488+13508239+13391996+13263374+13017343+12687220+12457726
3410+12384143+12323080+12173251+11952885+11708199+11517839+11447632+11409557
3395+11289096+11150869+11109828+11125939+11105553+11038119+10962198+10891150
3379+10817396+10765035+10713595+10563266+10329389+10192928+10254854+10397281
3364+10462878+10453087+10463325+10509965+10519244+10456882+10391435+10427286
3348+10565287+10676690+10698836+10723241+10836821+11025585+11213487+11334803
3333+11397900+11458204+11529618+11594649+11684987+11831455+12008298+12203991
3317+12405872+12554271+12636399+12731854+12894395+13107202+13364114+13650093
3302+13924739+14186076+14430859+14629450+14800363+15016217+15321161+15658118
3287+15932955+16157537+16419923+16741427+17080422+17427910+17778140+18092429
3271+18414579+18837633+19318805+19760211+20187926+20654872+21110138+21514498
3256+21931130+22398717+22875648+23365007+23919589+24514994+25099304+25674462
3240+26236520+26793538+27375625+27984120+28655262+29426952+30210410+30904611
3225+31542913+32213001+32953622+33734703+34500919+35261233+36060122+36866837
3209+37651543+38470808+39328430+40168916+41011173+41878485+42758821+43674352
3194+44623442+45536327+46375096+47201482+48071073+48955653+49821016+50685347
3179+51592334+52539617+53471648+54374699+55277416+56168349+57037440+57909467
3163+58772843+59613580+60449642+61255668+62009816+62763518+63547572+64340407
3148+65155745+66008415+66864370+67681301+68427227+69124059+69811546+70467686
3132+71100375+71753275+72407569+73044860+73665493+74241380+74780506+75333602
3117+75912075+76464850+76943785+77379398+77841759+78351990+78868788+79335069
3101+79732949+80081413+80392031+80688465+81012862+81367408+81728702+82047457
3086+82250243+82364480+82485210+82616376+82741771+82900347+83082911+83217126
3071+83269422+83269564+83255220+83226224+83157665+83054705+82934776+82776031
3055+82562719+82316362+82047452+81746252+81401775+81021632+80630161+80221580
3040+79779027+79323967+78849493+78272640+77545919+76762796+76033348+75324629
3024+74537955+73638783+72637437+71527427+70299640+68980340+67613414+66190645
3009+64633391+62876371+60950358+58931261+56799542+54457279+51866609+49076355
2993+46056222+42776510+39249207+35468759+31475049+27405057+23470270+19914360
2978+16951915+14716383+13178066+12121660+11310833+10637461+10148998+10069844
2963+10680981+12114463+14288070+16845563+19218139+20916968+21707173+21575682
2947+20648224+19165151+17497203+16068555+15252198+15258969+16033808+17358264
2932+19031534+20912758+22920861+25029584+27232544+29531177+31914795+34279544
2916+36461520+38337265+39746085+40564128+40922486+41073577+41169794+41237026
2901+41188598+40885914+40218728+39124433+37572766+35556425+33101291+30300362
2885+27324182+24461202+22250818+21386000+22270204+24705450+28105576+31996483
2870+36173893+40523823+44952695+49350314+53551336+57475125+61220691+64993950
2855+69014673+73396153+78029903+82647598+87063801+91185247+94856269+98029269
2839+100843285+103425846+105849029+108156236+110390926+112619404+114862056
2826+117077174+119225139+121280201+123209834+124995212+126643427+128191737
2812+129706810+131231934+132769176+134310947+135810874+137192985+138456172
2799+139634295+140702416+141658446+142544240+143334398+143942455+144362358
2785+144707327+145039918+145306236+145490167+145640770+145774556+145876155
2772+145912182+145877397+145840884+145825649+145806461+145823684+145906569
2758+146036413+146177586+146261002+146246546+146148967+145982949+145763691
2745+145529153+145316649+145180266+145235481+145587271+146241170+147081247
2731+147915247+148587589+149051583+149388081+149743666+150237803+150959995
2718+151920046+152986846+154003986+154922126+155746922+156464755+157076912
2704+157615818+158091309+158485021+158797419+159050467+159253247+159385825
2691+159423456+159356224+159190341+158964928+158708864+158410030+158124501
2677+158013573+158202146+158706334+159459076+160313033+161116586+161806162
2664+162413191+163005483+163596057+164168166+164724747+165251195+165726596
2650+166155330+166565509+166981222+167399928+167823863+168250926+168656971
2637+169031349+169358553+169617180+169850724+170110154+170345042+170498039
2623+170600022+170677136+170713118+170695996+170623253+170524184+170454163
2610+170431699+170435596+170436612+170410523+170370882+170328892+170246989
2596+170132956+170029098+169926461+169827787+169759200+169716328+169681510
2583+169659859+169698168+169810135+169947659+170113000+170327300+170568185
2569+170836988+171117605+171365978+171593784+171817401+172015969+172180305
2556+172311979+172427876+172563085+172702202+172814654+172944894+173121709
2542+173304601+173496437+173748209+174061059+174405745+174778507+175168595
2529+175543198+175897089+176270744+176696384+177159282+177625501+178072294
2515+178491147+178917013+179409083+179946566+180450427+180901579+181345414
2502+181805692+182252892+182656363+182993369+183262251+183499026+183723603
2488+183937913+184138773+184351097+184627354+184927215+185178874+185421194
2475+185686428+185934078+186181582+186482121+186816891+187159477+187529326
2461+187910728+188260880+188589642+188912712+189237352+189598923+189988242
2448+190365613+190734332+191079922+191385509+191693152+192013760+192322871
2434+192626764+192920899+193201008+193498170+193826503+194131209+194349021
2421+194506095+194663937+194816222+194918363+194985358+195072049+195196506
2407+195364580+195571889+195780259+195978262+196191353+196408781+196599059
2394+196785022+197026009+197342777+197677886+197942454+198101268+198183283
2380+198216735+198225906+198272436+198369766+198400305+198276389+198148860
2367+198251633+198584868+198991828+199371841+199679280+199914101+200014932
2353+199816974+199593493+199845954+200390473+200672772+200722239+200890584
2340+201176136+201534443+201966769+202442869+202906502+203332368+203799005
2326+204349351+204862427+205192657+205390344+205629569+205968518+206310336
2313+206595142+206894066+207254677+207650546+208066587+208470001+208799553
2299+209059265+209312427+209587317+209861643+210101930+210303276+210504328
2286+210734517+210954543+211108794+211216468+211327260+211443225+211547670
2272+211644164+211745402+211861953+211999241+212156812+212342956+212561581
2259+212789399+212996098+213163065+213289939+213412183+213590445+213745508
2245+213885664+214027740+214180996+214364114+214614881+214920536+215243358
2232+215569387+215875810+216163756+216447727+216694880+216909981+217154785
2218+217429608+217667659+217841199+217974330+218068023+218117422+218148616
2205+218202148+218323511+218553114+218926532+219416321+219945412+220498310
2191+221072306+221617095+222106432+222562475+223007857+223430674+223803843
2178+224118036+224383892+224642632+224934464+225245991+225553702+225863423
2164+226182901+226519637+226867033+227189810+227473216+227760756+228096565
2151+228454172+228779365+229068079+229354557+229665633+229980549+230234320
2137+230428122+230647854+230912535+231171321+231418248+231666982+231914700
2124+232159933+232398752+232648706+232922015+233199052+233503487+233861003
2110+234225928+234568242+234916046+235311735+235747201+236171237+236575125
2097+236978630+237358191+237701590+238006341+238278205+238502364+238643695
2083+238686385+238659416+238596509+238498728+238361802+238194338+238025067
2070+237896430+237829074+237841768+238028545+238431552+238960395+239530641
2056+240131041+240769772+241407306+242001698+242545155+243000679+243322258
2043+243511384+243629630+243760638+243947776+244198339+244521680+244974855
2029+245584087+246284121+247014015+247769457+248533007+249236339+249855283
2016+250447665+251016465+251519151+251969841+252419763+252885202+253311068
2002+253672153+254002316+254313550+254618188+254886122+255106554+255419595
1989+255780906+256079739+256337305+256587598+256875522+257199112+257525005
1975+257832219+258114608+258392616+258624048+258806646+259048085+259286926
1962+259410344+259444474+259449556+259425229+259337725+259174665+258927535
1948+258579619+258156734+257659966+257271098+257248240+257474296+257835810
1935+258378567+259099404+259930310+260806640+261713486+262577957+263473102
1921+264532572+265511676+266475623+267519711+268359833+268945189+269430032
1908+269940353+270463390+270944777+271378277+271787948+272182101+272538194
1894+272911160+273234998+273439212+273825256+274352563+274724400+275002498
1881+275276846+275555328+275821275+276081754+276381220+276555574+276720350
1867+277288382+278032259+278571718+278959207+279321038+279689689+280056918
1854+280379875+280613408+280736962+280824828+280714171+280667618+281191695
1840+281773280+282111212+282517156+283067344+283482526+283742486+284302297
1827+284932490+285426254+286048338+286586713+286909896+287248371+287707892
1813+288103220+288403544+288795032+289238516+289613764+289862814+290049839
1800+290367014+290804964+291119948+291145494+291303585+291956501+292519722
1786+292676435+292803987+292978814+293089109+293292646+293515811+293471969
1773+293367433+293743516+294240759+294615848+294850691+294772787+294840730
1759+295155691+295333117+295540854+295606449+295418859+295525698+295931529
1746+296240753+296371670+296386104+296483637+296816329+296658216+296327783
1732+296926444+297675809+297942342+297967844+297903221+297877561+297621102
1719+296996059+296811925+297259678+297658168+297672692+297369454+296899881
1705+296669171+296486573+295682456+295296977+295376056+295188669+295210308
1691+294968508+294317354+293555701+292298635+291245761+291304714+291396555
1678+290783641+289726159+289146766+289023076+288680513+288686295+289191263
1664+289331600+289238471+289599940+290209285+290449955+289831440+289615028
1651+291158663+292284134+292251156+292691207+293744172+294500381+294942419
1637+295220924+295899929+297545930+299143233+299987601+300702972+301623551
1624+302479372+303511488+304586634+305112743+305777586+307182646+308351484
1610+308910572+309354598+309897581+310419896+310872799+311337132+311800629
1597+312168806+312449366+312726900+313015569+313271441+313463029+313577954
1583+313625478+313633926+313480195+312868772+312414288+312747432+312694283
1570+311910924+311512118+311410316+311115819+310288436+308455704+307261905
1556+307771797+307993426+307400909+306506216+305586088+304574278+303292705
1543+301813038+300119445+298999937+298720258+297665125+295769283+294267277
1529+292841256+290904937+288856380+286730799+284304013+282245699+280379356
1516+278298182+276168604+273886559+271197373+267515329+263434410+260342172
1502+257358331+253182839+247785652+241752874+235729131+229133018+220687797
1489+210521697+199759805+189112330+178930159+169770618+162230808+156170100
1475+150531238+143890798+136327452+129776312+125443440+122994033+121188236
1462+118848209+116607465+117788456+125793400+139277942+154011937+167416677
1448+178202478+185426829+188874076+189679583+189807564+190673594+192846586
1435+195975755+198695592+200438245+201805448+203170754+204471211+205871617
1421+207427155+209199783+211603665+214314602+216835058+219291547+221808931
1408+224209606+226285742+228104177+229518701+230063333+229649280+227932173
1394+224426221+219397099+212995443+205411734+198445186+194874588+196613018
1381+204417655+217155666+231308427+242966933+250398108+254243325+256295315
1367+258269152+260550497+262528310+263857836+264404162+264101579+263213210
1354+262076603+260807860+259465480+258634552+259566018+263086900+268369477
1340+273785525+278708056+283395925+288199375+293397859+299119358+305328093
1327+311881628+318580717+325200004+331593935+337727634+343510820+348721433
1313+353156705+356680637+359079889+360213468+360147784+359142931+357702951
1300+356385756+355529959+355256107+355643371+356725835+358445223+360642135
1286+362988667+365066137+366538982+367179226+366912715+366062949+365438967
1273+365952586+368036063+371343877+375149092+378894833+382244909+384935946
1259+386744669+387462773+386878116+384780499+380959134+375274295+367781930
1246+358827179+349122566+339679629+331618194+326173076+324745135+328443646
1232+337391079+350511746+365882971+381409620+395481766+407279615+416740870
1219+424259865+430262872+435048049+438915899+442146328+444871654+447174276
1205+449133928+450763847+452113770+453267001+454253852+455059551+455699411
1192+456157894+456418961+456534338+456547981+456428990+456165122+455822920
1178+455425424+454922263+454289224+453484745+452447840+451191475+449697668
1165+447888540+445774253+443431018+440910788+438188173+435153171+431645006
1151+427441098+422329667+416176948+408961801+400892799+392464880+384350883
1138+377158866+371208758+366438783+362535764+359238860+356407689+353841696
1124+351209996+348107029+344079168+338548602+330729102+319716826+304648207
1111+284947646+260759500+233401414+205880765+182772982+168545084+165181851
1097+171176761+182852242+196545549+209728625+220775731+228246727+230581537
1084+226282196+214061282+193065821+163699926+128936856+94855738+68631599
1070+54877086+53386769+58937850+63322753+60640885+51558520+41289390+34746169
1055+34850707+43864135+64522926+99426886+149166859+210422651+275923190
1042+337175797+387698677+424199330+446050815+454215769+449816976+432712720
1028+401043368+352487526+287886492+216136425+154186144+118483679+116014993
1015+143136700+189189150+242751448+297469336+351289391+402019105+445940588
1001+479753997+502186615+513882549+516436751+511465453+500141130+483051060
988+460265037+431450707+395772694+351988815+299142849+238251146+174666722
974+117926771+76986860+55707630+54271609+73915916+117429867+184747034+269935361
959+362325903+450107497+524529425+582293970+624555628+654437490+675309488
945+689915604+700081049+706982003+711444358+714011028+715053851+714848485
932+713526886+711136896+707677203+703036497+697037238+689493216+680119556
918+668505932+654411921+638039232+620192748+602474562+587254381+577582520
905+576149158+582462067+591314858+595473907+589671386+572029140+543958348
891+510988720+483932788+475901326+492900776+527963097+568490210+606335049
878+638041310+661390531+675428479+680864810+678850541+669705467+652652078
864+627326671+597297221+573081404+568216720+587375134+620560926+652966001
851+676835233+692043262+701049965+705994791+708218853+708621951+707822125
837+706210321+704087451+701653189+698957679+695968575+692721432+689320331
824+685863078+682295236+678476672+674494167+670468430+666323837+662015032
810+657554033+652970382+648503284+644424014+640765009+637442287+634233497
797+630837637+627139374+623229511+619188324+614927812+610314753+605360666
783+600202614+594748123+588697772+581874519+574193571+565934562+558220953
770+552736194+550101490+548548820+545191946+538213742+527509539+515150480
756+506104068+505592414+513793599+525229098+534375301+539651125+542008364
743+542505200+541748245+540253581+538474177+536484754+534196950+531736893
729+529375272+527166434+525001596+522946624+520725634+518363380+515960199
716+513629387+511485511+509533222+507605238+505579223+503556326+501678757
702+499927091+498197922+496483164+494870547+493425756+492135057+490953456
689+489882715+488922021+488009121+487119261+486331678+485728500+485290075
675+484882008+484414039+484106351+484396330+485254838+485891537+486031715
662+486162000+486752485+487763459+488900201+490054381+491274290+492577954
648+494010187+495726571+497789764+500014188+502242813+504535858+506927475
635+509378588+512008639+514976194+518214845+521520400+524935324+528510258
621+532248682+536121049+540076584+544116868+548230968+552444995+556870668
608+561435886+566063582+570808734+575694289+580632067+585594059+590729749
594+596073923+601612576+607363958+613118864+618649430+623966724+629356073
581+635130404+641227286+647138046+652620320+658016762+663858494+670021061
567+675898210+681535977+687444930+693649555+699646283+705272033+710878539
554+716585062+722263668+727855130+733524158+739439661+745306331+750802067
540+756086203+761308584+766404791+771433868+776416415+781358033+786323142
527+791312826+796319677+801162452+805908100+810628902+815182194+819367310
513+822686146+825238632+827392402+829150437+830231298+830267709+829702116
500+828307379+825285704+820895494+815228996+807910714+799062440+789265308
486+779850268+773334567+771786325+774787129+779768952+783382692+782819539
473+777228483+767966496+757968425+751863637+754082550+767252729+791336588
459+822939759+856703838+885829604+907469218+924099451+936880943+946528997
446+954660341+962105204+969296724+975995203+981492295+986293599+991399112
432+996859341+1002540837+1008656105+1015236858+1021811015+1027347770+1030925912
419+1036472425+1045454869+1052420333+1055704204+1056856350+1057834211
407+1060429342+1064244654+1067067196+1069068636+1073741823
##END=
