##TITLE=2
##JCAMP-DX=4.24
##DATA TYPE=INFRARED SPECTRUM
##DATE=16/11/2015
##SAMPLING PROCEDURE=Instrument type and / or accessory
##ORIGIN=Default
##XUNITS=1/CM
##YUNITS=TRANSMITTANCE
##RESOLUTION=4
##FIRSTX=3996.3359
##LASTX=399.24785
##DELTAX=-1.9287336
##MAXY=0.71150208
##MINY=0.0066003543
##XFACTOR=1
##YFACTOR=6.6263795e-010
##NPOINTS=1866
##FIRSTY=0.04266404
##XYDATA=(X++(Y..Y))
3996+64385145+64497571+64566906+64545144+64438918+64366907+64432678+64595123
3981+64734580+64774945+64756089+64790405+64919153+65058880+65134826+65201328
3965+65298547+65336175+65313226+65341780+65394159+65429527+65525594+65640444
3950+65627648+65536309+65546097+65646386+65746428+65826169+65836277+65803873
3935+65829863+65924120+66032156+66111104+66138933+66136150+66182581+66251916
3919+66212181+66088414+66058506+66121044+66153308+66179467+66252844+66284580
3904+66237507+66196051+66196670+66265802+66395702+66483567+66418921+66348501
3888+66421170+66494294+66539112+66561155+66489144+66469091+66544407+66580562
3873+66597759+66538105+66421203+66403472+66424278+66427860+66457948+66580180
3857+66795651+66851532+66569447+66318412+66298466+66347528+66367964+66385212
3842+66437321+66455733+66379882+66361336+66444169+66431137+66288982+66146365
3827+66092170+66180310+66233876+66168931+66216768+66284658+66245384+66234798
3811+66307691+66346010+66254008+66255897+66363573+66322528+66250269+66228153
3796+66151554+66083608+66063655+66020974+65968938+65968831+66002438+65981643
3780+65858040+65768921+65811710+65894385+65913601+65837807+65776005+65775921
3765+65778883+65793854+65778529+65669942+65584972+65696781+65900609+65911572
3749+65774942+65765537+65678909+65407354+65300307+65416152+65522502+65478167
3734+65328731+65155402+65083633+65070972+64999754+64892882+64790996+64689790
3719+64585644+64539848+64572500+64520959+64287841+64034242+63882670+63741942
3703+63458215+63096401+62841531+62630738+62326182+61959341+61584709+61114009
3688+60591070+60241651+60099777+60080662+60166070+60268052+60166992+59985843
3672+59853807+59598747+59349910+59295754+59319523+59259566+59120969+58960306
3657+58751862+58581322+58508867+58331012+57939266+57529777+57238821+56957158
3641+56629187+56325317+56088815+55892722+55739688+55611385+55307015+54875191
3626+54611433+54479307+54291355+53984573+53638910+53304913+52898988+52467872
3611+52073523+51589848+51036455+50570394+50181133+49793558+49431693+49093923
3595+48711892+48302757+47904147+47436871+46877347+46340078+45879509+45449189
3580+44997572+44515575+44006261+43469461+42967214+42522153+42013058+41425636
3564+40912707+40464143+39969595+39462741+39002492+38530940+38019406+37532118
3549+37057171+36508352+35885022+35282393+34779693+34330014+33825352+33298922
3533+32852846+32455737+32019968+31534474+31027516+30535225+30106150+29710221
3518+29240033+28694696+28217447+27868841+27526891+27118203+26692383+26239963
3503+25761926+25339637+24991292+24678562+24357025+23976057+23533321+23072295
3487+22630974+22234316+21861662+21466467+21106582+20841041+20582048+20246686
3472+19834728+19405104+19068415+18863669+18672274+18361391+17981537+17664497
3456+17437858+17237899+16968264+16641368+16376349+16156688+15863122+15518393
3441+15250547+15093489+14961324+14755472+14482949+14249972+14080707+13880610
3425+13619988+13377581+13205495+13095445+13016325+12882052+12618226+12308075
3410+12106164+12042628+12037022+11967244+11773036+11594210+11540796+11471354
3395+11264919+11037752+10965776+11016602+11036911+10988224+10895182+10783620
3379+10715673+10708803+10702547+10657817+10595308+10524585+10447186+10400368
3364+10398223+10428042+10472301+10490761+10506631+10548620+10546908+10531255
3348+10615132+10731130+10762029+10753374+10799925+10923712+11064232+11162287
3333+11252679+11375036+11495897+11581088+11664657+11839905+12132778+12419336
3317+12608756+12741534+12833003+12892453+12971903+13074437+13206064+13417815
3302+13716264+14033314+14317039+14587276+14838276+15043242+15275365+15605217
3287+15950554+16226030+16490471+16818047+17197636+17555062+17813519+18028137
3271+18342011+18772034+19220901+19626044+19998851+20404562+20883470+21382971
3256+21857734+22358934+22895623+23368054+23775065+24267482+24911402+25586466
3240+26164441+26667512+27197371+27810255+28522196+29305967+30064941+30747435
3225+31407096+32086535+32777161+33490910+34268015+35109694+35957778+36768848
3209+37570614+38371944+39123478+39866846+40693545+41558768+42387396+43224043
3194+44126775+45052237+45953325+46862674+47769823+48628642+49459690+50290035
3179+51149383+52074333+53025178+53938103+54812248+55678916+56566716+57477679
3163+58377016+59234008+60039785+60803949+61540273+62271279+63053910+63883940
3148+64672773+65404234+66141879+66919147+67714355+68475831+69199821+69935414
3132+70666329+71325419+71932153+72544075+73122772+73635406+74152121+74707858
3117+75251851+75765243+76292545+76839922+77345444+77797957+78262209+78738216
3101+79139643+79453654+79747630+80045394+80340409+80631950+80926100+81216095
3086+81462374+81662019+81850814+82027769+82160255+82234324+82291959+82367748
3071+82428791+82444825+82432400+82408861+82343338+82203684+82034780+81895980
3055+81778297+81631065+81409916+81116019+80805319+80506953+80153436+79686947
3040+79152691+78612948+78084242+77539108+76913434+76206496+75495982+74784687
3024+73986691+73072276+72068113+70946154+69671302+68302227+66922031+65526297
3009+64026888+62342188+60480150+58476226+56304342+53953552+51425638+48667495
2993+45655586+42444421+39012499+35290655+31311872+27236126+23301319+19771550
2978+16867466+14672888+13142167+12100656+11268431+10529821+10024278+9960725
2963+10563190+11992129+14158297+16671291+19014930+20767616+21646617+21554668
2947+20647188+19201321+17527555+16051360+15231651+15276633+16057886+17333101
2932+18907501+20667203+22592775+24672861+26877979+29210332+31642379+34033399
2916+36179681+37946340+39284687+40187984+40696398+40902068+40944395+40937235
2901+40883164+40637779+39995315+38878872+37321443+35349856+32979862+30230267
2885+27214765+24285205+22063430+21215204+22084869+24482411+27836051+31667700
2870+35810754+40192307+44638009+48945561+53057633+57002498+60805967+64580079
2855+68517192+72775152+77333464+81933119+86281216+90258475+93867532+97097004
2839+99931751+102462206+104825814+107092983+109315504+111531334+113733661
2826+115914861+118060586+120113404+122010483+123776718+125464562+127033209
2812+128476769+129911514+131409978+132937192+134424839+135809549+137075715
2799+138252403+139343830+140330205+141186972+141880795+142430145+142903229
2785+143303947+143601897+143860348+144130863+144336681+144451997+144542162
2772+144596053+144583438+144524126+144448040+144414645+144469392+144582111
2758+144687904+144771434+144860339+144908710+144824932+144613357+144363452
2745+144145693+143984210+143898678+143931330+144175557+144737635+145572950
2731+146462403+147187270+147663052+147966118+148260830+148691547+149347938
2718+150257125+151337127+152428756+153432131+154316660+155046260+155621438
2704+156103865+156542239+156942834+157300612+157599743+157801400+157903472
2691+157937698+157886471+157743911+157541882+157265318+156924518+156632212
2677+156542711+156757311+157258223+157946468+158716321+159487984+160210400
2664+160865611+161474396+162058479+162629192+163186279+163702943+164188755
2650+164679356+165142636+165554913+165955013+166336133+166677788+167020364
2637+167366472+167674755+167973683+168293030+168578195+168799620+168967738
2623+169055867+169074003+169081098+169068505+169003043+168932151+168918242
2610+168937019+168918366+168856727+168799395+168750563+168668405+168549625
2596+168453681+168400453+168340546+168252282+168175476+168141452+168118020
2583+168075451+168050073+168099175+168247189+168463846+168694861+168927552
2569+169189960+169480242+169750161+169967965+170147225+170326238+170531539
2556+170742271+170917472+171044572+171142483+171237595+171335067+171452621
2542+171632635+171889522+172206643+172537256+172862225+173220397+173604216
2529+173972878+174336503+174720468+175115554+175520061+175954084+176409931
2515+176870253+177316160+177747102+178231216+178792586+179311938+179688673
2502+180009639+180400879+180833575+181216562+181534200+181824133+182085136
2488+182290358+182491330+182729283+182955610+183177113+183430942+183690506
2475+183954162+184250954+184564206+184841884+185092396+185386444+185736285
2461+186095513+186455360+186842631+187235828+187595551+187937678+188282784
2448+188631894+188979575+189314573+189649572+189997613+190320445+190585102
2434+190830690+191117655+191460479+191812792+192131690+192425176+192693138
2421+192916553+193075990+193160027+193205857+193248965+193277367+193349013
2407+193552998+193822153+194048378+194244650+194424821+194581785+194738704
2394+194948941+195220074+195526378+195839653+196115869+196325904+196482463
2380+196609743+196733155+196862256+196936443+196894211+196789734+196688157
2367+196539581+196358038+196364920+196766391+197460113+198063096+198305468
2353+198191298+198090104+198409473+198895049+198998717+198858281+199004496
2340+199444287+199953699+200443795+200922242+201363674+201748752+202144782
2326+202591207+203030525+203371348+203585385+203759259+204016653+204368584
2313+204738933+205097746+205465261+205853938+206241692+206594163+206909305
2299+207204725+207485978+207761249+208045650+208324182+208561382+208757002
2286+208949923+209157079+209338644+209462416+209560867+209679040+209810525
2272+209914620+209975449+210028430+210114153+210230167+210369253+210555743
2259+210799171+211055081+211260145+211391203+211490599+211635329+211776799
2245+211945276+212126819+212291293+212476029+212734840+213050161+213369328
2232+213676127+213983263+214275310+214535807+214795966+215078726+215348465
2218+215570666+215765588+215943690+216073871+216156086+216210034+216234253
2205+216261688+216363400+216591537+216955634+217430730+217983904+218563860
2191+219127940+219672455+220173278+220610752+221023108+221420959+221772981
2178+222105123+222458336+222798259+223081941+223328945+223572621+223826327
2164+224103689+224405113+224729812+225089794+225457985+225799887+226125283
2151+226452905+226786891+227106890+227405234+227694740+227961893+228217667
2137+228486012+228737042+228957533+229186525+229439600+229681500+229900709
2124+230146454+230431013+230704755+230968040+231262066+231579074+231908113
2110+232244416+232552789+232852144+233213566+233648679+234095935+234494686
2097+234873850+235249619+235601325+235895688+236128750+236317961+236480007
2083+236594649+236625727+236571150+236441283+236251218+236036056+235830609
2070+235682123+235642837+235727661+235955843+236315937+236786244+237378726
2056+238051083+238722812+239359414+239956191+240481750+240893835+241180890
2043+241367380+241510019+241642022+241789765+242039895+242435880+242932857
2029+243487919+244109433+244807921+245550845+246278388+246944336+247565782
2016+248187790+248785894+249324113+249803977+250237583+250649737+251052805
2002+251442066+251797281+252115391+252438111+252736185+252961758+253219197
1989+253509872+253802099+254112765+254401349+254667558+254938107+255217785
1975+255512531+255822838+256117133+256341875+256532008+256779079+257017966
1962+257177245+257268568+257293282+257243674+257109175+256893811+256622386
1948+256290333+255915509+255480936+255096892+254992212+255129454+255466588
1935+256051020+256827023+257667049+258509593+259394032+260292840+261273076
1921+262417674+263402453+264242186+265116640+265883941+266525603+267118760
1908+267682885+268156452+268532467+268884894+269277505+269691615+270060930
1894+270457724+270866752+271153671+271491526+271902015+272239150+272560385
1881+272877776+273169238+273434277+273713889+274093188+274426342+274699634
1867+275161148+275682704+276081522+276441549+276829303+277218564+277584865
1854+277900300+278143593+278348366+278616261+278689413+278629304+278916988
1840+279271191+279513090+279907636+280537132+281150168+281590858+282173535
1827+282737210+283118690+283572783+284002005+284331134+284692443+285151348
1813+285580345+285929825+286322482+286750151+287160258+287496606+287753662
1800+288082207+288537919+288956886+289094375+289167055+289555214+289931387
1786+290057476+290223569+290472485+290655984+290918167+291282220+291474579
1773+291492569+291730151+291974951+292176328+292391940+292395807+292495225
1759+292768405+292922221+293179569+293416004+293436063+293577308+293844618
1746+294044736+294177638+294206714+294267836+294672973+294811924+294678820
1732+295053441+295402967+295404653+295333907+295283557+295423206+295558244
1719+295350705+295216499+295326441+295357182+295247330+295088724+294854291
1705+294818446+294927758+294515829+294264980+294091285+293448004+293020537
1691+292574809+292072053+291757024+290991365+289994240+289609050+289314731
1678+288709342+287874826+287457118+287421700+287102060+286933628+287181757
1664+287219873+287084183+287303392+287877322+288525775+288624878+288698593
1651+289878541+290691897+290572195+290766218+291481798+292164904+292882710
1637+293537977+294255805+295506117+296730929+297525620+298394699+299494682
1624+300452835+301455447+302524171+303155220+303736188+304748446+305591373
1610+306111647+306646807+307245608+307778475+308214645+308638133+309071357
1597+309451713+309756982+310015523+310239927+310433343+310585472+310659726
1583+310667012+310732136+310845114+310587968+310240512+310425360+310313372
1570+309589697+309128003+308886104+308693070+308469903+307512446+306617888
1556+306570597+306085876+305066219+303968058+303000235+302179998+301391694
1543+300536737+299174121+297770330+296974942+295706977+293762449+292099915
1529+290581865+288795267+287022522+285179345+282919203+280791018+278715499
1516+276433633+274189637+271989919+269666609+266433719+262379423+258824442
1502+255468545+251302980+246071366+240052888+233919700+227370198+219158231
1489+209137875+198337198+187627742+177458023+168366576+160928194+155019354
1475+149587994+143119245+135567211+128930030+124589253+122213333+120427264
1462+118083085+115970034+117333178+125299356+138463967+152827102+165982256
1448+176628117+183780479+187223673+188065588+188252010+189225118+191482112
1435+194554215+197156147+198833770+200138997+201433858+202749092+204263724
1421+205960012+207790213+210073518+212578730+214972449+217372915+219814442
1408+222149581+224240751+226106933+227562288+228186117+227867467+226172417
1394+222580871+217439905+211037023+203582507+196745770+193205092+194878127
1381+202547356+215122599+229154907+240735140+248060893+251812280+253868797
1367+255909932+258272843+260324885+261653859+262123334+261754874+260838705
1354+259670405+258365762+257013783+256198718+257167778+260744144+266068947
1340+271462764+276279233+280837882+285541059+290622005+296176721+302225828
1327+308665140+315316511+321981644+328457611+334620483+340379364+345539085
1313+349890127+353313578+355638417+356735297+356660165+355672014+354271439
1300+352974487+352081030+351756444+352168080+353353336+355147445+357312981
1286+359569706+361577514+362991694+363560856+363268292+362471825+361923779
1273+362467597+364524204+367795346+371571290+375270731+378574052+381260155
1259+383107200+383851945+383238708+381096400+377273345+371636571+364228987
1246+355415070+345897223+336585812+328553296+323125365+321742600+325435992
1232+334296751+347283023+362474973+377785906+391657269+403317468+412723282
1219+420224888+426197514+430970920+434826785+437965339+440566034+442775804
1205+444670972+446306318+447718542+448899683+449899213+450716639+451332080
1192+451765732+452075027+452259560+452276381+452116404+451817948+451468175
1178+451103651+450650570+450029506+449217748+448195640+446906289+445320955
1165+443475305+441384000+439046185+436521588+433846864+430924100+427535573
1151+423411116+418336781+412217085+405066107+397068874+388696412+380639362
1138+373516021+367635571+362941142+359123978+355881823+353060434+350514901
1124+347929993+344847500+340804628+335315441+327640725+316780546+301825616
1111+282279317+258311454+231183382+203879208+181006426+167001025+163729063
1097+169670352+181242681+194796250+207788706+218662333+226046868+228394780
1084+224190019+212154591+191471498+162478818+128003146+94137890+68168178
1070+54618950+53140033+58556006+62805377+60085025+51059027+40881022+34422264
1055+34577428+43564196+64061705+98605059+147728075+208164790+272865992
1042+333554119+383728443+419927241+441517306+449588434+445291092+428484462
1028+397297258+349276035+285236104+214163637+152870165+117579114+115201688
1015+142119636+187786257+240891114+295108086+348336457+398403830+441771776
1001+475217008+497374212+508855454+511345375+506497940+495374791+478490174
988+455943620+427426104+392141383+348842159+296503489+236178988+173223118
974+117038635+76524477+55463394+53987902+73478307+116740877+183537567+267894988
959+359230929+445887868+519353627+576421267+618181123+647722051+668317848
945+682655965+692666021+699567342+704113937+706761092+707841623+707666984
932+706396387+704039908+700557787+695887645+689945962+682546990+673356023
918+661942558+647991408+631727630+614086169+596600008+581510084+571893831
905+570485790+576769196+585559883+589694639+583923502+566447191+538710265
891+506046389+479107055+470983891+487658968+522197639+562171391+599656257
878+631265779+654624676+668674367+674177721+672301173+663348035+646526968
864+621440885+591692081+567789523+563052727+581985653+614739030+646747887
851+670349606+685398512+694307844+699206775+701500289+702054340+701280180
837+699531317+697320062+694959355+692380113+689480288+686426737+683260252
824+679794863+676042306+672157926+668214315+664225323+660167339+655940563
810+651483828+646881733+642372512+638253497+634698067+631619599+628638683
797+625400508+621743164+617692556+613451343+609090406+604513182+599686931
783+594678574+589329980+583261691+576335499+568658670+560576074+553111303
770+547830216+545200152+543527792+540214688+533402913+522805120+510567438
756+501733755+501359740+509445980+520648825+529686831+534974529+537239889
743+537460807+536567238+535262776+533678747+531730778+529536704+527228843
729+524921341+522658995+520424534+518342628+516138570+513839569+511548753
716+509273724+506998965+504828233+502874642+501076576+499300098+497479948
702+495618737+493811990+492182041+490706178+489292560+487953916+486721458
689+485575803+484566828+483783404+483153390+482487891+481759606+481082953
675+480467152+479931496+479737473+480161185+480936604+481361440+481426250
662+481650137+482317300+483303652+484383959+485458823+486658763+488142632
648+489859203+491726667+493709896+495782312+498004090+500398979+502848062
635+505296921+507929908+510891350+514009486+517080217+520332604+523842699
621+527539172+531372549+535260887+539271017+543454122+547778540+552296036
608+556916705+561573850+566358050+571286395+576251710+581201149+586260552
594+591431090+596592362+601849432+607362186+613041753+618669059+624274508
581+630056888+636030774+641942459+647650001+653156278+658686078+664343113
567+669984766+675771285+681837325+687955536+693794271+699276847+704714717
554+710344362+716124719+721920098+727724561+733564915+739225143+744646688
540+750162860+755783555+761027671+765806024+770531486+775407885+780286623
527+785124073+790037802+794869765+799655584+804280751+808280762+811508907
513+814158400+816875447+819744959+822122082+823539073+823856239+823449482
500+821986796+818851570+814165866+808125148+801016896+792894811+783649784
486+774247973+767300283+765335493+768067651+772859226+776731418+776778012
473+771563759+762366136+752280925+746191993+748679890+761804754+785262147
459+816407254+850064769+878810985+899881540+916153684+928901925+938710043
446+946865049+954064871+960738212+966547218+971012273+975538675+981275720
432+987586291+994164554+1000149234+1005013130+1010191133+1016200909+1022387437
419+1030449255+1037896351+1040948373+1042399275+1043575918+1044364155
407+1047290786+1052586084+1057869779+1064067822+1073741823
##END=
