##TITLE=2
##JCAMP-DX=4.24
##DATA TYPE=INFRARED SPECTRUM
##DATE=16/11/2015
##SAMPLING PROCEDURE=Instrument type and / or accessory
##ORIGIN=Default
##XUNITS=1/CM
##YUNITS=TRANSMITTANCE
##RESOLUTION=4
##FIRSTX=3996.3359
##LASTX=399.24785
##DELTAX=-1.9287336
##MAXY=0.69418579
##MINY=0.0065626954
##XFACTOR=1
##YFACTOR=6.465109e-010
##NPOINTS=1866
##FIRSTY=0.042159103
##XYDATA=(X++(Y..Y))
3996+65210196+65337914+65392816+65378077+65348805+65367117+65436430+65502775
3981+65552589+65624748+65723638+65839728+65965049+66059554+66130457+66227976
3965+66335740+66404995+66444644+66494775+66540140+66546951+66549118+66588744
3950+66643795+66682707+66713512+66720559+66714779+66780664+66877272+66900787
3935+66877341+66837968+66819524+66919249+67087671+67147188+67099714+67099034
3919+67160216+67195308+67221353+67299360+67372857+67399587+67443645+67462193
3904+67380538+67316607+67323129+67292849+67267455+67314665+67289023+67193164
3888+67239964+67316416+67287836+67337483+67444837+67512785+67592429+67617229
3873+67563555+67460764+67352021+67393232+67497284+67452409+67317880+67273097
3857+67448802+67707925+67648143+67340064+67207062+67219682+67187886+67121748
3842+67143131+67263837+67334291+67323999+67316520+67287179+67241192+67210716
3827+67170744+67198598+67261232+67188716+67128980+67152253+67102658+67090909
3811+67222453+67346858+67292279+67193821+67213441+67145263+67006655+67005837
3796+67012210+66936478+66877422+66899035+66989622+67033437+66987386+66966101
3780+66957227+66881588+66824024+66838798+66861460+66842434+66813387+66805562
3765+66778658+66743653+66700725+66611654+66565205+66638114+66731605+66662315
3749+66504945+66577404+66683595+66435194+66185906+66273353+66429438+66428510
3734+66336218+66189018+66033515+65968189+65957760+65934400+65893333+65801214
3719+65663954+65580968+65604973+65559763+65277009+64938638+64757586+64701514
3703+64581033+64270546+63855689+63438550+63064304+62766839+62451102+61963532
3688+61423349+61107692+60993129+60906749+60883435+60961743+60911975+60740488
3672+60724331+60682630+60446774+60260087+60166406+60018203+59843408+59731617
3657+59601975+59425618+59321289+59177137+58803226+58359022+58071502+57884429
3641+57658333+57377486+57077711+56773498+56533718+56412367+56227541+55854182
3626+55518964+55298326+55058903+54712915+54289967+53931066+53640285+53327487
3611+52964921+52512760+52027466+51620837+51243440+50813013+50376087+49971826
3595+49538427+49089486+48716733+48309937+47707205+47086265+46653997+46291740
3580+45848351+45342092+44811966+44269618+43782737+43371153+42912129+42360567
3564+41822518+41306731+40771906+40271608+39866621+39491534+38996767+38395963
3549+37827196+37288032+36731498+36204446+35728905+35245956+34709535+34154277
3533+33644370+33201086+32790034+32334439+31778720+31194271+30716803+30324755
3518+29876857+29358552+28879390+28496244+28138899+27710982+27235288+26782326
3503+26361594+25961488+25568443+25181120+24828820+24494186+24103219+23645390
3487+23183187+22759455+22367755+21988917+21637256+21322691+21004990+20636778
3472+20219790+19832799+19553604+19331953+19050985+18694880+18374971+18168127
3456+17973540+17679049+17368719+17149056+16947953+16674555+16369302+16057449
3441+15699849+15334605+15062754+14893697+14726743+14537532+14410933+14328945
3425+14173608+13937107+13732236+13610627+13471169+13225039+12962219+12791976
3410+12662596+12496652+12330408+12154135+11906226+11720525+11714905+11706145
3395+11531056+11288945+11156559+11163153+11195282+11164083+11076097+10971514
3379+10890140+10850581+10822992+10762985+10658427+10545541+10487150+10510307
3364+10566596+10605382+10665696+10759736+10787773+10715467+10659982+10716586
3348+10841920+10957587+11039350+11074931+11070527+11096030+11217827+11414855
3333+11595968+11680975+11685216+11718212+11876379+12106059+12289119+12440373
3317+12592767+12720960+12856735+13031943+13215754+13364365+13483562+13651991
3302+13913970+14196866+14446196+14712721+15011677+15296101+15568541+15859928
3287+16159633+16448182+16741743+17056424+17381017+17695708+18003896+18343673
3271+18748399+19190437+19600627+19979919+20399305+20868485+21320304+21742800
3256+22206335+22718640+23223997+23716903+24240727+24818583+25412203+26002362
3240+26591636+27140423+27672396+28269861+28947216+29663500+30381959+31106543
3225+31856492+32600670+33314655+34035920+34780481+35543467+36354175+37219007
3209+38094047+38939863+39755749+40559853+41376338+42241760+43145559+44013966
3194+44841235+45688169+46544646+47406447+48340811+49336982+50303824+51216404
3179+52113466+53009169+53888945+54744456+55600250+56501323+57439118+58351739
3163+59208771+60019609+60801532+61600402+62450733+63310492+64123773+64897197
3148+65676999+66474452+67253090+67985972+68691628+69414356+70136924+70793641
3132+71392132+72004228+72663849+73333013+73953452+74500729+74998660+75505388
3117+76056082+76623579+77157061+77636247+78083799+78539544+78999606+79430632
3101+79850571+80280329+80679300+81010923+81281127+81526652+81803489+82095013
3086+82326767+82527797+82757372+82970883+83119667+83217525+83296317+83350677
3071+83338865+83287063+83275400+83278016+83210023+83099868+83004309+82896418
3055+82734871+82505929+82237649+81967797+81679321+81346718+80972161+80554653
3040+80087654+79573798+79026780+78439623+77784726+77070007+76311732+75491703
3024+74610262+73682660+72686760+71605326+70454516+69212745+67825450+66318718
3009+64756220+63074422+61168788+59080258+56893023+54587040+52063532+49245456
2993+46140198+42827413+39320099+35591601+31657378+27591219+23600868+19984928
2978+17003245+14784918+13253963+12190661+11370076+10683302+10207756+10150943
2963+10752154+12175058+14371565+16989874+19447456+21198289+21972736+21798931
2947+20847413+19328383+17600160+16164959+15389955+15402132+16173007+17511280
2932+19157053+20976667+22965595+25111856+27362505+29689475+32092570+34504961
2916+36720466+38519610+39825111+40660625+41110755+41305204+41368023+41381144
2901+41321393+41059273+40448102+39389651+37831218+35781954+33330348+30564474
2885+27595981+24725588+22510779+21609356+22405352+24748781+28142607+32111049
2870+36366930+40787343+45256074+49588108+53684089+57590231+61409491+65260131
2855+69272198+73546720+78061580+82644025+87057034+91113780+94732627+97923617
2839+100749120+103305323+105707435+108019243+110270398+112505662+114707574
2826+116834693+118909227+120929136+122841292+124625011+126294569+127868995
2812+129392657+130918116+132434828+133889044+135286756+136667447+137998030
2799+139222705+140338072+141324943+142132669+142778376+143337546+143835384
2785+144253347+144596217+144870346+145063113+145196068+145312106+145396395
2772+145427038+145425471+145403897+145385447+145405880+145465068+145544379
2758+145622594+145689031+145755054+145799826+145765599+145636688+145437664
2745+145193061+144955706+144824387+144896379+145220212+145813655+146618904
2731+147443870+148117788+148618299+148990903+149320405+149756046+150430897
2718+151358315+152422975+153480640+154463190+155333792+156043205+156619143
2704+157134094+157592116+157981752+158312557+158580393+158784534+158916407
2691+158965569+158939548+158828315+158607994+158287526+157939677+157670976
2677+157593095+157820850+158365488+159094641+159874237+160642100+161371381
2664+162036298+162627217+163186526+163739231+164251082+164734584+165230002
2650+165712224+166162271+166616524+167083166+167513932+167889371+168247557
2637+168602448+168932791+169235604+169515506+169765479+169982562+170161097
2623+170282378+170346776+170368707+170337545+170250571+170142427+170058899
2610+170022344+170009817+169997129+169999065+170005968+169958523+169835996
2596+169686826+169569889+169500663+169438650+169352806+169273968+169245169
2583+169252545+169266616+169325297+169474099+169692162+169948116+170236431
2569+170531948+170793965+171014424+171206085+171388849+171586778+171806224
2556+172004695+172119155+172175716+172264476+172401454+172541416+172696625
2542+172911265+173159660+173428510+173745313+174075161+174394430+174750473
2529+175149098+175544693+175936069+176357881+176804770+177243062+177682633
2515+178143513+178602929+179053805+179509925+179973801+180461509+180986625
2502+181507892+181947705+182285194+182574730+182876217+183188963+183462654
2488+183690604+183907019+184126741+184366366+184630629+184884048+185116263
2475+185369936+185664151+185967689+186258021+186555313+186884101+187238173
2461+187605372+187982285+188355154+188710701+189054563+189397342+189749155
2448+190111214+190469101+190821030+191168095+191509652+191864589+192216518
2434+192523156+192816703+193134082+193434578+193708718+193975920+194195665
2421+194360370+194523785+194661984+194728779+194778610+194859557+194979594
2407+195175207+195433005+195667156+195851498+196033260+196225508+196415613
2394+196619523+196869969+197180157+197513532+197812979+198047084+198200172
2380+198267105+198275910+198267774+198264247+198267866+198251939+198216790
2367+198196830+198180512+198242443+198531081+198958747+199317291+199578339
2353+199667261+199669335+199914180+200291117+200416639+200425813+200661531
2340+201020651+201351190+201705309+202188015+202711287+203100255+203419778
2326+203839792+204353153+204831550+205213626+205544535+205892753+206256644
2313+206605415+206963751+207340941+207696719+208030947+208374809+208711410
2299+209009590+209283683+209554758+209823136+210090891+210353806+210586389
2286+210771769+210932994+211093965+211240462+211355221+211441192+211499390
2272+211535000+211573860+211644550+211762374+211932680+212146249+212376066
2259+212595327+212785662+212940295+213069759+213196480+213356622+213485671
2245+213637746+213818631+214000346+214192848+214433936+214731516+215048250
2232+215353989+215657147+215964293+216274527+216572222+216841706+217093143
2218+217323191+217522285+217688373+217805506+217879031+217944604+218006513
2205+218048046+218123392+218341916+218742431+219255815+219805524+220373510
2191+220940344+221460435+221937172+222394202+222809261+223182879+223549928
2178+223911306+224250167+224559778+224844935+225114466+225375168+225641679
2164+225936954+226275515+226637470+226989122+227334298+227678621+227995792
2151+228287749+228586112+228895332+229204137+229502478+229770787+230002771
2137+230219658+230443805+230688489+230952050+231229486+231527988+231829071
2124+232093900+232325469+232566188+232840582+233135465+233421636+233691835
2110+233977107+234302899+234660198+235032179+235413818+235825350+236283003
2097+236743675+237120289+237430523+237745989+238043823+238253841+238388676
2083+238481561+238508574+238449362+238322549+238153926+237960640+237744790
2070+237529632+237401873+237451082+237704156+238129794+238679825+239310849
2056+239963378+240588271+241179513+241743858+242263258+242696318+243009871
2043+243209863+243342623+243462453+243620981+243871842+244249931+244756331
2029+245359858+246030272+246741851+247467536+248209839+248957535+249656091
2016+250275361+250827536+251320476+251763608+252187863+252614101+253017797
2002+253383831+253741660+254083771+254395203+254695664+254973054+255241824
1989+255530254+255821403+256110963+256385195+256641403+256926583+257233705
1975+257513492+257773042+258032615+258268126+258474480+258686181+258886612
1962+259029374+259123712+259183570+259182740+259090131+258888916+258558838
1948+258092519+257588792+257159258+256833882+256707230+256863891+257278120
1935+257894693+258631395+259419472+260237973+261104923+262032190+263017540
1921+264094693+265185375+266134746+266973507+267752503+268420290+268986409
1908+269522496+270054457+270525524+270914446+271283062+271660506+272008747
1894+272346593+272729730+273091247+273408188+273751197+274102987+274455262
1881+274809542+275126391+275396428+275648372+275953627+276309866+276641005
1867+277016121+277513348+278013157+278438173+278835530+279218897+279551558
1854+279820996+280038390+280196734+280359203+280510840+280562215+280730654
1840+281121673+281526706+281904795+282384321+282947513+283435221+283900342
1827+284445533+284945664+285403432+285883442+286323739+286721511+287133482
1813+287555017+287932069+288276645+288627560+288986864+289353291+289690837
1800+289975510+290276825+290656250+290999213+291201349+291439626+291786922
1786+292053248+292217631+292407989+292601966+292763306+292966203+293189613
1773+293330555+293499639+293753588+293967871+294170168+294339322+294478051
1759+294715821+294941628+295111219+295323474+295481863+295574473+295723781
1746+295894917+296036850+296116829+296122084+296275334+296587942+296759861
1732+296941185+297271955+297500643+297559002+297506405+297448000+297479553
1719+297450097+297314618+297280183+297334117+297327871+297231781+296993874
1705+296715193+296604122+296414017+296086612+295903122+295607870+295202699
1691+294837425+294344208+293851222+293314121+292530100+291900229+291547124
1678+291142414+290538680+290004298+289825372+289755765+289630035+289715430
1664+289946792+290069203+290164463+290380728+290778777+291232603+291535969
1651+292010908+292760655+293316080+293677528+294180863+294765882+295412303
1637+296222345+297119742+298096057+299164036+300149432+301033207+301975756
1624+302900465+303684509+304468092+305287953+306051529+306861457+307699365
1610+308386351+308927555+309417522+309889603+310347094+310785524+311183205
1597+311505977+311758566+311984350+312207276+312408029+312561026+312638170
1583+312599333+312477705+312399087+312301845+312027866+311806784+311680570
1570+311318154+310808642+310333219+309829100+309364833+308772069+307963847
1556+307438155+307065091+306433168+305576913+304624407+303638343+302618420
1543+301571968+300361825+298956760+297815901+296745087+295224872+293517479
1529+291920696+290159784+288223357+286291794+284173191+281955663+279842269
1516+277644887+275318731+272952656+270503720+267521994+263666473+259788871
1502+256311739+252406502+247408762+241422100+235096877+228481057+220441227
1489+210493757+199653363+188960214+178890172+169858734+162371528+156400377
1475+150931732+144456508+136850049+130146887+125861026+123543640+121656733
1462+119164951+117097746+118650910+126634582+139670228+154111480+167472168
1448+178218110+185306541+188672129+189511282+189675054+190724110+193123745
1435+196093970+198613410+200425790+201822050+203107262+204410982+205832780
1421+207521389+209521107+211748776+214102774+216523544+218994997+221466082
1408+223838680+226006238+227839845+229203146+229875473+229549705+227825924
1394+224302164+219109180+212656567+205253270+198310782+194542108+196148249
1381+203898220+216525848+230543099+242169750+249539350+253280228+255366194
1367+257370360+259710253+261908004+263327290+263750854+263377236+262515703
1354+261383396+260090324+258772682+257993917+258951747+262468661+267749991
1340+273169082+277981926+282480664+287159734+292299545+297957996+304069397
1327+310503709+317084864+323616787+329974001+336091072+341817032+346936607
1313+351281196+354729333+357130005+358319266+358266968+357261612+355872866
1300+354623126+353807574+353563697+353982029+355108275+356866951+359037805
1286+361295460+363279736+364649790+365183757+364879054+364079798+363556388
1273+364163949+366262062+369515669+373270237+376985761+380324902+383022531
1259+384816241+385519454+384970966+382934532+379170974+373549793+366143361
1246+357334377+347837323+338571169+330609704+325234866+323831369+327461060
1232+336267486+349177114+364263127+379509673+393348482+404934821+414249952
1219+421703496+427651598+432385961+436212580+439369222+442005473+444234640
1205+446156200+447834506+449282925+450486706+451499646+452347234+453012877
1192+453473987+453738401+453864845+453906194+453832393+453617626+453308268
1178+452926030+452464874+451906960+451162814+450144665+448854267+447313746
1165+445520843+443463710+441146083+438614288+435887963+432893676+429456164
1151+425324106+420268675+414164304+407044919+399121322+390808712+382756067
1138+375628799+369772891+365092761+361256485+358019611+355235204+352683610
1124+350056878+346961292+342913500+337367526+329602481+318689483+303732542
1111+284173421+260139671+232941050+205599114+182665115+168571505+165238357
1097+171092467+182487076+195841680+208699701+219526083+226978658+229515915
1084+225544760+213661117+192955571+163828371+129257223+95290916+69086467
1070+55301143+53769513+59263074+63576611+60843492+51737354+41458884+34926771
1055+35036200+44035891+64674726+99431052+148692873+209091689+273595849
1042+334076419+384155554+420430015+442261819+450635692+446614821+430045424
1028+399083615+351299358+287434542+216359023+154902715+119502647+117350128
1015+144882319+191261004+244848687+299246320+352436345+402301566+445333458
1001+478401677+500265933+511571725+513937985+508983784+497792497+480887282
988+458360979+429896253+394687005+351471485+299153941+238647327+175296713
974+118655347+77717096+56397397+54998930+74903999+118849692+186473052+271469986
959+362941521+449266238+522203484+578737559+620049012+649314353+669819388
945+684153073+694164179+701054830+705569403+708201966+709349693+709274601
932+708046849+705740469+702427558+697981209+692170938+684810695+675650450
918+664279385+650395332+634237813+616702173+599286571+584259631+574713922
905+573324230+579594229+588433269+592637838+586906024+569454004+541655014
891+508762748+481439250+472793541+488766487+522490254+561941456+599535864
878+631726808+655783123+670426580+676420365+674995640+666411332+649883607
864+625015475+595300318+571306603+566578324+585654024+618536564+650556534
851+674044978+689002218+697976046+702994184+705310152+705805190+705058323
837+703514483+701451312+698926247+696099292+693190330+690206876+687036589
824+683667992+680127453+676455214+672691288+668753945+664631705+660326967
810+655764730+651104860+646671695+642657599+639152140+636094838+633125950
797+629914175+626332057+622352949+618119016+613733700+609196402+604512238
783+599577306+594177575+588181071+581470384+573901090+565782088+558248981
770+552908485+550269515+548623293+545340575+538584159+528027815+515773297
756+506845613+506329831+514351845+525642425+534818573+540138371+542381044
743+542677910+541888588+540548636+538843271+536858235+534743204+532582538
729+530391862+528134714+525823172+523636414+521365898+519059518+516755167
716+514461879+512222248+510073521+508018417+506033150+504094211+502238984
702+500520943+498902886+497347060+495918002+494677850+493529523+492307349
689+491038524+489899187+488974201+488230331+487593637+486985615+486367729
675+485738180+485194925+485025333+485454498+486192560+486634585+486794358
662+487086799+487718652+488653180+489809159+491066644+492409731+493934256
648+495630586+497440269+499347355+501338845+503421146+505651327+508132922
635+510903823+513895160+517035945+520238269+523396709+526670991+530217430
621+533945355+537708036+541544473+545555295+549807529+554257058+558761673
608+563263523+567847057+572550812+577455182+582528821+587572635+592710625
594+598110448+603606244+609034555+614502370+620152316+625901970+631628068
581+637356148+643278067+649389722+655361703+661040736+666616926+672371973
567+678386778+684380240+690110671+695803487+701571672+707247708+712908118
554+718615731+724340907+730136336+736022529+741826301+747345008+752731278
540+758175077+763504694+768609771+773772515+779040592+784133315+789086087
527+794047341+798842830+803460106+808141827+812614820+816453977+819848572
513+823135761+826299687+828954607+830863030+832055656+832391520+831667610
500+829827687+826816989+822425773+816505605+809132916+800474393+790918357
486+781648770+774932228+773000065+775905155+780913336+784528829+784522099
473+779754637+770599786+760341644+753988855+756000674+768938812+792468421
459+823601711+856826891+885460701+907466107+924476792+937438671+947212285
446+955067888+961880773+967664400+972384105+976900706+982029661+987560953
432+993270271+999361736+1005452370+1011453853+1017923498+1024624459+1031267523
419+1037598416+1042108839+1044506906+1046227345+1047989547+1050367055
407+1054351141+1058912087+1062106897+1065881887+1073741823
##END=
