##TITLE=2
##JCAMP-DX=4.24
##DATA TYPE=INFRARED SPECTRUM
##DATE=16/11/2015
##SAMPLING PROCEDURE=Instrument type and / or accessory
##ORIGIN=Default
##XUNITS=1/CM
##YUNITS=TRANSMITTANCE
##RESOLUTION=4
##FIRSTX=3996.3359
##LASTX=399.24785
##DELTAX=-1.9287336
##MAXY=0.71915048
##MINY=0.0066926973
##XFACTOR=1
##YFACTOR=6.6976108e-010
##NPOINTS=1866
##FIRSTY=0.043031275
##XYDATA=(X++(Y..Y))
3996+64248695+64384583+64470685+64433747+64296996+64275126+64385673+64401286
3981+64385128+64509825+64679331+64816865+64963850+65072077+65081917+65053083
3965+65076672+65168758+65262102+65298178+65274867+65201602+65147489+65208828
3950+65353754+65475720+65547627+65568736+65549274+65604339+65776464+65937204
3935+65992196+65931975+65817145+65768655+65814492+65872628+65905672+65939901
3919+65949707+65890793+65839978+65894159+65999488+66077158+66131233+66136567
3904+66080567+66058797+66096614+66106064+66095084+66108339+66073292+66012498
3888+66070088+66176798+66255485+66364675+66383169+66313959+66328354+66351715
3873+66323904+66272360+66200075+66224699+66311557+66292278+66183350+66129636
3857+66286355+66543146+66493199+66169984+65967573+65921274+65942466+66022666
3842+66141183+66207228+66104195+65940485+65906645+65923499+65884280+65836107
3827+65827508+65908158+65976378+65896890+65910389+66041988+65992686+65888936
3811+65956488+66063236+66023350+65979064+66070989+66072741+65956087+65888691
3796+65811472+65732763+65723012+65747079+65795142+65836746+65809514+65746512
3780+65666345+65561777+65528127+65599166+65661328+65636009+65603477+65612254
3765+65566411+65507263+65515423+65483407+65411901+65460614+65581762+65507641
3749+65273615+65269738+65412807+65309953+65118193+65121180+65223957+65276852
3734+65215230+65034255+64873955+64810775+64726937+64590326+64492494+64458142
3719+64468243+64495714+64506354+64407054+64144722+63859636+63664900+63528673
3703+63341536+63037215+62681579+62317266+61939492+61578366+61214537+60786159
3688+60383729+60146594+60001395+59844610+59759582+59818067+59851006+59800797
3672+59793711+59684371+59450278+59330926+59268063+59092561+58873753+58714187
3657+58527817+58301572+58156273+57966716+57574870+57176272+56963193+56823929
3641+56606200+56329607+56031655+55681448+55386956+55291849+55157585+54729764
3626+54301948+54075330+53884466+53581948+53193112+52832347+52495800+52162223
3611+51858353+51489285+51020426+50556328+50106998+49633295+49189154+48812065
3595+48424452+48001575+47618067+47209791+46649750+46048020+45562144+45154071
3580+44737591+44269360+43738006+43188752+42703429+42278083+41778763+41195898
3564+40690916+40249454+39746471+39200099+38697166+38228505+37731433+37221959
3549+36711212+36159898+35653662+35288133+34938904+34471258+33920664+33351045
3533+32789235+32257694+31774232+31348301+30939836+30485041+30005865+29563963
3518+29125632+28641880+28160078+27736821+27363341+26998244+26585910+26088976
3503+25566140+25112399+24736792+24400312+24056228+23670134+23265457+22860263
3487+22464127+22131058+21817696+21420362+20998234+20650077+20346441+20024931
3472+19682390+19320661+18935722+18615413+18391038+18105265+17709669+17369522
3456+17143819+16926993+16677380+16445270+16261309+16106196+15913654+15617609
3441+15238969+14882749+14645800+14502271+14309219+14008659+13722253+13579565
3425+13546653+13501121+13388010+13220273+13004604+12738511+12512544+12428194
3410+12392711+12258284+12017276+11730438+11479773+11360738+11350077+11270488
3395+11022881+10755818+10694946+10832829+10957136+10945384+10846694+10745541
3379+10659551+10564977+10461949+10359906+10274035+10249232+10301934+10374256
3364+10392414+10356115+10346910+10407265+10470302+10463325+10433227+10498241
3348+10652533+10760996+10797757+10855041+10927756+10969892+11016630+11091280
3333+11200364+11355492+11516899+11654274+11802962+11972484+12108691+12203349
3317+12297873+12408933+12555136+12727908+12875898+13014449+13211363+13472830
3302+13758451+14011610+14181188+14336235+14595657+14940705+15290928+15604941
3287+15866507+16122555+16432678+16790261+17150277+17461344+17698945+17908606
3271+18213698+18661628+19123394+19522123+19924863+20383851+20898669+21434469
3256+21948124+22413081+22829001+23253203+23747478+24291247+24832677+25399863
3240+26018791+26614385+27178996+27829805+28577768+29272563+29852344+30460996
3225+31224644+32078399+32899064+33657946+34371869+35060453+35788535+36589566
3209+37418177+38253713+39088556+39902925+40732966+41590814+42428878+43274017
3194+44180689+45087195+45927094+46767692+47662492+48558727+49454250+50416013
3179+51418863+52345957+53168121+53985875+54866347+55771348+56649373+57490415
3163+58310466+59141992+60002735+60858167+61648594+62380352+63140604+63955288
3148+64765527+65546376+66305866+67051513+67795474+68536626+69255436+69941751
3132+70614678+71288223+71939469+72549739+73144357+73738519+74311401+74870322
3117+75430210+75961487+76443316+76912164+77407320+77910570+78384585+78809408
3101+79179044+79528907+79901480+80280783+80626791+80919487+81159620+81361230
3086+81547672+81766280+82016364+82219298+82358240+82475117+82579184+82655307
3071+82670208+82640050+82626807+82614559+82549165+82442016+82314082+82149499
3055+81947355+81730049+81519189+81300825+81010728+80639668+80246526+79834151
3040+79376600+78890276+78378344+77797603+77112951+76382255+75686028+74951373
3024+74071540+73098436+72090091+70996551+69791718+68495567+67104726+65622427
3009+64068276+62431161+60665962+58718114+56543415+54134311+51508085+48702385
2993+45714771+42512037+39038514+35275579+31314942+27314828+23423796+19843697
2978+16864792+14627475+13034832+11946053+11183760+10563388+10094583+9992664
2963+10555939+11997336+14213313+16761452+19092690+20766188+21567442+21485491
2947+20590550+19088615+17384832+15934499+15122689+15165986+15993430+17332799
2932+18951961+20737978+22635688+24684925+26953711+29373032+31825442+34221199
2916+36404806+38186458+39461554+40271146+40725935+40912800+40964175+41010763
2901+41009395+40770154+40110331+38967179+37371708+35352006+32924030+30150035
2885+27203700+24401140+22241516+21345598+22121505+24458166+27853633+31793479
2870+35988977+40365635+44820447+49153773+53254873+57130891+60893191+64712598
2855+68723263+73033237+77627035+82274858+86720186+90822198+94468929+97632962
2839+100459252+103061556+105457850+107741211+110004782+112224000+114396641
2826+116575212+118731489+120762285+122624082+124378063+126078358+127722130
2812+129286665+130761150+132221684+133734246+135210577+136575254+137873920
2799+139107586+140217874+141218010+142114812+142827798+143343573+143771489
2785+144179593+144527826+144785241+144988892+145149103+145243504+145279279
2772+145278000+145283651+145311439+145317747+145288724+145258432+145289336
2758+145401713+145524535+145607066+145649917+145613485+145447389+145184601
2745+144924271+144739554+144640270+144679015+144981072+145582137+146390134
2731+147232728+147934534+148441666+148789243+149099131+149558439+150240344
2718+151118669+152154614+153238481+154235458+155088420+155792728+156362590
2704+156849397+157319063+157766980+158119796+158360436+158519579+158601876
2691+158633981+158626550+158519801+158301633+158022581+157703672+157415154
2677+157322656+157532425+158010912+158683094+159478255+160279277+160984521
2664+161597388+162177873+162761562+163339655+163896512+164413555+164864643
2650+165276718+165712232+166178738+166640494+167061279+167409813+167733951
2637+168105256+168460820+168733508+168970777+169205854+169417215+169584089
2623+169698013+169756604+169774325+169765971+169716946+169613190+169497376
2610+169451666+169479566+169502504+169483226+169442678+169402831+169348422
2596+169265869+169186175+169112210+168991590+168823325+168697521+168667853
2583+168694028+168740138+168813803+168957239+169213430+169531594+169819500
2569+170061419+170276506+170501194+170775662+171045035+171223501+171330005
2556+171454696+171632206+171778846+171829672+171868229+171986713+172170430
2542+172384282+172630673+172905920+173194260+173504181+173826139+174162013
2529+174572342+175046712+175492016+175869283+176233012+176644264+177077486
2515+177503222+177964266+178477738+178988152+179461132+179918783+180363118
2502+180781957+181178781+181537827+181861642+182178327+182463864+182703713
2488+182946734+183191745+183398411+183590215+183809574+184067155+184353716
2475+184645694+184933656+185231029+185529737+185800556+186043398+186303283
2461+186637143+187044958+187456599+187822764+188165168+188513580+188850444
2448+189164792+189503347+189877144+190227646+190539258+190838834+191144884
2434+191470535+191791514+192082257+192378718+192715649+193042723+193271949
2421+193401925+193513101+193618514+193661164+193679697+193776745+193956713
2407+194161844+194380680+194612665+194823002+194997474+195174950+195383863
2394+195635071+195899427+196128587+196308132+196453859+196575981+196701752
2380+196850772+196976365+197026045+197009359+196951424+196875446+196868304
2367+197050185+197391254+197655210+197804520+198123474+198683423+199166994
2353+199002711+198311206+198126967+198795800+199542681+199874006+200033527
2340+200148819+200345206+200816362+201404634+201854298+202205156+202604249
2326+203037917+203472896+203923606+204326348+204601606+204807783+205046664
2313+205322078+205639097+206034296+206476863+206878826+207190416+207442424
2299+207699750+207990004+208282972+208560966+208835646+209090102+209286623
2286+209439581+209597056+209760982+209910092+210039845+210151443+210256322
2272+210361469+210454489+210537209+210635414+210778138+210974681+211190068
2259+211392930+211584779+211743677+211857478+211977753+212177411+212367591
2245+212535678+212685789+212855967+213066416+213297867+213556750+213870787
2232+214197662+214486046+214766088+215066865+215367175+215649864+215900448
2218+216107359+216270574+216409160+216552707+216676564+216763689+216846142
2205+216922165+217024285+217252755+217641080+218144941+218717550+219294609
2191+219827704+220333034+220808862+221231049+221631610+222046945+222443813
2178+222776005+223071687+223380963+223680072+223938243+224206137+224532322
2164+224871099+225164401+225440794+225746199+226065331+226374406+226694940
2151+227057568+227435392+227772256+228058304+228316186+228552398+228770990
2137+228999904+229254338+229511463+229753237+229993454+230253695+230520320
2124+230768992+231028920+231336773+231658508+231942776+232211649+232514940
2110+232848912+233186310+233513652+233851161+234232478+234644609+235067819
2097+235503333+235902048+236250281+236559646+236826539+237040302+237191703
2083+237267303+237260517+237190079+237084020+236953644+236790407+236590594
2070+236413785+236341366+236388333+236581160+236966259+237503248+238107650
2056+238723644+239333986+239954741+240579567+241146413+241586221+241876497
2043+242047299+242168620+242320287+242530624+242784991+243114647+243575724
2029+244157700+244824931+245558575+246321586+247055830+247709246+248293580
2016+248883965+249489991+250014254+250434216+250853133+251312252+251739601
2002+252090838+252406566+252711971+253005228+253316773+253658732+254006965
1989+254308810+254550139+254801458+255085949+255366859+255654976+255970526
1975+256283562+256549966+256776878+257000964+257237243+257489274+257717588
1962+257857953+257929193+257981054+257988396+257916578+257756478+257479551
1948+257080747+256632663+256205960+255869096+255762236+255938911+256345324
1935+256955933+257729090+258579138+259418506+260237539+261100802+262061936
1921+263132154+264196588+265125328+265953950+266694224+267307191+267839642
1908+268366730+268908770+269406246+269836776+270237115+270602568+270929065
1894+271292204+271720977+272088388+272384471+272724583+273072304+273380068
1881+273681646+273991344+274276370+274511803+274773423+275109597+275479478
1867+275914547+276422235+276891945+277304542+277710866+278104865+278443709
1854+278693492+278868343+278991488+279144291+279349422+279519845+279766358
1840+280135972+280497577+280860026+281322483+281890731+282447277+282961105
1827+283465656+283918546+284373705+284848799+285268517+285653638+286055668
1813+286458899+286826933+287169404+287499393+287822330+288153921+288483532
1800+288784643+289048243+289323234+289630352+289928949+290263477+290620320
1786+290872707+291040638+291223076+291394990+291542319+291735436+291963928
1773+292143851+292353454+292611892+292806366+292989449+293158159+293310672
1759+293545549+293737131+293846927+293994145+294127792+294238345+294376530
1746+294491265+294606846+294734174+294798094+294946447+295231049+295425968
1732+295632078+295915568+296074845+296095870+296012282+295884020+295842726
1719+295838566+295815294+295824861+295791711+295641311+295434467+295160299
1705+294880969+294745699+294518920+294203214+294102584+293888843+293439958
1691+292895805+292199495+291583546+291033563+290283990+289637138+289208543
1678+288750870+288130716+287538729+287258976+287151694+287055536+287134963
1664+287330350+287445285+287530786+287690730+288060767+288642564+289143934
1651+289601696+290164582+290665818+291146319+291710162+292200318+292728385
1637+293580413+294705674+295885488+296979623+297900443+298760124+299763575
1624+300794836+301660613+302508458+303483653+304491754+305462388+306327920
1610+307026233+307625028+308178748+308683210+309156747+309620560+310058744
1597+310435834+310751584+311029223+311282966+311498065+311644971+311710960
1583+311690024+311613935+311597760+311600230+311413587+311171702+310985193
1570+310641365+310182134+309683368+309092871+308573214+308038716+307386213
1556+306956439+306539725+305808107+304882904+303906040+302893979+301848613
1543+300873418+299864049+298610481+297407973+296188356+294598570+292877183
1529+291248150+289458104+287535169+285643203+283558544+281358170+279252552
1516+277071645+274758049+272354680+269841470+266909255+263247913+259467363
1502+255879997+251842456+246829786+240885127+234542377+227836754+219698196
1489+209696551+198839096+188109703+177952096+168808485+161235517+155222923
1475+149744258+143284770+135698119+128979169+124658037+122332482+120457904
1462+117948009+115837352+117403656+125498073+138645441+153118006+166489271
1448+177286589+184426379+187795221+188602329+188736064+189780408+192193455
1435+195181936+197712945+199516184+200898170+202183130+203461995+204806247
1421+206414701+208394770+210672969+213112292+215621720+218154508+220643534
1408+223011372+225178395+227025864+228403578+229082379+228778621+227094434
1394+223583602+218347580+211838211+204450873+197626776+194011355+195746580
1381+203604318+216330734+230434374+242119028+249500915+253209335+255255750
1367+257232771+259508212+261590624+262919770+263312233+262908735+261983732
1354+260808301+259530304+258229102+257443353+258420528+261975767+267281450
1340+272768947+277725884+282349918+287081745+292268309+298022676+304249067
1327+310768381+317407926+324013765+330471696+336677662+342455925+347610962
1313+351988817+355452548+357830865+358970610+358869313+357804367+356321907
1300+354978010+354104802+353826096+354222029+355341929+357105632+359298063
1286+361612861+363696631+365182695+365806698+365533776+364697678+364101531
1273+364659811+366748075+370006564+373794055+377571535+380929363+383577332
1259+385313647+385968998+385353427+383240757+379397378+373660164+366118132
1246+357191711+347555252+338120142+330057006+324677125+323301413+326982423
1232+335905129+349026077+364397813+379910962+393948547+405711047+415201000
1219+422798809+428851639+433662115+437505316+440596697+443173738+445412957
1205+447337673+448975027+450403201+451619525+452623732+453411951+454002025
1192+454421275+454690348+454824061+454826464+454659645+454334862+453962156
1178+453553718+453023270+452363514+451563548+450535535+449265236+447771384
1165+445964497+443797273+441369431+438817798+436152698+433194141+429717906
1151+425534525+420448969+414295932+407059883+398980128+390560861+382487780
1138+375356388+369432220+364679746+360837190+357559323+354658300+352036295
1124+349417650+346363023+342375296+336863504+329090555+318150647+303130792
1111+283462986+259287284+231931630+204480530+181524489+167453865+164224977
1097+170356200+182140560+195904767+209142786+220182300+227595603+229891445
1084+225526829+213191230+192123661+162782253+128120456+94172223+68059196
1070+54362319+52880676+58403159+62739459+60046770+51027117+40847662+34347910
1055+34431086+43417742+64079684+98980775+148710127+209984246+275536612
1042+336857942+387388317+423739341+445350884+453289584+448648152+431308182
1028+399477826+350791359+286136185+214556129+152935579+117476308+114960518
1015+141722227+187328893+240613229+295251785+349063565+399799005+443800655
1001+477746396+500269192+511989866+514554759+509613106+498276619+481119620
988+458272619+429407540+393727174+350022029+297277664+236533215+173214039
974+116806941+76165094+55077613+53674085+73149341+116305371+183228321+268164047
959+360442369+448203539+522725243+580617861+622943044+652933674+673947980
945+688558240+698615751+705415018+709790225+712296115+713326753+713109297
932+711711069+709208650+705687384+701011022+694920280+687256349+677826689
918+666226514+652099935+635653730+617811390+600112774+584867942+575269773
905+574014425+580419360+589273407+593437609+587626975+570006052+541998740
891+509050264+482053522+474313323+491793103+527242796+567927466+605744085
878+637180154+659997253+673473375+678549364+676399183+667262581+650259853
864+624955374+594925098+570765792+565994874+585114945+618134660+650398550
851+674188219+689391802+698441546+703363620+705516916+705893004+705067809
837+703365756+701075899+698452047+695692169+692817844+689760281+686508266
824+683087029+679444643+675542439+671579808+667678227+663654679+659315471
810+654665807+649919496+645433269+641478069+638013848+634778253+631499495
797+628031982+624283426+620250579+616041657+611611586+606916312+602059382
783+597018100+591535498+585415922+578645178+571100765+562914440+555207302
770+549742676+547151397+545634362+542266077+535145854+524205212+511806894
756+503026268+502758619+510930349+522246634+531425242+536743428+538949764
743+539259419+538534430+537228667+535529418+533522071+531329885+528989879
729+526555363+524172729+521895509+519743993+517564666+515275120+512945304
716+510711736+508521952+506347342+504278990+502314539+500371802+498467111
702+496680514+494983489+493345201+491822916+490412452+489088934+487876526
689+486734690+485638374+484701046+483989851+483410902+482886461+482336122
675+481445205+480368423+480664550+482705759+483494200+482172418+481566859
662+482387160+483495935+484401626+485231672+486219593+487560909+489209121
648+490934000+492633561+494400713+496403654+498674600+501076234+503557161
635+506167218+508885136+511723062+514801227+518117496+521564274+525008604
621+528399894+531820241+535587130+539840371+544322059+548742697+553039945
608+557346937+561906495+566783672+571782459+576690249+581535433+586611644
594+592142125+597898917+603457164+608907150+614434783+619910622+625422459
581+631164255+637161821+643225909+649103733+654713508+660171859+665718225
567+671362351+676946896+682541096+688366548+694325222+700200644+706074285
554+711866764+717473468+723120798+728967786+734818288+740440300+745929710
540+751435673+756900521+762216927+767347425+772179704+776762978+781436937
527+786370047+791386277+796228790+800857184+805411981+809894692+813922912
513+817087801+819629022+821955500+823920752+825163374+825719764+825515879
500+823817697+820301816+815553814+809979681+803161147+794581424+784641696
486+774995916+768224904+766431588+769254831+773965544+777535356+777680683
473+772941670+763984879+754203917+748149929+750182995+763183489+787141535
459+819183874+853157648+881609974+903005263+919730597+932552303+942358984
446+950816163+958366316+964720835+970258836+975440595+980535406+985963499
432+991861747+998011759+1003736024+1008721996+1014052018+1020621280+1027949749
419+1034871694+1039895043+1042920480+1045305427+1047773762+1050781488
407+1055364406+1060440262+1063220609+1065958773+1073741823
##END=
