##TITLE=павел 8-многокр
##JCAMP-DX=4.24
##DATA TYPE=INFRARED SPECTRUM
##DATE=3/2/2015
##SAMPLING PROCEDURE=Instrument type and / or accessory
##ORIGIN=Default
##XUNITS=1/CM
##YUNITS=TRANSMITTANCE
##RESOLUTION=4
##FIRSTX=3996.3347
##LASTX=399.24773
##DELTAX=-1.928733
##MAXY=0.23652405
##MINY=0.005576666
##XFACTOR=1
##YFACTOR=2.2028018e-010
##NPOINTS=1866
##FIRSTY=0.18091413
##XYDATA=(X++(Y..Y))
3996+821291008+825578167+832346459+837486030+843356384+846202404+840547706
3983+834058455+834501877+838160465+839816990+840659322+843339270+846382140
3969+847149589+845307239+843996861+846528798+851554452+855364635+857115797
3956+858374494+859870291+862499030+865689640+866744924+865873232+865128919
3942+866011299+867609107+867672086+867815090+869231606+869249600+867954712
3929+868348617+868302347+864597895+861188043+861098411+862489018+865166125
3915+867551878+868479175+871315182+876293213+880043935+881300941+878798565
3902+872326428+866760618+866155115+868277588+871196328+875275608+878568770
3888+881181816+883304762+881517545+876914545+873505776+873748220+874195025
3875+870153897+865835486+864062271+862318888+862555515+863167444+860750100
3861+859700363+863308757+868369926+868380952+857362504+846919117+846773745
3848+850938666+855278589+857069121+856539112+857887169+860711406+862008323
3834+861980250+860480056+859351917+860960954+862155454+860991598+857513490
3821+851065368+848340774+849900362+847419227+841057624+836610821+836642615
3807+838409336+839719511+841086374+837640805+830837336+828141492+829131158
3794+830551733+830838418+831614593+833703379+834867573+835010307+836782710
3780+839486334+839168869+836681105+835159467+834200444+832101174+830070564
3767+831157912+833603600+833846721+830274247+824553865+823569001+827961620
3753+830670452+825999468+816642348+811764637+811536668+810408462+810271410
3740+812198859+811034258+806793167+802633455+798071585+797726047+802433831
3726+803083304+795517798+787825794+784713992+780616176+773327411+768568149
3713+765615587+755988760+743132697+735324003+730352195+722222248+709127393
3699+695741997+682831479+664990621+642363780+619810470+596989011+577786227
3686+569664601+567582850+564792605+560812494+556398871+551576562+549698698
3672+551640420+551122824+546405976+540763150+531565404+519360675+511717545
3659+510795694+508467677+500087607+491828929+485290397+476345243+465348746
3645+455634757+447432665+439455936+432065229+426267053+419067176+408658966
3632+400410942+394242301+384554863+375708202+370055804+363671236+353064213
3618+341113665+334697099+330658305+324496225+319502602+314958083+306308070
3605+296105404+287931317+281856806+276748133+269953999+260801323+251830057
3591+245155066+241309470+237595547+232625515+229485065+227044146+222034338
3578+214764042+207537901+202925161+200424730+196695993+190673316+184723426
3564+181035412+178652584+174537214+167117402+159606994+154873725+151823380
3551+149136752+144490645+136828169+131155545+130189004+129547370+127055454
3537+125281858+125581549+125970161+124626568+121503469+116947695+111479752
3524+105468059+101123528+100159093+98792645+94589216+90456756+89191963+89700360
3508+88560729+85341919+81909017+79484384+78120573+76398727+73769591+72087960
3493+71633258+70422168+69824968+71956312+73846335+71300353+65667298+62938590
3478+64573874+65238022+61195706+55801303+53605209+54681540+56634732+56869004
3462+55215748+53730452+52757482+51840201+51063235+49820630+49021320+50521468
3447+51677469+50858520+51050936+51099219+48495530+45484238+43998672+42966046
3431+41685237+41280517+41452678+40446163+39006956+38375379+37176339+34864563
3416+31891390+30056948+31562935+32861955+32349457+35056848+38904970+37647026
3400+33532690+31388587+31669917+31795406+30386116+30272345+32783295+36005447
3385+37909930+36088775+32000708+30450411+32531367+35383233+35555374+32596009
3369+29979611+29490528+29543865+29267136+27834341+26066310+26710986+28355481
3354+28538893+28488566+29555058+30894757+31142952+30805832+31006543+31023531
3339+30293148+30110670+30888904+31752962+32303642+32338082+32504765+33757900
3323+35489918+36941073+38728037+40534213+39501637+36054229+35118315+37357715
3308+38685754+38307627+38659067+39983436+40582703+39813385+38749295+38458398
3292+38101120+36993571+36277724+37539059+40913971+44379687+45543268+43943122
3277+41995510+43385800+47728526+50850466+51008539+49395756+47750714+48264319
3261+50758171+52647793+52959377+52229239+51381926+51952929+53702578+54087034
3246+53402930+54198316+55374006+54664928+53063286+53990079+57577715+59159545
3231+58595319+59440794+61338123+63773880+66645224+68115053+69520767+73115408
3215+75035703+72714332+71273159+73465410+75774089+76673727+76736562+75627118
3200+76114096+80659841+84989541+85522112+84677970+84793569+86064366+88576001
3184+91826376+94513257+96038946+98090331+100818663+101077190+99520275+99947047
3169+103292449+108235084+111701539+112311000+113231134+116119619+118469731
3155+119458341+120505744+121174115+121492772+123496112+127097640+129587788
3142+130255822+131095652+133369966+137091973+140835457+143166450+145139577
3128+147441550+149353745+151375594+154146661+157163488+159652486+160349515
3115+159812470+161242515+164488003+166610138+168113563+170909169+174507061
3101+178198322+181723223+184003228+185151171+186639392+188762609+190615393
3088+192037236+193898087+196412301+199559448+202669001+204217867+205166286
3074+207600525+210946096+213114332+213277867+212800791+213574953+216087628
3061+219054007+220791167+221556907+222982318+224846721+225457111+224753622
3047+223882962+223919238+225514475+227054936+227098094+226835423+226274601
3034+225050759+224807333+225188775+223753250+219918410+215394286+212711075
3020+211757193+209071631+203849058+198522310+193676038+188254855+182135207
3007+176366829+170303970+162136631+152872423+142847971+130638946+117256087
2993+104121625+91826909+81158581+70785577+58684837+46100120+35892410+28968391
2978+25316240+25359265+27264222+27981768+28588100+32569369+40900235+51103836
2963+59675159+66882840+75131067+84073752+92246080+98202971+101206217+102538801
2947+102793236+101232718+98182965+95091380+92319671+88811241+85157684+82448945
2932+79870103+77951187+78463422+80582970+81993566+82485102+83564730+85280302
2916+86667552+87812433+88637153+88419357+87466287+86434518+85029063+83082141
2901+81020972+78814727+76777555+76667579+78121030+78264482+77825829+79308283
2885+81137273+80868015+79654785+80344203+83766020+87950466+91192124+94012065
2870+97288865+101344360+105917671+110618132+116380954+123533131+130213551
2856+134885474+138625440+143602516+149535156+155117624+160939104+166314591
2843+169284454+171237490+174329303+178444233+183326663+188012428+190796652
2829+192354870+195959797+201827006+206185278+208877215+212001938+214681631
2816+216825955+220164423+224462726+227887646+230219282+233306884+238631890
2802+245195282+250822600+254888909+257810878+260288766+263050650+265963775
2789+269163162+273047892+276162738+276904836+276935040+279025364+283106285
2775+286557825+287667259+287593897+288362225+290378662+291913255+292374468
2762+293701453+295961824+297215278+297144960+297767408+299819563+300585828
2748+299180000+298124953+299074844+301048326+301723944+300701706+299526282
2735+299525233+300693182+301103593+300168923+299935881+300694772+301509438
2721+303372859+306655367+310547673+314815755+318625566+321065301+322074146
2708+322785008+325023292+328284390+330997213+333690318+337574980+343025656
2694+349711657+356514720+361776393+365135002+368391230+372579218+376787974
2681+380246159+382479641+383024769+381813493+379827022+379107062+378739539
2667+375529683+371261162+370116517+371446310+372714037+373976996+376543534
2654+380546746+384908823+389762689+395881576+401548721+405125355+408348030
2640+412703240+416739024+418993340+420045276+420706621+420858115+420990262
2627+421652351+422567404+424264348+426541901+427948235+428579715+428626052
2613+427967346+427754564+428037495+428275610+429154269+429924897+429196616
2600+428044564+428205867+429627253+430708479+430993304+431937005+433099915
2586+432935094+432351982+432390947+432566895+432682908+432814413+433043092
2573+433973636+435423670+437037442+439891681+443192182+444239315+443815916
2559+444541627+445641422+445161437+443380138+441106509+438792630+436966143
2546+435565051+434475639+433819064+432996517+431961121+431931391+432235089
2532+431247384+429856135+429132927+429390423+431362721+434298372+436694813
2519+438526137+439344354+438032047+435881704+435595390+438254435+442590299
2505+446491230+449235407+450620332+451097713+452864501+456379645+459563254
2492+461788245+463622139+465071226+467116515+470140648+472508373+473981103
2478+475950459+478483106+480412009+482019118+484498291+487796662+492088150
2465+497196806+501699350+505532499+509425110+513414523+517670191+522041096
2451+525781570+528721516+530819738+531237827+530138539+529116943+528641998
2438+527955184+526301331+523774535+521598316+519181108+514654481+508644268
2424+502586499+497283089+493813640+492100055+490294708+487424472+485469355
2411+486871665+490755144+493894444+495759827+498739583+502895812+506654347
2397+510165331+513613674+516274545+517809239+519027313+521521436+525041011
2384+527359016+528127445+529425952+533310817+539525289+544886300+547532897
2370+546976945+542911633+540051578+542234155+546390992+547974966+545921289
2357+540603234+535413470+536310089+541352587+547628718+556517692+566860319
2343+569908128+563911477+559963363+559134830+555032245+549874105+547906035
2330+549059507+551289031+552461411+553894703+555736816+553422768+549058594
2316+548383043+549673263+550252418+550367890+549934446+549021558+547881750
2303+547217969+546949481+546034293+545191554+544995515+544058646+542191233
2289+541066037+541078518+541001029+540121828+538924352+537921798+536906899
2276+535780452+533943480+531045609+528653903+526953510+523909253+519305340
2262+514533563+510398745+508054797+508036634+509149011+510801444+512481577
2249+513518191+514980774+517344271+519407824+520665777+521063402+520327139
2235+519000627+517896469+517206475+516979150+516879946+515975446+513520085
2222+510098395+507694647+507469351+508137393+507662042+505980961+504746414
2208+504681812+504769177+503806874+501475677+498441770+496045058+495144211
2195+495370624+495553539+495068177+494353932+493717921+492875588+491877127
2181+491937806+493401640+495165249+497441212+499822873+500405917+499160716
2168+497933002+498397090+499870902+500732852+501098752+500807432+499531959
2154+498478062+498184376+497462115+495782962+494351869+493728609+492568744
2141+490090991+487398529+485738081+485503517+486141050+486619310+487328109
2127+489260936+491441552+492769045+494333232+496830906+498741647+498741951
2114+497179252+495631400+496108950+498523690+500423810+500814501+500820691
2100+500988150+500700179+499178507+496950201+495726275+495478350+494655838
2087+493583744+493470673+493774541+493879934+494570265+496260884+498124678
2073+499547417+501137513+503395313+505130477+505275342+505068986+505609380
2060+506291560+507089348+508403277+509847934+511155471+512153695+512475861
2046+512642745+513062728+512763054+512125791+512501668+513318938+514338944
2033+515966009+517293874+517836229+518141078+518647039+519151749+518924626
2019+518046474+517462517+517642017+518094368+517855170+517026536+516651234
2006+516731665+516545232+515506927+513564934+511941556+511476622+510932373
1992+509200118+507316098+506037277+504387415+501672867+498498525+496070324
1979+494472550+492886377+491373601+490608655+490850457+491422441+491692756
1965+491663973+491257689+490675016+490335364+490444511+490620832+489935675
1952+488306276+486431423+484304417+481336600+477105453+471582158+465520940
1938+459068217+451281034+441992744+431980367+422529252+414920554+410221361
1925+409413257+412285185+416953869+421555245+426082379+430888182+434936886
1911+437656272+439627927+441295208+442786033+444647561+447452992+450959815
1898+454575380+457357846+459162483+461340325+463877944+465605295+466792861
1884+468307160+470136352+471730270+472832670+473430901+473686164+474058964
1871+474639336+475163799+475877603+476935492+477815267+478217323+478286255
1857+478197706+478125831+478258046+478326674+478035523+477966930+477525402
1844+475421227+473441521+472588060+471320401+470010124+470246379+470855298
1830+469637291+467679705+466651108+465961149+465292160+464300802+462530529
1817+460709150+459698039+458970840+457523884+455794977+454726874+453935141
1803+452113863+449086721+446944731+446630446+446204409+444229134+441522602
1790+439310463+436962828+433754394+430564967+427826912+424022275+418512205
1776+412470604+405899128+398528478+392912373+389633315+387543413+387432169
1763+388167587+388228468+388771094+390111068+391685876+392797069+392388248
1749+391160094+390890151+391842646+393041949+393307563+392513766+391816366
1736+390821625+388164543+385895412+384598055+383289909+382701791+381973646
1722+380396774+378222348+374657518+370592037+367976861+365800880+363148498
1709+360452925+357073074+353571662+351575620+347998174+341646211+336469097
1695+331559862+327150501+323958876+320648802+317004725+310895308+302093057
1682+296961232+294762115+291307955+285368533+279000064+274779014+271485615
1668+268289813+266569920+265824744+264813295+263949316+263867582+263753446
1655+262155266+259286500+259464647+261902133+262274577+260915983+261717306
1641+264070251+266613552+268609392+269256108+270944224+275319373+280351893
1628+284126376+286804328+289271189+292636293+297133527+300508271+301848989
1614+304298431+308224087+311380569+314003322+317081098+319655652+320906096
1601+321365245+321796829+322330560+322756833+323134639+323466106+323607622
1587+323652810+323589155+323289752+323059314+323497967+323674355+321888457
1574+320315272+320043705+318871393+317205601+316138783+315112587+314673968
1560+313577758+309859168+307611616+307105046+305876655+303834986+301854367
1547+300799286+299968081+297962669+293236283+287534537+286298807+286964785
1533+285053436+281784154+279737833+277593713+274789786+272417410+269416261
1520+265657996+262298946+258786678+255000526+251198054+247969866+244341584
1506+237600079+231292441+228080827+224960350+219117375+210569847+202936864
1493+197069739+189954640+181485159+174745447+170304342+166420915+161737602
1479+156877986+152432333+146918035+138279936+128180211+122172695+121034485
1466+121606697+122019645+122437936+122214187+120500476+119308064+121256703
1452+125535152+130288445+133486673+134988542+136521181+138103193+138973397
1439+138918603+137160693+134841428+133390911+131787480+129909701+128485550
1425+127203853+125795523+124740569+123716512+122318870+121307193+120891658
1412+120962577+121250327+121545215+122347468+123881798+125623769+126927619
1398+127241338+126384917+124428338+121719269+118123626+111995810+103053226
1385+94166045+87478083+84207126+85470160+90770653+98013460+104554300+109555271
1369+114730745+121943103+131397440+141748878+151071591+158324030+163346420
1356+165635996+165290239+163495614+160850995+156766877+151188045+145882555
1342+142826831+142572396+144643289+147740852+150432790+151893208+151845331
1329+150847293+149718410+148671024+147804034+146894392+145114683+142654840
1315+140918839+140290269+140004522+139915998+140282101+141056305+142643916
1302+145698861+149815651+154205260+159247843+164924898+169959092+174120360
1288+178078638+181739492+184501309+186122658+186921579+187264089+187642571
1275+188747406+190867021+194198572+199154804+205400782+211798068+217498918
1261+222120604+225913335+229534903+232920031+235717023+238183749+240774826
1248+243578296+246122274+247761008+248705808+250031813+252228275+254480223
1234+255872302+256777258+257765166+258582217+259205730+260127243+261876275
1221+263915526+264942449+265003382+264763186+264448834+264330182+264324838
1207+264311900+264388831+264132046+263224806+261951971+260274070+258155858
1194+255817018+253243427+250603696+247839715+244667115+241128245+236774590
1180+230807890+222963157+213018020+200159472+183786083+164685243+145166703
1167+128356337+116920611+112256806+114241357+120723548+128704360+136637245
1153+144103640+150523267+155063744+157117133+156770006+153935808+148537168
1140+140997081+131116090+119852288+110303610+104785118+104230417+108574627
1126+116085423+124408256+131571063+135912583+136379952+133253488+128351610
1113+123469797+119028566+114937836+111595825+108923378+105271191+99277974
1099+91537425+83478379+76288844+71206139+69791386+72234322+77240629+83910775
1084+91732373+100720381+110800828+120859661+129591340+136442440+141628611
1070+144315120+143586771+140412455+134542388+123632800+107210563+87952368
1057+69258265+53976588+43988644+39463928+40086132+46138227+58081921+75577119
1042+97032832+120647530+144721303+167790687+188970520+207553494+223395942
1028+237271166+249789791+260574048+269555021+277251693+283826128+289696922
1015+294883338+298922436+302594351+306518755+309910512+312644576+315203098
1001+317275175+318744725+319707503+319987965+319782556+319428529+319087760
988+318520038+317526955+316152617+314041576+311227655+307905506+303645981
974+298271543+291658059+283098303+272007659+257891310+239267969+214364167
961+183110736+148716499+118210358+99568769+96593054+107564776+128763585
947+156492520+186636787+215158285+238787443+256430486+270004835+282196999
934+293701724+303381450+310972695+316857932+320317538+321809581+323210808
920+324795594+325910881+326621912+326938903+326255370+324406086+321926203
907+318587380+314315104+309876857+304841023+298151031+289180712+276913816
893+260564780+240593382+218092870+194244031+171956301+156100273+151240910
880+160976529+185234748+217328939+248760737+274602068+293500341+306438154
866+315034117+320695242+324548313+326665104+326959501+326311009+325821486
852+325814687+325701583+324818053+323182025+321318671+319857035+319197618
839+318496666+316312195+312769350+308892670+304798101+299616285+292442486
825+281957430+264933165+240245155+215926579+205475971+214493118+235774743
812+257622010+272658570+280029102+282492631+283439934+285511233+289177296
798+293218763+296513920+299139378+301518232+302892333+302624758+301312654
785+299890795+298906912+298331308+297930470+297486574+296848533+296058017
771+295212167+294214585+293365285+293109717+292688009+291628971+290430581
758+289343740+288912528+289019240+288641503+287705987+286648674+285599985
744+284919294+284973546+285275722+285252756+285455560+286258591+286474247
731+285194614+283439461+282821985+283855926+285049648+284561410+282984674
717+282056007+282126208+282668850+283199198+283545446+283679386+283646138
704+283789260+284497552+285330617+285411523+285102683+285302105+285806003
690+286077129+286208532+286724607+287552024+288269076+289395591+290824418
677+291377428+291097101+291486474+293193666+294282265+293723574+294829288
663+296572096+297726719+299269970+301861368+304487638+306092312+306759441
650+307672194+310436936+314296467+316244210+316141286+317032020+320103302
636+323796288+326565495+328266869+329976361+332305901+334869395+337515620
623+340418124+343445504+346330217+349618677+353549102+356842805+359261029
609+361850093+364826501+368366336+373030825+377943645+381802162+385586335
596+390271829+394524961+397717669+400834848+404506323+408630183+412164369
582+414861262+419161881+426349041+433971268+439460232+442647899+444618879
569+446701711+450743584+456800744+462361853+466638526+470617555+474507121
555+478787176+484605680+492018542+499387129+504992952+508299508+511346403
542+516934774+523454432+528399046+533396559+538830053+542594507+546341441
528+553283247+561519568+567613968+573365467+580378437+585826137+589404158
515+594466070+601646736+607663206+610374542+612808121+618090087+624558977
501+629150341+631628161+634221792+637325544+638663995+638434200+639879601
488+644140445+652014418+664933121+679501179+690660129+698510968+705850872
474+713856283+722856298+732252788+739572264+744057017+747117341+748955834
461+750795208+756093680+762958910+765416436+764879459+766456296+769990076
447+771043669+768078389+762449668+755875452+753138750+755358634+757358464
434+758312481+761482798+768386451+779327579+791985032+805536771+825054989
420+853783874+884170366+906368396+924496278+943055000+963313879+985527198
407+1003176888+1016176293+1033787424+1055162875+1073741823
##END=
