##TITLE=павел 8-многокр
##JCAMP-DX=4.24
##DATA TYPE=INFRARED SPECTRUM
##DATE=3/2/2015
##SAMPLING PROCEDURE=Instrument type and / or accessory
##ORIGIN=Default
##XUNITS=1/CM
##YUNITS=TRANSMITTANCE
##RESOLUTION=4
##FIRSTX=3996.3347
##LASTX=399.24773
##DELTAX=-1.928733
##MAXY=0.21440123
##MINY=0.010664726
##XFACTOR=1
##YFACTOR=1.9967671e-010
##NPOINTS=1866
##FIRSTY=0.17175548
##XYDATA=(X++(Y..Y))
3996+860167825+862499976+863325419+860288048+859071040+860989387+861858337
3983+862427140+863920639+864955260+865345332+866912338+870046350+870403438
3969+867194650+865171154+865119886+865381377+864702053+862190649+859649171
3956+860932597+868691806+877485412+879294431+875743780+872715962+872799543
3942+874229908+873432226+870865898+869717919+871748654+873644016+872932229
3929+872091935+869502622+865641301+865521600+865741151+861931994+859725738
3915+862315723+863513253+861791845+861583339+863956684+866011448+863948699
3902+859947378+860679762+865902568+870447990+871929623+870685376+870462616
3888+876607507+883926718+881475613+873044617+866909428+866778608+871494700
3875+874260207+874478937+874525205+871551789+867218754+862321320+856300608
3861+855274196+860305884+867022785+873170064+870140827+856958515+849431245
3848+849499602+853090179+858617684+864509666+867306590+864908544+861638787
3834+859264472+854930616+852212199+853971890+856150609+856691128+854596663
3821+851525934+855240390+859704469+854699498+847668792+845797833+848625428
3807+853559206+856864187+857185230+852842792+846992602+843642920+843177624
3794+847118347+852875255+855222704+850141241+839347720+832520148+837099524
3780+847786179+851381756+848696100+850781909+855316808+853095925+845474700
3767+840450028+838457576+838705858+842244793+842711059+837714670+836706392
3753+841816139+842254719+834704463+832340970+834392674+830690904+829179495
3740+834807970+838524889+836933331+833226561+826720778+821567599+820980960
3726+821103646+820056861+817982918+816445837+816331808+813347123+807750961
3713+805059634+806306716+806464178+803286883+798834445+792814853+785937579
3699+781362680+777224569+770354907+760666157+748859061+733097211+718009835
3686+712216286+710987188+708628993+707213106+706450647+701594406+697751667
3672+701107320+702338059+697510624+695112429+694616014+689607013+680326021
3659+673049943+669489218+667042366+663645594+654572811+639868268+629872878
3645+625870513+623051723+619679914+611695594+599233875+591105227+589140910
3632+585913429+575498936+560180181+548922708+542208903+537753780+533524102
3618+525792542+515836256+508165778+503776960+499921422+492815530+482342344
3605+473625080+467408400+458588674+448425897+442790332+438140695+427804634
3591+415924068+407762846+399799086+389444146+380883225+375330234+370073249
3578+364760407+359708570+353261704+345115631+336286055+326888199+318521568
3564+314152637+312025075+308393100+301500229+292052727+283237889+276688897
3551+271959932+268397825+264939599+260537143+254813724+250087744+247717272
3537+245882693+243685616+239954201+234245484+228002330+219914727+210984274
3524+206211876+204480841+201357762+196790587+191790522+185942366+179310053
3510+173595198+171292375+172010337+171629146+168598939+164987878+160800514
3497+155473753+150351040+146665492+144166551+142044586+140105567+138772543
3483+139252027+140702821+140284792+137621216+133484551+128407108+123215263
3470+118037149+114289531+114017284+115373890+115294086+113231337+109351527
3456+105638722+104710854+105223613+103826382+99694101+93943230+87391915
3443+82007729+80980188+84836481+89595092+91483216+92519852+93734453+92020778
3427+88627318+85553949+81675212+79189574+79722285+79776753+77967640+76124031
3412+74217177+72097156+71415714+71856267+70299289+67971671+69221324+71620680
3396+70438257+66887251+65397274+67887465+70267927+69361416+68599882+69903797
3381+70140479+67595694+63400378+60236366+59924693+60285801+60567460+62577850
3366+64557731+64542260+63560270+63597769+65281262+66319120+65962560+66238034
3350+67047358+66378458+63532201+60591052+60241091+62012461+63491002+63683972
3335+63367859+63822073+65241491+66767173+67877213+69149127+71245090+72781364
3319+72461058+72395923+74176622+76084316+76183737+73402009+68992426+66301578
3304+66821753+70192069+74600845+77747520+79644049+80945702+81435027+81704205
3288+82740113+84929550+86925928+87153446+86983503+87588760+88145138+89098145
3273+90135089+89184330+87146589+86706890+87693685+88855637+90136442+91814184
3258+94248405+96424904+97398163+99053191+102250495+104936870+106514986
3244+108607614+111070407+112799147+113528024+112724829+111861009+113388099
3231+117346761+122478644+125974417+126864990+127879994+129361786+129809526
3217+129772390+130259299+132711832+136593143+138330316+138850089+142952958
3204+149813823+154349543+155363847+155849572+157818628+160481579+162147801
3190+163634490+166796879+169930032+171770675+175014649+179642383+182148264
3177+183729748+188100861+193371110+196632995+198752983+200284205+201971807
3163+206199041+212971800+219777862+224155729+224907497+224908616+227455486
3150+230854925+233528436+236723399+241629621+248005405+253151215+256064277
3136+259200602+262596553+264715458+267042982+271664896+277202663+280380257
3123+281422042+283550406+287544059+291672244+295781903+301482374+307561705
3109+310968626+312521677+314990543+318025936+320106857+322828632+327283196
3096+330487730+331817014+334569871+338900331+342638146+345974582+349362025
3082+352364993+354702852+356288067+358543651+362199041+365338724+366469501
3069+366737410+368795495+373226216+377801414+381194865+384407794+387803334
3055+390256342+390813242+389544220+388866724+390046120+390961003+391311784
3042+392582411+393948262+392722075+388766202+386209276+386519237+386088008
3028+384703277+384568577+383593955+381061022+379125287+376970560+373320208
3015+368466132+362196317+353906476+343987727+334220507+325743989+317247844
3001+306362346+291950395+274122979+254487775+234604027+212108932+185201885
2988+158057712+134310638+113300553+94210252+76664000+62382851+54932842+53409964
2972+53818894+56333077+64510936+78520333+95718443+114592122+133493730+151498226
2957+167841201+180871070+190570306+197197954+200299298+198878224+193657732
2943+188449851+183101729+175007335+166783707+161358831+157510738+154584794
2930+154425494+158161518+164266688+168741140+169106530+168876661+171122320
2916+173106115+173701317+175058473+176655404+176184474+172995854+168668510
2903+165753228+164326333+161906347+158135175+155642129+155199669+153716870
2889+150871821+150541729+152179425+152626204+153031566+156007612+160966390
2876+164769241+167915193+174332899+184167656+194105752+202415499+210223607
2862+217933003+224642927+231625219+240664869+251001880+259710170+265335772
2849+270118786+275527131+280841746+287140013+295451401+303875047+310678404
2835+315443824+318746902+322618149+326972601+330648550+335999602+343943250
2822+350057096+351661004+352405328+355971875+360641027+364252350+368639116
2808+375348965+382228254+387210576+391636894+396938058+402553249+408341836
2795+413983408+417821110+419529682+420921129+423306004+426156808+427905716
2781+428931531+432351922+438283343+442564886+443523388+444294689+447175008
2768+449954880+450310214+449152870+448638507+449709471+451437484+453378741
2754+455584363+456323650+454655525+453183295+454022544+455056754+454558436
2741+453923589+453884895+453665382+452363188+451243492+452601917+454526347
2727+454616234+453784970+452963706+454060006+458560540+463961740+466975529
2714+466892582+466140907+467975523+472512960+477424648+480985150+482667864
2700+483822149+486812393+491730685+497028603+501659994+505364189+509085026
2687+513370897+516864944+518708217+520481192+522508307+522707970+521909990
2673+522047825+521674394+520026307+518108407+515920360+514531637+514976709
2660+514942716+513416345+513630634+517389829+522379054+526030302+528768421
2646+532420377+535973454+537352700+537984972+539549329+541563608+543554940
2633+545003775+546391790+547802043+547506970+546767310+547915363+549076662
2619+548322189+547487045+548420584+549440317+548996588+548708866+548916365
2606+547532604+544631837+543197293+544881910+547656260+549087670+549193341
2592+549301288+550173895+551162359+551341015+551387470+551768326+550901615
2579+549440727+550321058+552810522+553879620+553066677+552131719+552231346
2565+553453466+555547073+557569114+558584667+558254968+556855759+555061665
2552+553624509+553152982+552692015+551427731+550222887+548839835+546837981
2538+545553847+545745823+546245149+545697988+544759075+545164334+546433581
2525+546644587+545956009+545958397+546695631+546905966+546539998+546939958
2511+548472002+549980426+550826354+551599409+552518993+553151602+554115029
2498+556482142+559471715+561291555+561060773+559597759+559653206+562309907
2484+565348659+567747190+569610873+570081952+569532067+569019869+569447142
2471+571748211+574639165+576396655+577774632+579288840+580111148+580987524
2457+583248145+585882123+587290659+587599016+588051177+588935949+589448110
2444+590092322+590669371+588780688+585561378+584820114+585088060+583617024
2430+582660276+582215502+579213430+575253079+572822608+571040006+569294830
2417+567671220+566465742+566845702+568609461+570027773+570607919+570982059
2403+571267580+571415004+571781681+572535110+574048646+576573370+578965148
2390+580534952+581507969+581259836+580514392+581811251+584872539+586478612
2376+585806862+585899847+590226016+596579524+596602472+590177135+587065959
2363+587606926+585100485+581150210+581588491+584330900+584157170+584593362
2349+589152962+595387889+597878920+594530469+592655405+593526743+592099289
2336+588648861+586089435+585210448+583747434+581197560+580674802+583777508
2322+588893747+592036752+591042504+587659202+584230565+581262224+578768358
2309+578100041+579157646+579863501+579641039+579049438+578474143+578170040
2295+578173212+578686754+578841529+577354560+575692330+575493003+575457593
2282+574317861+572772758+571836345+571599854+571684779+571183961+568982556
2268+566074923+564347321+563198857+561579426+560545067+560701521+560851520
2255+560418015+559998727+559876115+559977719+560667156+562105058+563213148
2241+563092216+562133901+561350734+561967223+563570460+564040532+562605913
2228+560133763+557606166+555640020+554605287+554413945+554472303+554495363
2214+554089395+553110259+552737126+553037199+551968213+549236624+546901488
2201+545863211+545566682+545197170+544519039+544164191+544062102+544231914
2187+544989484+545058700+543898334+543029197+542936921+543029234+542829422
2174+541277528+539198846+539102988+540858986+542902817+544005460+543567701
2160+542904683+542847817+542690617+542402820+542388231+542214612+540659248
2147+537288334+534207681+533686415+534473015+534322904+533393991+532693100
2133+532652354+532787875+532465452+532378101+532833547+533075747+533354588
2120+534154546+535135921+535873716+535696926+534503089+533662161+534162905
2106+534857789+534138614+532473661+531212548+530946729+531691165+532218252
2093+531628367+530855051+530251882+529382746+528474131+527738128+527175407
2079+526520225+525280232+524564639+526270562+528711443+529050583+529186851
2066+530664604+530459941+528267118+527653800+529316701+531160497+532127842
2052+531944746+530467478+528614951+527496898+527452943+528191148+528806144
2039+528650660+528064171+527928388+528407341+528735585+528613571+528278759
2025+527772867+527435145+527973425+529057150+529848116+530217106+529651550
2012+528527713+528418012+528962934+528816816+527642420+525769483+524090836
1998+523174908+523195990+523766472+523211960+521291523+519793099+519181610
1985+518792657+517965871+516622259+515754204+515437975+514937231+514347981
1971+513584441+512624110+512363216+513086085+514069102+514311116+513151682
1958+511859973+511765533+511604489+510459123+509141966+507801489+506119297
1944+504002854+501368541+498624564+495744095+492061915+487823245+483830246
1931+479988813+476431221+475087908+476600884+478292516+478584865+478958147
1917+480352728+482296784+484515316+486434074+487255823+487434330+487986826
1904+488870180+489315662+489324766+489886965+491377031+492852172+493671980
1890+494070336+494309104+494832869+495682118+496405248+496972148+497353340
1877+497206885+496558158+496340435+496602710+495737006+494268581+494026493
1863+494176530+493738846+493528250+494206418+495042346+494919137+494101567
1850+493985113+494937197+495787901+495374881+493765860+491340352+489023500
1836+488603278+490115284+491900050+491959527+489909017+488194549+487976864
1823+488184960+487386494+485702399+484942180+485012179+484134871+482295292
1809+481376155+481721489+481319775+479729859+477942444+476333460+475571226
1796+475730852+475343130+473269859+470667859+468740743+467465302+466623964
1782+465240614+462717979+460203105+458581286+456271822+451540319+446890010
1769+444336853+442844362+442517647+442736265+442593542+442600706+442175485
1755+441655861+442580594+443773908+443530738+442773429+442245298+441554369
1742+440167175+438104650+437285252+438248866+438001031+435992311+434867280
1728+434492357+433923517+432645390+431231145+430422231+428788808+425517857
1715+423553838+423428092+422764551+420983330+418508494+415906531+414237548
1701+411677227+407116731+403410745+399910615+396865372+395119561+392822895
1688+389674629+385030887+378042047+373403715+371753576+369413290+364611266
1674+359456258+356596200+354070393+350281348+347170918+344825111+342338371
1661+340206480+338939547+338954323+338558654+334390394+331030899+330889220
1647+330042621+328429272+328551174+329720272+331129331+332305369+332360593
1634+333006484+335163711+337146349+338533580+340178757+342444602+345077572
1620+347530319+349538927+352260553+356666125+360664087+362778217+364173022
1607+366116444+368186730+370297987+372999576+375094564+375598591+375581240
1593+375976798+377168918+378715812+379755731+380380690+380849680+381170238
1580+381492064+381437027+380456996+380054461+380825389+381116992+380120095
1566+378908497+378956482+380034797+378498947+373100956+371528465+372924502
1553+372402751+370609254+370048100+370582985+370652612+369371724+365298277
1539+359863383+358677382+360058643+359881666+357957013+356079859+354213154
1526+352528611+351122500+348488075+345247683+342738182+340125548+337447093
1512+335174271+333272229+330268254+324324370+318836118+315629383+312557236
1499+308053232+301278402+293525330+286573934+279051757+269777761+261097531
1485+255169636+251306916+247377610+241779154+234408655+226355305+216399654
1472+203479728+193596464+189613781+189277085+190946553+192999116+193421539
1458+191673937+190791610+193293499+197352916+201444068+205341135+209344489
1445+212889860+214712872+214524011+212969431+210094149+207075808+205094010
1431+202896373+199860364+197080082+194996847+193417062+192370407+190523515
1418+187777094+186742137+186821297+186446617+186482120+187702524+189484715
1404+191370208+193296074+194601327+194990616+194810841+193357099+190127920
1391+185111232+176524285+163569975+150346553+140883940+136350020+137680357
1377+144695364+154168546+161787038+166906971+172319440+179822905+189424305
1364+200708438+212366319+222011823+228400965+231693316+232487546+231378038
1350+228147347+222614618+215850105+209792117+206338237+205764640+206907040
1337+208946749+211526715+213881123+215200276+215179661+213797243+211571118
1323+209201915+206776183+204234425+201775409+199515814+197687018+196753218
1310+196213613+195732552+196790475+199952789+204092691+208358786+212032403
1296+215394081+219833981+225204976+230244537+234854249+239070195+242400978
1283+244928464+246614648+247402666+248056058+249416572+252029001+255676294
1269+259873247+264889693+270380762+275422990+280026247+284247436+287712864
1256+290747063+293787680+296258132+297996126+299956376+302437574+304824743
1242+306407701+306968929+307376296+308425431+309741916+310736817+311620749
1229+312775145+313811259+314399315+314619575+314564650+314769611+315343116
1215+315842105+316292737+316567437+316437923+315921247+315112557+314554426
1202+314345360+313649879+312049926+310122343+308614721+307247490+305209498
1188+302815669+300639282+298273120+295288212+291449540+285782464+276481324
1175+262608922+245392323+226221631+205744584+186496206+172564271+166112256
1161+166639417+172071419+180011038+188997628+197695880+204548453+209230796
1148+212285853+213492264+211862609+206857917+198448936+186872771+173885047
1134+162610932+155418474+153389558+156887812+164971852+174765172+182954771
1121+188009649+189603054+187586909+183036524+177754763+172767423+168521906
1107+165026721+162083715+159047856+153604240+144463163+133971759+124732782
1094+117948129+114930534+116659956+122959863+132733828+144584637+156483505
1080+166603484+175462482+184532915+193565960+200783922+204609740+204752109
1067+201890315+195827589+184858062+168353959+147397988+123908496+101912344
1053+86274915+79233295+80020362+87668741+102094405+122069467+145571982
1040+170671912+194418138+214791958+232111728+246970187+259880822+271330831
1026+281046428+288960972+295866698+302008789+306788855+310685027+314917372
1013+319127497+322460500+324991232+326416261+327071108+328206475+329673407
999+331054108+332412533+333546183+334317223+334353492+333949464+333474952
986+332314473+330761870+329570833+328458488+326974765+324961754+322008451
972+317681386+312045728+305060824+295680094+281619447+260573878+231896020
959+198177781+166516862+145633828+140418541+149974214+169930424+195455147
945+222393239+247256044+267570200+282695150+293521562+301675731+309045969
932+316257849+322597365+327496740+330572916+332023206+333212341+335148412
918+337210117+338173806+337773062+337100864+337203513+337456608+336495532
905+333929949+330568700+327291480+323337995+317371686+309354064+298868117
891+284565606+266410132+245956648+225565758+209403929+203312938+210841756
878+230146217+255456332+279948785+299059870+312814716+322916729+329777212
864+333975658+336731015+338487572+339059920+338800294+338516975+338572423
851+338713840+338101978+336505270+335559977+336232100+336625456+335261397
837+333152342+331097988+328940500+326375067+322992512+318326233+310682620
824+297545811+278483719+259050099+249656739+255496090+271463853+288549240
810+301149298+308345152+311371273+312684698+314386852+316961241+320490325
797+323514076+324128998+323645344+324216796+325032762+324679816+324321161
783+324944777+325174552+324540488+324307169+324473436+324187020+323843925
770+323758478+323610382+323498032+323452435+323592285+323700941+323072027
756+322044906+321587072+322040838+322507104+322029085+321167821+320547825
743+320435848+321208157+322062144+322038712+321893824+322361023+322758521
729+322731805+322630574+322417291+322184532+322382777+322739976+322582738
716+322548783+323700792+325275783+325911339+325853727+325741713+325699922
702+325920368+326350291+327062265+328437443+330060531+330922616+330962056
689+331233957+332204586+333184095+334146441+336063706+338765593+340929984
675+341985948+342866876+344320599+344571381+343680714+345610629+348052629
662+349244115+349721127+350322057+351884958+354672741+357299629+358156154
648+358066527+359436706+363191237+367748300+370492911+371483652+372688160
635+374488784+376426347+378803498+382303328+386488678+390215634+393506958
621+396604179+398844689+400818334+404030666+407655123+410491599+412435357
608+413854528+416217611+419781882+423303541+426423150+429381379+432811882
594+437258498+441989404+446667511+451962481+456811595+460884743+465887028
581+470860880+473879295+475550778+477532073+480676495+484774009+489178760
567+493620563+498560534+503744423+508907788+513828506+517637776+521324695
554+525645901+529416812+532945412+537753742+543712439+549926098+555745691
540+560007159+564429783+572050859+579659957+582682216+583738143+587684389
527+594929534+603125755+610328251+616252210+621075354+624939809+629610491
513+635395682+640182669+644016453+648733590+655558551+664024771+670783762
500+673783969+675469855+677312232+679060506+682517053+687708889+692761547
486+699324494+708468397+717638270+725771432+734264592+743236257+750758751
473+756701031+763498678+772403105+782268496+790260614+795009467+797892809
459+800867941+806089478+812696978+816975759+818755152+820285442+821635956
446+823018113+826357944+830600308+832828952+834613419+838560785+842379643
432+843584487+845523282+854199426+872009921+896428438+921829113+943630928
419+958694573+967017212+975040001+986519413+999901351+1015897827+1035717489
405+1051828068+1059273175+1064174714+1073741823
##END=
