##TITLE=павел 8-многокр
##JCAMP-DX=4.24
##DATA TYPE=INFRARED SPECTRUM
##DATE=3/2/2015
##SAMPLING PROCEDURE=Instrument type and / or accessory
##ORIGIN=Default
##XUNITS=1/CM
##YUNITS=TRANSMITTANCE
##RESOLUTION=4
##FIRSTX=3996.3347
##LASTX=399.24773
##DELTAX=-1.928733
##MAXY=0.21688578
##MINY=0.0061382032
##XFACTOR=1
##YFACTOR=2.0199062e-010
##NPOINTS=1866
##FIRSTY=0.17512885
##XYDATA=(X++(Y..Y))
3996+867014757+866511561+866060227+868194586+872635117+878368568+880458368
3983+876509230+871970582+870733212+873584778+878485274+881461071+882853804
3969+884431704+885316815+883228342+878277017+875137964+877536720+884018878
3956+891067307+895579987+895382132+891823318+888330825+887032815+888932580
3942+891281319+889960513+886477168+884201242+882089236+878393945+877424661
3929+882260312+886192114+884061592+882533562+887250589+893129812+894664556
3915+894048711+894623391+894569095+893608663+894887420+898214590+901974357
3902+904939531+903165768+895986025+889587598+886910797+884375785+882197901
3888+885136812+890492479+892219103+891246646+890454487+892751659+896681913
3875+895858770+891773080+887251843+880679166+875980583+874954863+876309899
3861+879505756+883650537+887748178+887879491+880146315+874225926+876472639
3848+881855159+886680703+886233648+880407097+877161444+877435210+876111748
3834+875002372+876690339+877054770+872209233+866729335+867082996+870953420
3821+873203231+875945098+875586347+868427335+866089957+868944990+868122068
3807+864997990+864594091+863789760+857372742+851771710+853271560+855871048
3794+856843578+859094791+862061809+865131960+868462745+868445925+864278497
3780+859699054+857294618+857823633+860417662+862504217+859673750+854291230
3767+852971826+852258086+850518111+851801440+855250924+858375887+861386578
3753+863852761+861851486+857828576+859881565+861070983+852835718+847328229
3740+848941096+847463599+841224592+838540562+838180704+837418201+838650998
3726+839412246+835456689+829117721+825580966+825782583+826110498+825580007
3713+825589228+822401191+814696564+808515835+803672143+794193605+781566055
3699+771713201+761002457+745807804+729784992+714586577+697812623+683687289
3686+678041331+675117544+668448448+660734894+657388764+657145466+654934311
3672+651785963+649558800+646438115+642197137+638327229+635775913+633018038
3659+626425886+614701336+603258705+596047056+587315013+573364370+561401317
3645+556237493+555616963+552448770+540610244+526087429+516577538+509807339
3632+503695734+497659636+488340260+478218729+470985244+467529121+465893938
3618+458461380+442596587+425724886+414579738+408101600+401400746+393473365
3605+387169660+382719318+374915394+362530958+352453027+347109642+340613652
3591+330347935+320935939+314185768+307517004+302420091+299257339+294803271
3578+289162753+283925840+277966334+270711603+262864505+253769837+244967656
3564+239919837+236115125+229440994+222315068+219817090+220200204+217616927
3551+211793438+205076261+197152385+189633884+185293941+183090477+179201904
3537+173142844+169679085+168870863+166160920+162182144+158756156+153528639
3524+145819973+140351500+139285428+137241449+129729402+121035259+118101134
3510+118533380+116059847+113494451+115232887+116447913+112783865+109319295
3497+108992505+108137723+105088681+101389849+97877604+94932422+94662418
3483+96297104+95487682+93413051+92722475+89138681+81529007+77124131+77595739
3468+77270618+73947459+70419588+70145933+72215160+73062763+71168909+67347234
3452+64891867+65159764+64162313+59927250+57489575+58320547+57392671+55596860
3437+56515541+56723157+54281863+53562023+56032753+57268140+52778168+45452229
3422+42839785+44695605+46254398+47169654+47687825+48142904+49514363+50465357
3406+50957049+51379654+49463419+47239622+47350842+46234447+42482242+40076358
3391+42117059+44778667+43100738+40421378+40933699+41975376+40851863+40408653
3375+41426483+40734788+40270557+41901263+41484039+39012973+39764249+42423538
3360+43217375+44590642+46369993+44867590+41200922+39195378+39280414+39535954
3344+41745592+46086185+47818479+46215345+43692953+41596144+41071416+42366079
3329+44968578+47150469+47341090+46478511+45589338+44505427+43922802+44702743
3314+45618870+44978362+43123787+41674868+42731096+46644424+50808809+53631512
3298+54193015+51239529+48224841+48556734+48198661+44629252+42692403+45332927
3283+49623665+51976143+52344433+53141687+54180985+54887689+56730401+58623033
3267+59632256+61266526+63712874+65307884+64294138+62290447+62563213+64949308
3252+67438595+68017019+66031716+64148836+65520987+69003267+70098147+68096813
3236+68394278+73708979+79362844+80538440+78318838+76490535+77574327+81906838
3221+86514682+88908910+89761350+89650785+90313336+92863398+94868444+95490439
3206+95735923+96444951+97969874+97812842+95856254+96119803+98954622+103249980
3190+109143903+113680521+114614921+114064493+114839445+117510768+120594843
3177+123432235+126589261+129557837+131768227+133572577+134954364+136022641
3163+137758707+141413783+146891431+151066984+151640161+151081425+153282943
3150+158896082+165499558+170614287+173656921+175288471+175587486+176346669
3136+179839401+183455517+185799608+189210638+192924151+195056628+195904281
3123+196545688+198923899+204588982+211513106+216125063+217983498+219250727
3109+221947483+225817410+229071030+230943297+231737023+232800975+235820205
3096+240292550+243928934+246368578+249051317+252141330+255451478+259393314
3082+263448388+266620030+268809293+270348278+271865814+273831531+274679904
3069+273708185+274126580+277047436+279340809+281121341+284520217+287448155
3055+288711400+291059696+294421650+296107644+296180069+296132874+296890637
3042+298630834+299958593+299894227+299168149+298573735+298074191+296851741
3028+294206367+291316975+290675974+291618405+290381146+286237066+281421812
3015+276426851+270631174+263893932+255608649+246073141+236521920+227041353
3001+217431336+206518366+191987436+174491019+157056699+140496185+123689080
2988+105656574+86865632+69804255+55842703+44651020+36497945+31611271+30388556
2972+32327812+35976746+41320584+49560189+61939525+77134261+91679991+104389013
2957+114664080+121682614+127434471+132810508+134942598+133000055+129192161
2943+124758500+120488842+117052084+113154235+108160703+104359228+102865935
2930+102553660+103029458+104179336+106992097+113060315+119267195+121031653
2916+119912696+119114644+118257981+116581984+114472975+112731773+111056006
2903+108767133+108007046+109355304+109830006+108405486+105530157+101772115
2889+99229274+98953497+99447518+100098109+103002753+108770195+113669031
2876+114440497+113570196+115823437+121149881+127089552+133945631+142497072
2862+151437658+157828423+161800357+168049029+177278901+185401813+191746701
2849+197941335+202857711+206155963+210422910+216143008+222092702+227275099
2835+230863273+234563875+239522688+244430138+249293251+254616993+259888948
2822+264357733+267562369+270064221+272444829+275177512+279544345+285095101
2808+289862403+294280507+299706423+305847978+312070553+317425630+320715768
2795+323314260+327800197+332938054+336247667+338904549+342836499+347496574
2781+351184340+353142053+354625414+356772203+358439699+359290174+361052060
2768+363530341+365028273+365474295+365691774+366809155+368731494+369562567
2754+369436971+369717414+370914984+373148934+374772867+374887398+374546315
2741+374619718+375385430+375462521+374263106+373784329+375253046+376736629
2727+376100276+374850069+374496556+374877033+376836959+380731137+385163480
2714+388863934+392829303+397488124+400922411+402675334+404216679+406951797
2700+410592828+414068464+418081895+423146496+428557603+434313665+439416222
2687+442038284+444030853+447953619+452676547+456209577+457108521+456062920
2673+455644709+455942229+455779415+455099980+453370774+449932762+446681687
2660+446470405+448709556+451714456+456336723+462407420+467348750+470380281
2646+473218715+477506465+482937674+487615418+490782320+492596178+493068316
2633+493366426+494690847+496618276+498126019+498872735+499635238+501281708
2619+502400970+501019450+499100910+499363316+500588624+501172674+501252494
2606+500622117+499594995+498763369+497510359+496682199+497946164+499636861
2592+500018260+500291989+500879210+501616778+503130792+504533632+504752217
2579+504168241+503464018+503380988+504036596+505190567+507148280+510227136
2565+513742719+515841556+516065453+515470153+514750512+514734762+514577296
2552+512576796+509571823+506762049+504342268+502607420+502112265+503047910
2538+503641918+502752455+502173459+502505099+502209975+501001929+500038879
2525+500438942+502096515+503264097+502579423+501363004+502453126+506086707
2511+509141440+509819142+509690152+510055617+510378957+511050500+513825749
2498+518576157+522419212+523911906+524577288+525617762+527696903+530570231
2484+533040324+535706391+538532468+539809159+539477482+539159157+540172188
2471+541519663+542634203+545509228+549753158+552881920+555392218+559122883
2457+563615570+567706498+571240597+573448875+573765613+574054798+576106827
2444+578150926+577145715+573917546+571800302+570983024+569720240+568186308
2430+566703795+564228021+560658179+557003537+553018324+548643117+545144354
2417+542723651+541131255+540670921+541158403+541980661+543023348+544629576
2403+546764894+549621070+552722942+554849739+556574666+558916544+561611271
2390+564046359+566340654+568787878+570188652+570253239+570780337+571548114
2376+571453502+572735320+576903818+581162096+582831879+581948796+579728752
2363+575363689+566812423+560277739+563725010+569399518+569686010+571384673
2349+578616203+588374261+594602388+594037335+594333933+596008363+594183328
2336+593500315+594111512+589269553+582048831+580288641+583523782+586430086
2322+584572813+580816403+580246997+581131407+580234050+576920712+574075896
2309+574997561+577492810+578517128+578107659+576602129+574321076+572293428
2295+571890931+572920781+573730277+573603611+572323232+570500226+570148041
2282+571524729+571818376+569814040+568211980+567876910+566626777+564517722
2268+562699918+560270362+556645745+553257122+551232757+550037769+549084197
2255+548672257+549494367+551569045+553559585+554460078+554910343+555962472
2241+557505109+558071675+556758541+554746459+553484007+552667540+551846831
2228+551705338+552041146+551255995+548652818+545841643+544965163+545648841
2214+545613910+544186320+542629371+541509298+540589588+539709124+538410487
2201+536633072+534804681+533253745+532262403+532207148+533563844+535200539
2187+535010319+533743219+533254151+533142165+533141354+533732116+534522984
2174+535056943+535291168+535642615+536049318+535928996+535570725+535062845
2160+534509558+534845661+535786617+535487179+533494720+531718854+530964503
2147+529937382+527965763+525850622+524833681+524719151+523960189+522688589
2133+522821489+524117249+524418421+524150335+524704544+525244183+525661619
2120+527106804+529140686+530345117+530106060+529175063+529032979+529946124
2106+530438844+529931000+529843544+530258251+529653730+528343289+527362238
2093+526396273+525440268+525046033+525081996+525187453+525105603+524869645
2079+524941794+525544286+526350056+526887408+527749539+529299000+530084335
2066+529945828+530206832+530584506+530426635+530437368+531156530+532336396
2052+533901385+534901617+534257813+533404718+533710944+534123253+534309010
2039+535154543+535942865+535624172+534815230+534453344+534807890+535533765
2025+535933054+535486219+534579604+534314063+534635523+534395728+533498371
2012+532900490+532971937+533109263+532891416+532574530+532008961+530837505
1998+529751514+529430276+529324598+528706356+527603840+526222947+524767766
1985+523523425+522170123+520398314+518124380+515715444+514663904+514987392
1971+515039586+514430159+513546302+513116730+514154549+515742629+516270575
1958+516351096+516200787+514593305+512173045+510403118+509190203+507658447
1944+504775602+500116597+495203006+491110160+486479299+480478241+473857466
1931+467348455+461657127+457890942+456726126+457678996+460221127+464151933
1917+468641928+472409699+474743057+476185991+477572306+478823951+479799285
1904+480718331+481956808+483576241+485352697+487510736+489749555+491126021
1890+491325868+490946461+491315503+493096939+495372275+497066107+498479828
1877+499818007+500170856+499721587+499290171+498651568+497829642+497258466
1863+497333639+497954058+498201598+498108277+498128417+498012854+497957046
1850+498342576+498972253+498926957+497304020+495367221+494431356+493613450
1836+492553390+492357268+492957880+492847739+491870007+490819095+489209990
1823+487356922+486373658+485820593+485048905+484247562+483154931+481680644
1809+480926920+480939166+480567394+479867966+479069242+477623393+475575974
1796+473389349+471021540+468296198+465923778+464364912+463173833+461858671
1782+459354164+455080467+450736282+447786379+444754774+439598954+433905229
1769+429810096+427726972+427831543+427812030+426419113+426103186+427202419
1755+428427986+429512059+430105440+430416646+430782368+430854259+431074467
1742+431372135+430588718+429370897+428010439+425164296+423215546+423137385
1728+422018751+419598933+417314671+415751562+414618984+412213073+407743550
1715+404248954+403035523+402403153+401015215+398104965+394535528+391783776
1701+387979561+383272678+379851891+375163525+370431006+367055921+363388663
1688+360492392+356864860+349324928+342784269+339467979+336059402+330064910
1674+323740918+320594155+317542374+312574893+309503303+308642463+307294012
1661+305269333+304200309+304448514+303469344+298631129+296287517+297755553
1647+298468444+298557025+299484389+300251392+301303817+303261253+305167325
1634+306916781+309170538+312002794+315650761+319867395+323575301+326491711
1620+329758647+333469172+336411145+339099454+342367792+345186160+347164565
1607+349242378+351687278+353635806+354711432+355482050+356476748+357923445
1593+359323887+360059169+360375759+360688182+361224280+361851116+362152953
1580+362253061+361509923+359460291+359133557+360518286+360122022+358036058
1566+356580397+356010696+356606217+356718313+353650708+351045207+349874822
1553+348600750+347470422+346429653+345795660+344970931+342689140+338258089
1539+333314584+331829931+331864346+330012864+326995497+325052908+323470988
1526+321150983+318048668+313279780+308698714+306103597+303627252+301053215
1512+298404540+295075193+290532045+283821084+277709351+273593581+269195081
1499+262780313+254844836+247867984+241640909+233168929+222577474+213995777
1485+208543026+204195964+199455644+194185755+188392788+181201113+171182162
1472+159877207+152043572+148385527+147401405+148195602+149591627+150304730
1458+148923210+146792909+147975504+151833738+156052373+159744732+163289196
1445+166589016+168695563+169527024+169112096+166592650+163669673+161985081
1431+159896978+157154557+154716020+152468514+150916223+150047517+148305069
1418+146380508+145910565+145930917+146039573+146785818+148142007+150048098
1404+152077258+153593807+154661051+155383118+155672247+154896115+152115250
1391+147171957+139618589+129030232+117461608+108193947+103467920+104405851
1377+110589456+119419653+127277872+132784743+137974314+145254560+154746488
1364+165125297+175219808+184112747+190741840+194214950+194782862+193410692
1350+190237870+184952802+178208829+171983081+168834991+169201617+171050203
1337+173266393+175478673+176734947+177148197+177416448+177156311+175663341
1323+173207081+170818856+168742500+166179861+163288330+161337330+160565053
1310+160543973+161748422+164172998+166664890+168850151+171641077+175591119
1296+180302963+185745478+191674958+197015687+201622204+205959584+209765163
1283+212141326+212608521+211992271+211547926+212563428+215937684+221198259
1269+227279064+233537233+239746659+245661533+251049843+255994917+260328811
1256+263543092+265779717+267767307+269894786+272434482+275495651+278296130
1242+280287409+282183208+284549357+286879468+288469245+289198293+289447567
1229+289742100+290409806+291127861+291497088+291875776+292725237+294023911
1215+295442151+296428181+296465012+295732718+295065141+295022907+295214289
1202+294650988+293359543+291964689+289974019+287107459+284253921+281992214
1188+279844337+277146954+273645553+269136212+263682484+256808709+246849734
1175+233007572+215627917+195263004+174163768+155684936+142174626+135397123
1161+135669331+141165025+149671475+158864582+166916433+173385405+178036738
1148+180613800+181013863+178636538+173215583+165254600+154841764+142879144
1134+132273460+125581145+124112842+128038503+135475099+144024106+152226452
1121+158213566+159826802+157261194+152753660+147972931+143797277+140324306
1107+136955851+133151249+128021646+121079070+112940629+104192790+95769960
1094+89493246+86650570+87802042+93405655+102674811+113658731+125159965
1080+136444006+146526419+155852379+164920728+171608101+174121018+173042330
1067+169468302+162846032+150956207+133760566+113148296+91209227+72308951
1053+60005890+54322631+55213810+62849023+76044637+94110367+116395462+140407410
1038+163910777+185794130+205511034+223387744+239204161+252412552+263418437
1024+272893194+281164516+288348813+294845007+300441446+304110880+306710017
1011+310373845+314631533+317436364+319073060+321264554+324187936+326738772
997+328005725+328174035+328257175+328425374+328112398+327377634+326748584
984+326330926+325432204+323510345+320664644+317151606+313292100+308428046
970+301388894+292143788+280185124+263502850+239944532+208499907+171986604
957+138675567+118122841+114685308+126405090+148449284+175626105+203555516
943+229058784+250522949+267831507+281331885+292002036+301420394+310187018
930+317423823+322601627+326633795+329924855+331809902+332775498+334003131
916+335121913+335296493+334836454+334093353+332840934+330829294+327899826
903+324132054+319847513+314499187+306675695+295604762+280886378+262263451
889+240349354+217246723+196428447+181120536+175139932+183078452+205334111
876+235442642+264490799+287279366+303609823+315335277+323448377+328241204
862+331053006+333034031+334034926+334164211+334263102+334362140+333796017
849+332931304+332246630+331623482+330917156+329483553+327086716+324585639
835+322739137+321146372+318484473+314116460+308166249+299379929+284431692
822+261614944+237653926+226416047+234674625+254869421+275399343+290083514
808+297641650+299695136+299888325+301329711+304338281+307573052+310225674
795+312184715+313404564+314079353+314464108+314329733+313757635+313556386
781+313628682+313180926+312509642+311977970+311386728+310845208+310253855
768+309478553+308828755+308454807+308283712+308454475+308945480+309103185
754+308795004+308271042+307098166+305688964+304939445+304614075+304340383
741+303876028+303486662+303977077+304809736+305115851+305430118+305885823
727+305406198+304192840+303816974+304408788+305337738+306304698+306632354
714+306306782+305773598+305569380+306243099+307247351+308136944+308979470
700+309568333+309784742+309693487+309973929+311277325+313036776+314179903
687+314534265+314451235+314464772+315581378+317656793+319453721+319958171
673+320063037+321736655+323358818+323046248+324767412+327148462+328053529
660+328393173+329220115+330386259+332432276+335390626+337745229+339080052
646+340735854+343689593+347154680+349591871+351304108+353492062+356153260
633+358664407+360786003+362966247+365472082+368276877+371504087+374749814
619+377655491+380239893+382436072+384612591+387103413+390406387+395382536
606+400821528+404647321+407436107+410462622+414349497+419244424+423143361
592+425335519+428809090+434272574+439330462+443932627+448814717+452780418
579+455287581+457231203+460578624+466654190+473310929+477876171+481222080
565+485274683+489735649+494032215+497974529+501407120+505611176+511386456
552+517625980+522878403+527739506+533529208+538509415+541749461+545281126
538+550303531+556628445+563028754+568410868+573380710+579852578+588220595
525+595645591+601432084+607659030+612991717+616007683+620251944+627261201
511+633754278+638601806+642971148+646572011+649552824+653502774+658496297
498+663082305+666628504+668685623+670709472+675484188+681875239+688721165
484+698125784+710294475+722270179+731429803+737527685+742701653+750180244
471+760128485+769065392+774618988+776983293+779641650+785851223+792985965
457+796127084+797828330+803859375+810572144+812638190+813611679+815416500
444+814476577+811157078+809895659+812923686+817693385+820431343+822696941
430+828001632+835895114+847507567+866169040+887466665+906130794+924075355
417+942532997+961049951+979307967+997385612+1013744675+1028645938+1046534949
403+1060488174+1066250322+1073741823
##END=
