##TITLE=павел 8-многокр
##JCAMP-DX=4.24
##DATA TYPE=INFRARED SPECTRUM
##DATE=3/2/2015
##SAMPLING PROCEDURE=Instrument type and / or accessory
##ORIGIN=Default
##XUNITS=1/CM
##YUNITS=TRANSMITTANCE
##RESOLUTION=4
##FIRSTX=3996.3347
##LASTX=399.24773
##DELTAX=-1.928733
##MAXY=0.2211881
##MINY=0.027028739
##XFACTOR=1
##YFACTOR=2.0599747e-010
##NPOINTS=1866
##FIRSTY=0.1692587
##XYDATA=(X++(Y..Y))
3996+821654263+825182771+829209389+831450812+830197797+827861903+826376108
3983+823776041+820179175+818205542+818630882+819579504+820642563+822780472
3969+824255633+822779821+819769243+819366907+821862448+824462371+827382745
3956+829805515+829968562+830283082+831899299+832763288+833012053+831830652
3942+827287622+823605109+824465771+826160545+825851957+824059311+821118538
3929+819071267+819883752+821623086+821256267+819066420+816805178+817167005
3915+822005674+825949901+825186099+824498177+827298111+829294602+825258363
3902+822280915+825457289+824831649+819774017+816818705+814909741+813318914
3888+815065916+818736421+821290048+823187221+821192466+816618404+815869214
3875+815274969+814536195+816966705+818098195+818631750+819851851+817323976
3861+812610160+809988174+810647523+813172505+810490986+803630943+802769269
3848+807335301+812679675+812981174+806165328+797488189+793981092+800226347
3834+811107367+817063130+815796660+813757491+815585727+818012187+814107673
3821+804110317+800674111+805915984+810950324+813877932+816417092+816658624
3807+812754037+808093678+805462361+802140519+799301740+800033353+803067223
3794+804477715+802773537+802213868+803384998+801550107+799947345+802867791
3780+802584521+796462022+794148986+796407407+797504392+797714024+800275825
3767+802671325+800173035+796800991+796545281+795665812+793789039+794535987
3753+798029556+799450609+796770537+795874287+794459093+790821356+793169259
3740+797971759+797239785+791874216+788788119+790470813+791459799+787657859
3726+784830727+787015365+787628490+786033395+786568252+787602304+789370501
3713+791747048+788311493+780051446+775791181+777475177+778849067+774001428
3699+766617016+760956603+754347785+745855537+738027051+730959040+725632605
3686+724273472+724808401+723103644+717892369+713283441+711840615+712558122
3672+714966787+715463595+711341854+706899517+704872718+702578851+697264424
3659+692032027+688249328+684755324+683519742+681987002+676173958+670018763
3645+666724408+663157779+657534691+652759534+648524369+641953166+636005432
3632+632109888+623154758+609160371+602232873+600917251+597780735+590947745
3618+582218379+574095772+568317377+567229073+567301337+560340059+549019341
3605+541454594+536770472+530239669+521051181+512281451+506433216+502610081
3591+498555866+493499826+486416624+476445924+466225447+458225559+451458070
3578+447307358+447777366+445992713+437733751+429341328+423780306+418854797
3564+413038607+405314647+398805689+395621105+391566746+385578250+379956646
3551+373880840+368099552+364767293+360688340+352954976+345452330+341145769
3537+338238705+334369528+328638767+322502307+317546127+311821045+304173002
3524+298879933+298560313+297666305+291721700+285097690+282644792+282619094
3510+280619746+274629785+267288179+263667206+263494467+260456654+254014499
3497+249262308+247113296+245663833+242472160+235966765+230687783+229706410
3483+227334076+220914219+215152300+212151776+210873950+211126079+213596068
3470+217038766+216089963+208720579+200201586+195315880+193957977+194051689
3456+193769196+191188659+188599171+190119795+191229783+186590492+181716884
3443+180635108+178000228+171930951+167800945+167204982+167340776+167035371
3429+165525904+161761380+158214462+158552346+160265694+159967631+160544841
3416+162447601+161492559+159124348+160043747+161808453+160037001+155897791
3402+152823883+152600833+152944866+151391798+149380081+148576068+148572894
3389+147740562+146245599+145243981+143605457+142034315+143988145+148398075
3375+149795926+147379277+145394468+144215743+141312576+139342615+140946634
3362+142657043+143491147+146618585+151629515+155040168+155137117+152838838
3348+150676462+151180783+153559022+155422142+156320310+155914356+154657508
3335+154332228+155206145+155929095+156177264+156029571+155510374+157499324
3321+161954627+164308280+165027252+165212415+163604336+163119536+164260719
3308+164176193+165270176+168960755+172000159+173707303+174794088+174715784
3294+174237440+175532121+179495842+183215319+183872913+184188626+186063411
3281+186582842+187150974+191330077+196556272+199366911+199513501+199253252
3267+199804005+198577411+196160771+196630001+199792395+202126770+203185218
3254+206343941+211799895+214689978+213097596+211198633+212109966+215007355
3240+219508809+224913440+229521282+232176796+231782200+230455853+233004815
3227+238083353+239306004+237939638+241026223+248310395+254989940+259368422
3213+260917945+260479512+261399471+264437103+267292790+269824482+271596403
3200+271968611+274097080+278456284+281471329+282929418+286675587+294394050
3186+301821411+305332233+306305775+308182766+312806378+317865602+322158274
3173+326745175+330354447+332791468+336179209+340263299+342982613+345153978
3159+348175587+350773557+352642988+355155926+358949006+363187064+366940141
3146+369790927+371684194+373982437+377101049+380513023+384858176+390245156
3132+395094350+397345755+398067964+400623979+405582329+409856085+411711447
3119+413977247+418061987+422111934+425569842+429007603+432759162+436136775
3105+438325211+440712826+444847479+448106280+448485758+450334682+455530911
3092+460137018+462230729+461943336+460423905+460400938+462367699+464877888
3078+467925321+471548554+474943565+478057223+480578805+481399283+481726642
3065+484047635+487128199+489378193+492398464+495953412+497394936+495972762
3051+493570426+492805683+494248076+495633720+495804507+495780455+495344735
3038+494735697+495345603+496431955+496067125+494167818+492335098+490960810
3024+490330903+490612401+488844421+483515382+477816052+474470954+472256404
3011+468193979+461045168+453543969+448212290+440541352+426572789+410600573
2997+396222584+380902664+361690419+339168231+314927903+288746458+259954529
2984+230048924+202090548+178139675+159404219+146180614+138333537+137330029
2970+144915953+160171168+179731352+201340037+224722742+249288892+273150465
2957+293202014+307095438+315176669+319584428+321325065+320037509+316685611
2943+311909187+304633895+296136114+289848416+285702732+280648283+275601158
2930+274596456+276860990+279003999+281051903+283845959+287098503+289325115
2916+289738085+291324282+295245741+298048875+297900296+295835718+292645945
2903+288796208+285222706+282725917+281349026+279522418+276353820+274364129
2889+274962335+275867592+275300183+273719447+272927090+274877376+279350293
2876+285135143+292307518+300132007+308030715+316078164+322476555+328055626
2862+335598599+343375184+349566403+355895026+363292024+370696256+377683504
2849+384922338+392795673+401450425+409041032+413003270+415931240+421065332
2835+426409778+430326336+433708363+437222078+441093462+444924735+449033527
2822+453945148+458015168+460050829+461219065+463244780+466836583+471058112
2808+474985484+478538334+482349352+487250375+491704069+494070308+495688117
2795+497240533+498030594+499143927+501695022+504296609+506069797+508592862
2781+512175369+514786830+516008306+517331198+518816450+519306603+518649389
2768+518056807+519159072+521613816+523540393+524695428+524567429+522530357
2754+521345953+522062809+522164044+522078145+523611970+525015518+523680473
2741+520788202+519831839+521219002+522613255+523019533+522617703+521887212
2727+521623581+521593236+521691324+522850663+524948209+527672767+531046150
2714+533190099+532779769+531764669+531976326+533288042+535638440+538990302
2700+541957153+543283011+544132423+546199081+548930765+550781642+551956352
2687+553448259+554499744+555058834+556484336+558556780+560594286+561855909
2673+561183612+559166469+557243255+555318269+553730661+553814644+553932408
2660+552052343+550164683+550297999+551936749+554322628+557765960+561696768
2646+563604321+563111636+562764059+563655246+565263144+567804221+571316237
2633+573949398+573686527+571571187+570047380+569257573+568972892+570225292
2619+572328660+573144762+572214043+570744597+569887661+569743168+569896775
2606+570536846+571287881+570899650+570261135+571022586+571461814+569782483
2592+567149828+564737366+563878151+565868493+568438071+568309637+566462739
2579+565852543+566801527+568103478+569352876+570253286+570271515+570211982
2565+571156337+572400490+572915238+571843932+569807548+569161546+569557082
2552+569255475+568287792+566910828+565673980+565393133+565313744+564038088
2538+562698630+562920378+563072755+561962026+561583272+562870068+564019967
2525+563748922+562478980+561608951+562415577+563749898+563234645+561202058
2511+559846072+559707149+560332499+561769249+563730476+565821764+567026277
2498+565999495+564114945+563614159+563978410+564309712+565541568+568208872
2484+570502088+570735663+570297846+570524223+570409353+570187351+571370670
2471+572984898+572768141+571124726+570664267+572656200+575434433+576246773
2457+574704231+573231421+573658750+575543915+577823205+579125771+578231329
2444+576666073+576350215+576229051+575810330+575668551+574759713+573293088
2430+572505234+571723673+570782103+570280485+569470785+567188962+563690836
2417+561456393+562190863+563872581+564006947+563353168+563519506+563824514
2403+564052989+565788272+568023799+567980433+566420928+565732971+565804837
2390+566015915+566682931+567231243+567275296+567768776+568573304+568711323
2376+568949310+569592093+566950830+560163774+558771511+565499287+571511546
2363+577442281+581455987+576593953+569763929+568222472+566877264+564544480
2349+565647433+568124564+567424382+566299909+570018952+575365894+578282181
2336+579379455+579591185+577139986+573195832+570646689+569480080+567443370
2322+561999750+557170774+558455255+562355791+563441672+560911192+557386156
2309+556192638+556685540+556609478+557077966+558628393+558734511+556562061
2295+554331272+553414369+553415057+554409794+556515621+558099540+557399973
2282+555457843+554154662+553107951+552307330+552278938+551208970+548886350
2268+547712146+547720067+547625559+547308580+546800813+546130325+544966899
2255+543329921+543251797+545271761+546434247+545942105+545941237+546848049
2241+547574706+547327243+546081497+544521197+543345618+542938507+542851233
2228+542383794+541477778+540113654+538560442+537821740+538085914+538418951
2214+538522393+538328928+537417849+536317355+535971225+536340829+536313558
2201+534536102+531715770+530398375+530796878+530968315+530168996+528878257
2187+528368465+528844657+528727218+527996763+527630487+527937700+529046476
2174+530208817+530852396+531031248+530482467+529340344+527921859+526286002
2160+525044923+524991466+525717038+526318011+526633652+525700726+522823971
2147+520545331+520678539+521359155+521302370+520849977+520039698+519104422
2133+518478819+518078653+517861245+517908011+517614469+516990059+517316514
2120+518568155+519064962+518356389+517696028+517665864+517641450+516982861
2106+515835566+515278719+515718200+516138982+516026318+515932063+515674979
2093+514493830+512629282+510984166+510300404+510331039+510363337+510806363
2079+511757517+511832241+510386051+508984384+508945069+509393954+509747137
2066+510381493+510868247+510530326+509184503+507645035+507084209+507070682
2052+506784410+506788967+507308308+507109961+506319756+506844413+508061260
2039+508000353+507327224+507054551+506841339+506546314+506349450+506205898
2025+506308218+506971581+507379343+506568124+505071624+503826132+503099547
2012+502808355+502864706+503220747+503420034+502628997+501075025+500068027
1998+499913408+499783636+499161107+498396364+498232666+498341243+497870151
1985+497031951+495983033+494584658+493738609+493985132+494149264+493311353
1971+492350795+492462953+493362350+493560046+492393546+490874368+490119825
1958+490339583+491132465+491733185+490993470+488602564+486532218+486174187
1944+486380057+486321863+485478273+483311900+481230486+480120155+478594105
1931+476162618+473890127+472567379+472030569+471899206+472540832+473510902
1917+473765852+473974616+474661959+475095002+474971234+474795564+475194211
1904+475641758+475031382+473718219+473107119+473967816+475606566+476613781
1890+476799397+477047259+477419611+477708741+478577287+479883867+480347255
1877+479614594+478491857+477812689+477252622+475570181+473604759+473213671
1863+473827990+474506941+475362213+476103121+475789650+474649770+474208046
1850+474452038+474501950+474142979+472831046+471474084+471339574+471509709
1836+470907543+470193798+470149021+469730518+468450738+467421858+466939084
1823+466548900+465667659+464446653+463866079+464337642+465078767+464842660
1809+463582484+462469766+462066597+461878811+461264674+459971873+458719148
1796+458447126+458019110+456420001+455479552+455337158+454584423+453772553
1782+453435681+452739622+451467401+449974518+448171166+445771905+443365157
1769+441051398+438465002+437172527+437753246+438613907+438884337+438350565
1755+437004453+435304687+433742650+432809001+432132184+431779904+432320910
1742+432882676+432433683+431846816+431015126+428770412+427567092+427941289
1728+427688726+427045328+426392671+426023899+426597166+426317477+423774519
1715+422161629+422329776+422143328+420827055+418414448+416387575+416075624
1701+414883480+412189737+410348299+407303325+403984051+402404219+400831983
1688+398813538+396027312+391858371+389047117+387979139+386822368+384013284
1674+379909700+376635852+373522231+369904894+367351845+365429644+363293254
1661+361952567+361563396+361187173+359156793+353966532+350844953+350843253
1647+349624670+346604038+344279066+343458805+344387897+345978688+345687135
1634+343982269+343371603+343475949+343874054+345571143+348221846+350612499
1620+353026481+355453953+357139071+359106410+362121799+364882092+366520950
1607+367894876+369681193+371253791+372237713+373148685+374348532+375695440
1593+376970735+378182843+379254149+380121320+380845916+381429311+381885611
1580+382616174+383926118+384582645+384417284+384286789+383323590+382600513
1566+383039307+383575937+384536712+384142043+380357463+378619250+379032799
1553+378950480+378882628+379099276+379094610+378587531+377452063+374682149
1539+370953521+370092462+371272490+371808721+371212233+370471470+369909595
1526+369496915+368209070+364647215+360843285+358707293+357046733+356225640
1512+356485546+356093554+353505060+349147719+346501645+345682505+344212842
1499+340690121+335084575+329671192+325462466+320101563+313183108+307570437
1485+304110974+301010427+296836387+292164418+287461434+281895656+273686263
1472+263342071+255700394+251977066+250705406+251306523+252732586+253974208
1458+254407847+253867312+254268889+256575668+259926029+263265485+265762346
1445+267701022+269759523+271036373+270582750+268498696+265890997+263539641
1431+260920657+258386271+256485156+254659687+253346995+252947244+251576484
1418+248713454+246564225+245619961+245154438+245021809+246164239+248499627
1404+250258040+251151506+251984607+252346760+251734792+250598131+248683127
1391+244507948+236749230+225684060+213996342+204160370+198565114+199849487
1377+206633089+214350014+220555303+225421713+229957219+235820247+244120874
1364+253894077+262831085+269866835+274996677+278008738+279286817+278793102
1350+276068724+271494210+265993154+260962106+257309251+255422061+255997535
1337+258252123+260337497+261781716+263235791+264481464+264124772+261915412
1323+259036107+256337228+254151595+252425010+250583175+248703526+247727958
1310+247436894+247124056+247396783+248695605+250910842+254001207+257473745
1296+260916462+264362705+267819039+270989174+273958049+277128889+279715249
1283+281023167+281847299+282594934+283108777+283973073+285568059+287797727
1269+291061447+295165574+298872555+301496801+303553078+305728493+307783649
1256+309393790+310700008+311976388+313753988+315772759+317145310+317813302
1242+318302153+319150590+320494749+321892365+323023022+323851313+324147061
1229+324022425+324077220+324473118+325104328+325806427+326165542+325886793
1215+325192904+324707670+324607303+324670923+324929888+325334358+325445829
1202+324876540+323541676+321716804+320404943+320065829+319658320+318334741
1188+316341939+314356227+312607670+310815638+308482240+304726305+298704553
1175+290154255+279184750+265133452+248010939+231337203+219618724+214577712
1161+215418028+220372092+227202134+234266945+241173573+246813298+249958747
1148+251228092+251507420+250688624+247552759+240713512+230971252+220500038
1134+210662112+203075483+200179722+203124528+210325928+218717464+226080537
1121+230927036+232257705+230694384+227450285+223439599+219706885+216745604
1107+214178775+211332365+207725300+203236667+197236164+189231140+181055601
1094+175102948+172248165+173362257+178671150+186606876+195760949+205414922
1080+214500709+222200961+228854700+235364852+241371396+245116226+245898366
1067+244299980+239981176+231117553+216457325+197217863+175862934+155124567
1053+138955234+131209085+132610236+141020309+154691198+173261944+195272839
1040+217085912+236028124+252054430+265498227+275999552+283604843+289893844
1026+296465282+302763668+307525154+310553454+312738201+315173088+317788274
1013+319619548+320492217+321541387+323514694+325476644+326321608+326421686
999+326487223+326539884+326972132+328019421+328770745+328671066+328189195
986+327635965+326827277+325805595+324972458+324337921+323253776+321454222
972+319332661+316274196+311301053+304761967+295892394+281482487+259624295
959+232716174+206395065+187738763+182550129+190795347+207821996+229327004
945+251374628+270261087+284547878+294932578+302792404+309305503+315073408
932+319884119+323238441+325369731+327070473+328445990+329131127+329472772
918+330038879+330982836+331941657+332383743+332595291+332734395+331943972
905+329956813+327751016+325828236+323347235+319620344+314476812+307390572
891+298057773+286321771+272189473+257392131+245578928+241100423+246770547
878+261299502+279706098+296511071+308823126+317139053+323296780+328207460
864+331930988+334182393+334452968+333833369+334020757+334537710+334867348
851+335178649+334776385+333734738+332823983+332073636+331411177+330933068
837+330617536+330410653+330070562+329049133+327134491+324049515+318634721
824+309642483+296476729+281801491+273181136+276356660+288737163+302993717
810+313560090+318838927+320566470+321638933+323312658+324988300+326516809
797+328333181+329926359+330630520+330653740+330565996+330723219+331032675
783+331177385+330878454+330356509+330060327+329844474+329584171+329485829
770+330016816+331640375+333137237+332468196+330309454+329390272+330162321
756+330852485+330784959+330360343+329990196+330205868+331093872+332073853
743+332418066+331815683+330931477+330823478+331287481+331459968+331832357
729+333059837+334344535+334828395+334769260+334650628+334520711+334546282
716+334910823+335775933+337520837+339779873+341129747+340670952+339717193
702+340266879+341765477+342559372+343177452+344351294+345090394+345582825
689+346744081+347837269+348773015+349998578+350954073+351995539+353491967
675+354393679+354895334+355819145+356193704+356918119+359939294+363165471
662+365310650+365936760+366028880+366859703+368172721+369792193+372118611
648+374807689+377311477+379606537+381733631+383478969+384779654+386110937
635+387914615+390086305+392947472+396432361+399200394+401236272+403558024
621+406274590+409220210+412247172+415294895+417537547+418745894+420996648
608+424914146+428810812+431807790+433860523+435356733+437307616+440590216
594+445392753+450882487+455292815+458408932+461936970+465381532+467215084
581+469381964+473862603+478883741+482805579+486309421+490115231+494507909
567+499254349+502937983+505360174+508817359+514075725+518984199+522256093
554+525132341+528972042+532773729+535710741+539252052+544097304+549819492
540+556005431+561591554+565944592+569871277+574908907+581203496+586742564
527+590070627+592681365+597885406+606111093+613411305+617188144+619523243
513+623341531+630154846+638279695+643362356+645650797+649387345+654947861
500+660005566+664032762+668106906+672278414+675069667+676677855+679171009
486+684772396+694037270+704581346+714359738+722891481+730879397+739943755
473+748145643+752073593+754574126+760822491+769939003+775618947+776753475
459+780351209+788501883+796079940+802560288+809684216+815613432+818083583
446+817447599+816217226+818264786+825800598+836021691+844327165+848788888
432+851102864+856295187+867491521+878870940+886447261+898420346+918961922
419+940115827+955198374+965147481+974184785+987184978+1002192946+1014735755
405+1026600697+1041712613+1059023490+1073741823
##END=
