##TITLE=павел 8-многокр
##JCAMP-DX=4.24
##DATA TYPE=INFRARED SPECTRUM
##DATE=3/2/2015
##SAMPLING PROCEDURE=Instrument type and / or accessory
##ORIGIN=Default
##XUNITS=1/CM
##YUNITS=TRANSMITTANCE
##RESOLUTION=4
##FIRSTX=3996.3347
##LASTX=399.24773
##DELTAX=-1.928733
##MAXY=0.22031601
##MINY=0.036747519
##XFACTOR=1
##YFACTOR=2.0518527e-010
##NPOINTS=1866
##FIRSTY=0.16768457
##XYDATA=(X++(Y..Y))
3996+817234924+816521767+816693592+817356858+818781938+818640469+815588344
3983+812768104+813542628+816088716+816778416+817518081+819946665+821338557
3969+820791561+819291098+817170507+815616739+816961135+821342478+826301755
3956+829063533+826488759+820394531+817113934+817105655+818445984+820160758
3942+817431079+811491320+810348089+813263755+814489486+813818813+812426413
3929+811635767+814204731+817411543+815493208+809288593+803732138+800876748
3915+801231221+806780196+814931396+818666322+816202371+811901131+810275611
3902+811594008+813118945+813156637+812049136+809533187+804107526+800649656
3888+804161920+808132871+807752835+808352337+809640233+808024300+806612582
3875+806846500+808727798+812263810+813480317+812148993+810042709+806488397
3861+804188500+803940493+803806939+802161666+797461363+796309781+798376558
3848+797094690+795228280+795972375+798432405+802054983+802518390+800537091
3834+803643973+808519152+808440356+807288484+809225992+810493916+806583170
3821+799637583+797927675+800147396+799178388+795506063+793420840+792742105
3807+790494861+791258636+796576017+797394259+794921956+796271509+799000461
3794+798537272+795769176+796692649+801349233+803525380+801842851+798580483
3780+795036773+792487417+791687475+792946975+795458567+795082017+791993508
3767+791266915+791382168+790270674+789436091+789894124+791420586+790481062
3753+786485347+783014406+781437834+783059069+785301012+784839203+787432786
3740+793033033+796731430+796868251+793407550+789552360+789234489+790954419
3726+789928111+785127225+780073103+777425706+778000371+780502886+782935029
3713+781652507+775070035+770058107+770088609+771784863+770916728+767407877
3699+764602670+762325069+760466285+757908286+750680704+740714365+735019636
3686+732171436+728699115+727740710+731188194+734427759+730336835+722315557
3672+722151865+727439542+728991785+726090861+722938589+722997559+726601110
3659+729422730+725305807+715254645+708687787+706832996+702029060+694565163
3645+691664312+691725751+690027390+687409986+685639656+680773119+671878986
3632+664251687+657366523+649522735+645358244+643601422+640556922+635056605
3618+627532503+620543197+615115866+611909635+611239761+607676879+598954644
3605+591334062+586069770+579391072+571858256+568436770+569488024+566798033
3591+556412551+543993662+535752772+531951723+528830715+525892898+522967573
3578+517314784+509898927+502894479+496274824+493342817+494014507+491208102
3564+485056647+479956663+475960258+471919444+466534960+459512538+452157430
3551+445977543+441701322+438261826+432790485+425671511+420853595+417569658
3537+412954106+409018413+407064638+404168434+398830393+393459417+391246232
3524+391360650+389229638+383638977+378094033+373521111+366821026+358916344
3510+355517190+356729231+356729921+353344093+348696042+344750292+341883827
3497+338316733+331725110+324793576+321917852+320714054+317533531+314653958
3483+313924352+311774386+305990475+299795211+295053313+291036138+289093038
3470+290369967+292456951+291728870+287664671+284018890+283909901+284420059
3456+282240916+279158163+275480990+270836135+268313268+267303046+265000027
3443+262121289+258962154+255992129+254947630+255003440+254880000+254339376
3429+252049774+248316609+244918490+242091968+240028913+238274343+236247309
3416+234482408+232972976+233462981+236840620+238580285+235796103+232062030
3402+231840203+232708084+229987246+228304246+232393445+236941621+238081837
3389+237673315+236096780+233186651+231445733+233171818+235974737+235474092
3375+233309148+233319424+234245639+235540724+238098686+240461093+242830326
3362+244907361+245223053+244998738+243645047+240647861+239798662+242452432
3348+245770793+247928766+249914496+253013063+256487690+257970324+255512745
3335+251784864+251260308+253667378+256384965+257409621+257402140+260057018
3321+264603524+266595499+266597877+266554539+266707701+268583915+271392953
3308+273407550+275238575+277238066+279600455+281384438+281492337+281974390
3294+284455209+286314919+285097649+284010447+287014151+291464740+293642122
3281+295224485+297764727+300166713+301245673+300276628+299042637+300021050
3267+303718811+308596550+311614942+311961353+311375976+311578739+313245836
3254+316193928+320433947+325026841+328192403+329541156+330049481+331253460
3240+333643663+335346091+336802254+341080218+346396364+349715160+352218510
3227+354270544+355805212+358843793+362664051+365115258+367842794+371648201
3213+375006468+378303332+380671640+381238462+383922062+389633712+394020901
3200+396995937+400243490+402561361+403720097+404926146+408381583+414267129
3186+419152729+421510288+422770442+424185899+425979832+428413354+432550140
3173+438272611+441948494+441558727+441764831+445460577+450753883+456241927
3159+459836872+462254708+466884749+472169086+475169249+476450390+477523213
3146+479642242+482672290+484896404+486321956+487836980+490065888+494880427
3132+500529113+502531509+502093593+502512627+503742207+506465931+511697289
3119+516082989+517523284+519674231+523240091+525238348+526433649+528643892
3105+531491584+534253834+535790463+535019571+533815700+535815373+540435319
3092+543286532+542938269+542420250+545046405+550123330+553817115+554449988
3078+553813412+554598684+557353781+559578985+560255758+561614679+564497193
3065+566520940+566307538+565580074+565439657+565926848+566967862+567733962
3051+568545015+568966337+567827972+566668837+566566112+567660177+570341888
3038+572270064+570975161+568058586+566921383+567703533+567692821+567332865
3024+568475696+567945948+563221643+559428655+559987743+559894204+555677534
3011+549359010+542431433+535595507+530251329+525923727+519402585+509092957
2997+497345032+485682112+471893481+454045082+432594004+407830737+379555679
2984+348689325+317404843+288016784+263118166+246283729+239101573+240580303
2970+250594301+268686114+292192313+318067818+343705138+367395437+388751016
2957+406749091+419561306+427122554+431559744+434381291+434351298+430349192
2943+423486032+415295324+407258868+400200134+394471490+390764815+388558602
2930+386899821+386142545+386457220+387622020+390368330+394830211+399438719
2916+402406493+402741357+402358561+403473723+403624852+401340896+398526611
2903+396130889+395436395+395927218+395064566+393233850+391838291+390769099
2889+389281200+388090692+389205527+391974713+394066763+394807989+395400084
2876+398063458+403219615+408908462+414491643+421264968+429403496+437200551
2862+443355492+447638358+450098461+452785074+457694459+462969028+467556438
2849+473502153+480632166+486619710+491901070+498391238+505142196+510119337
2835+513415185+515995588+517859674+518726538+519639626+522618983+527189218
2822+530443961+532205286+533645835+533981789+533328291+533757638+536479074
2808+539772453+542409320+545610286+548533360+549349460+549464023+551281921
2795+554687901+557863485+560070460+561826520+563151998+563704840+563975469
2781+564632344+565567837+566408266+567621178+569445104+570528094+570511027
2768+570643419+571073964+570936634+570403509+570113235+569271281+567828081
2754+567792024+569820129+572134150+573554074+574715388+575977139+576710922
2741+575941627+573663699+571478111+570415673+569884908+569154576+569060129
2727+570440292+571609813+570931805+569823397+570191740+571434682+572414402
2714+572664951+572204486+572208553+573137291+574444105+575903681+577942789
2700+580849341+583003084+583496085+583563261+583497646+583475823+584596468
2687+586298132+587257010+587684650+588062834+588768548+589491037+588867678
2673+587251853+586317123+586342832+585881458+584336042+583394086+583114632
2660+582089342+581236675+581441545+582130664+583294592+584810742+585987052
2646+586832274+587752335+588656926+588970657+588634231+589094298+590375585
2633+589647939+587145715+586680964+588449733+589660721+589877718+590013051
2619+589856766+588842623+587598374+587763882+589785886+592114941+592479799
2606+590317740+588181718+588200963+589619652+590255539+588163417+584844148
2592+583922381+585098147+585515003+585104756+585316742+586101070+586925486
2579+586981442+585638643+584142574+583312639+582581435+582290834+582932458
2565+584195843+585239725+585032895+584403109+584768003+585005407+584454817
2552+584260114+583420775+581103158+580030335+581295500+582122857+580706927
2538+578282265+576897127+576745672+577073129+577928881+579129230+580440038
2525+581219246+580325148+578637827+577595905+576494977+575114415+575330541
2511+577176762+577969950+577355124+577327563+577609703+576797416+575375458
2498+574783545+576079973+578029428+578542255+578531071+578424460+577475424
2484+577299458+577804914+577074109+575986471+576106662+577157153+577985963
2471+578457540+579611918+580915028+580539967+579083840+578707073+578825521
2457+577674156+576554673+577440129+579234315+579735922+579038633+578966264
2444+579825757+579969477+579143936+579357883+580524934+579891117+577310933
2430+575209696+574444504+574197514+573890936+573434501+572981370+572913395
2417+572659941+571827718+571377855+571341289+571203233+570985546+570474207
2403+569873289+569892352+570227943+569893405+569635194+570458739+571721180
2390+573002939+573780476+573348660+572598066+572873525+573453092+572725301
2376+571364529+570160331+568525552+567105592+566592147+569484356+577550697
2363+580640586+569216087+557550407+562123802+570499153+568393959+564042864
2349+564981878+568613898+572061491+575827681+579116739+578009384+573441109
2336+572074055+573185368+569719328+563600808+559961163+559581853+563376875
2322+568231647+568945494+565435263+560714553+557957568+558123657+560050743
2309+562448390+563204613+561650191+559597794+557854661+556347844+556002377
2295+556797017+556649411+554977158+553427239+552963069+553413332+553566022
2282+552689571+552101434+552558995+552765753+551743294+550014541+548566185
2268+548672142+550362732+551072476+549573574+547849033+547235006+546890265
2255+546263965+546077106+546701082+546932278+545532470+544006081+544067919
2241+544652062+544664517+543991847+542616731+540658707+539038235+539562427
2228+541445758+541892535+541194919+541356505+541409047+539474953+537243939
2214+536911762+537344195+536922038+536159061+536127398+535990140+534587246
2201+533064307+532339929+531832984+531965703+532768876+532450933+530943861
2187+530162620+530068501+529536719+529722380+531512172+532773016+532240181
2174+531133044+529924635+528317198+526896511+526018028+525413369+525749214
2160+526926686+526975925+525937525+525637447+525717260+524898218+523659416
2147+522841064+522389385+522333611+522187530+521064634+519919951+520148967
2133+520935873+520649085+519414386+518795566+519065360+519262096+519206394
2120+518603333+517067248+515609488+515114381+515381670+516008188+516061493
2106+515074620+514028813+513517111+513134752+512726719+513052070+514206049
2093+514482488+513100510+510840883+508780134+508304381+509156357+509622851
2079+509482616+509633671+509644637+508442510+506818551+506200276+506584488
2066+507058897+506939178+506517457+505946677+504798725+503861526+504229870
2052+504972476+504953848+504776902+504791826+504542330+504293705+504399771
2039+504459540+504219231+503650593+502311425+500457325+499645691+500496868
2025+501540860+501560649+501125456+500905736+500532926+499578950+498493419
2012+498308339+498964306+499233991+498943354+498569164+498200421+497983134
1998+497654624+497257122+496887072+495819006+494519926+494164510+494285681
1985+493586903+492061458+490979484+490738231+490843062+491273644+492148787
1971+492715899+492279653+491878230+492044500+491422775+489953068+489282576
1958+489842136+490272899+489698234+488554785+487538754+487033226+486460049
1944+484946950+483336136+482949600+483013944+481962001+479761707+477753137
1931+476657148+475836109+474643241+473635452+473975582+475345940+476200204
1917+476231577+476133827+475835637+475302439+475383704+476159499+476599776
1904+476302639+476126419+476791646+477204471+476288586+475123751+474722763
1890+474440332+474050746+474122244+474211534+474048350+474390549+474952760
1877+474822728+474171083+473240891+471867664+470553261+470312952+471191508
1863+471954339+472122970+472500137+472875489+472513863+471147716+469102545
1850+468253401+469528043+470750796+469897040+468496688+468151692+468146500
1836+467969663+467732150+467355237+466741464+466341130+466094720+465307015
1823+464588374+464327985+463854992+463098442+462583618+462189602+460709183
1809+458815213+459029595+460675958+460850471+459231850+457617006+456478968
1796+455303203+454005394+453098878+453367329+454365204+454851742+454315930
1782+452871713+450897168+449711525+449451281+448549340+447128871+446624178
1769+446039055+444534271+443697400+443337336+441917811+440558273+439970971
1755+439540353+438999857+437863489+436408089+435560797+435649215+436320578
1742+436454205+435206978+433751650+433205780+432441605+431313153+430614484
1728+429916141+429320778+429169577+429641227+430108628+429377569+427484253
1715+425579498+424274645+423766502+424101802+424279075+423578263+423297321
1701+422581513+419992432+417870789+415775762+413654481+413046155+412664667
1688+411621583+409452626+405323139+402232851+400985298+399341622+396554535
1674+394224645+393034899+390624507+386951928+384456167+382167709+379039039
1661+376889654+376507113+376454933+374362557+368877599+365174264+364270979
1647+362400902+359429062+357633568+356561544+355499034+354367677+352925240
1634+352260486+352769863+353263191+353540938+354511434+356317930+358103874
1620+359546675+361048263+362729485+364545676+366507621+368546075+370510853
1607+372292802+374099625+375858916+377164496+378077330+378931339+380014874
1593+381338391+382697820+383789452+384195596+384370872+385327824+387354767
1580+390000422+391478553+390072209+388346906+388037314+387796569+387401791
1566+387258978+387874820+389671875+390741902+388969975+387177168+386092907
1553+385107886+385031450+385519041+385889599+386043596+386212009+385571983
1539+383293074+381902708+381470057+380811693+380980578+381807172+381319001
1526+380130054+380096248+379328878+376942632+375218963+374129800+373315043
1512+372990854+372742556+371015546+366578102+363387848+362728722+361931758
1499+359740033+356362957+353213009+350880105+347882084+343693664+340155038
1485+337806520+335087372+331461997+328143527+325309053+321732518+316181219
1472+309368932+304186775+301028203+299038189+298352519+298781303+299339665
1458+298863549+297976714+299020796+301486781+304074773+306291534+307942472
1445+309086864+309627397+309686330+309517337+308340119+306340191+304495296
1431+302348325+300199848+298987062+298212230+297210923+296117221+294623385
1418+293083379+292463197+291992763+290909120+289786678+289327465+289269602
1404+289525707+290487054+291571641+292276411+292890420+292758300+290878092
1391+287319621+281350160+272388614+262849897+255426524+251876151+253178335
1377+258233582+264917454+270736060+274219784+276758973+280715889+286681284
1364+293275194+299297707+304819394+309292532+311439921+311609531+310656936
1350+308077623+304086011+300265771+297368714+295176300+293736459+293429028
1337+294526197+296548402+298253480+298805323+298258164+297228824+296135032
1323+294826802+293331477+291724549+289961245+288435056+287464522+286699294
1310+285955799+285785770+286364303+287148721+288068237+289530518+291583479
1296+294027350+296397400+298358075+300468444+302826348+304520932+305223541
1283+305454010+305830669+306194473+306099591+306374542+307924570+310349487
1269+313051460+315652778+317945848+319900313+321234506+322171524+323379461
1256+324652869+325402846+325928237+327007595+328401412+329462070+330477629
1242+331487234+331867487+331487415+330800112+330434600+330573818+331027748
1229+331749257+332210595+331912949+331436470+331308400+331337086+331339627
1215+331318676+331303715+331189879+331120415+331638217+332173121+331514358
1202+330557224+330792595+331431132+331275429+330330931+328708570+326713472
1188+325185268+324371564+323473653+322019814+320372217+317947083+313415483
1175+307071976+299900369+291361724+280921139+270135741+261277192+255802965
1161+254544173+257268496+262635605+268590143+273052769+275778781+277979619
1148+279789093+280030237+278403338+275749023+271971304+266156457+258356860
1134+250161087+244066532+242055802+244391175+249781596+256184871+261453884
1121+264617358+265940421+265336362+262645772+259059124+256164627+253737332
1107+250886463+247996560+245178644+241443064+235973139+229326777+223211216
1094+218620428+216366920+217626274+221631303+226812370+233214611+240819650
1080+248786461+256499056+262957579+267213593+270090442+272441284+273308220
1067+272569935+270743758+265587801+254252446+237199904+217710063+199612313
1053+186023541+179094331+179920145+188276015+202162214+218607265+235424164
1040+251166534+264828110+276409148+286261323+294212085+300017528+304053567
1026+307142748+309890909+312254641+313907649+315465738+318087172+321094997
1013+322682100+323241006+324420257+325988841+326817941+326713109+326181364
999+326243384+327145724+327582079+327024843+326466554+326590776+327045723
986+326879598+326154348+326052349+326349777+325939239+324980761+323581934
972+321322634+318729377+316059249+312515866+306937007+297295093+282237594
959+263158908+243798680+229243333+224244078+230572351+245201901+262282113
945+277568483+290026570+299880034+307151353+312427375+316623747+320251700
932+323677942+326453519+327741269+328064477+328508857+328877201+328703559
918+328543099+328891653+329477575+329568935+328922336+328258962+327875403
905+327616866+327757355+327895411+326973027+324709624+321328299+316774295
891+310543898+302136974+292092202+281933685+273599783+269782593+273032562
878+283157346+296670390+308879526+317111955+322306530+326285469+329703287
864+332160739+332996593+333465955+334955452+336012878+335506987+334931123
851+335135920+335178078+334789835+334523345+334538923+334734133+334855341
837+334494115+333874641+333655719+333467625+332543244+330859336+327876820
824+321629684+311197796+299962824+294249268+297431388+306416954+315969560
810+323178005+326868523+327924170+328241786+328737256+330020577+331986916
797+333870065+335290861+336319202+337463740+338403299+338131254+337314972
783+337415518+338455189+339496093+340134885+340572801+340236267+338899459
770+338233906+339419331+341287665+341747078+340518225+339358618+339207962
756+339304659+339268965+339903690+341046194+341596785+341901039+342764381
743+343745626+344139351+343747114+343100915+343786803+345845845+346855922
729+346573019+346883664+347754413+348509438+349469404+350788237+352360778
716+353972790+354913875+354569823+353676307+353727179+354455987+354743574
702+355380114+357033049+358373305+358858608+359579064+360581370+361511707
689+362837584+363783607+363798749+364161137+365706844+368331075+370942633
675+372458310+373843230+375799692+376589285+376219017+378026603+379963566
662+380435434+380824693+382672947+385153747+386832681+388558021+391743336
648+395031268+396861730+398157686+399763344+401322050+402723891+404183649
635+406060989+408329585+410256381+411971118+414089892+416486232+419042088
621+422104961+425520165+427531276+427858878+429569839+433292528+436699489
608+439768353+442681333+444179363+445999875+450189893+454579805+457111260
594+458967866+461902923+466065416+469974166+473032863+476166362+479175095
581+481984296+485354401+489437953+495099421+501607891+505936074+507841046
567+509876051+513159443+517165289+521417618+525223460+528596833+532567566
554+537282902+541576589+544446031+547130102+551135585+555450551+559164271
540+563436607+569244882+576112036+582449116+586031243+587596486+591106063
527+598167048+605614604+609981859+613309878+618258043+622931476+626378234
513+630259060+635974632+643199527+649891514+655582467+660747412+664951773
500+669068986+674000593+678570393+682014536+685020183+687874483+690708448
486+694636552+701136161+711114483+722618540+731440849+737355771+743711442
473+751148832+758483242+765221999+770810917+776341445+784169837+793992528
459+802929146+808973554+813919831+819206347+823014985+826706192+833041383
446+839039386+841645606+845203332+853700799+862100951+864587416+865111608
432+872176224+885965436+899554934+911021228+922464935+932527136+940759602
419+949929195+961728464+975356816+988277239+1001126491+1017238112+1032628151
405+1042800449+1050817733+1060611810+1073741823
##END=
