##TITLE=павел 2-многокр
##JCAMP-DX=4.24
##DATA TYPE=INFRARED SPECTRUM
##DATE=3/2/2015
##SAMPLING PROCEDURE=Instrument type and / or accessory
##ORIGIN=Default
##XUNITS=1/CM
##YUNITS=TRANSMITTANCE
##RESOLUTION=4
##FIRSTX=3996.3347
##LASTX=399.24773
##DELTAX=-1.928733
##MAXY=0.85941935
##MINY=0.14120632
##XFACTOR=1
##YFACTOR=8.0039664e-010
##NPOINTS=1866
##FIRSTY=0.5512197
##XYDATA=(X++(Y..Y))
3996+688683179+689932022+692494571+693859363+694532338+695026141+694772426
3983+694532263+693834713+692818585+692149110+690953736+690685499+692718574
3969+694168930+692885607+691085546+691180642+692206898+692405134+692007172
3956+691606604+690335942+687876979+686849085+689120312+692266845+693770670
3942+693579360+692669126+691626487+690100843+689347591+690879565+692580657
3929+692567104+691996300+692387559+693917597+694562349+692439092+688978672
3915+687832149+689425113+691046598+691111982+689045768+686612721+686491188
3902+686823989+687015076+688963853+691406879+693481507+694610530+693308740
3888+690172929+686519560+685038449+687276239+689308495+688905916+688537295
3875+688684147+688103737+686214834+684088077+684058066+685626381+686713850
3861+687152471+687817702+688666424+689546646+688586370+684768573+682172067
3848+681386867+681314632+682278706+683791765+683703668+680014703+676723402
3834+678311749+681280674+682834840+683955895+684393027+683624359+682288685
3821+681914553+683323132+683762275+681614667+679123311+677675338+677371058
3807+677217131+676931989+677909319+679368015+680461070+680840861+679691955
3794+678562337+678479229+678427920+678126694+678227376+678556305+677658135
3780+676234737+676780147+678731977+680907064+683725860+685344590+683778361
3767+681681987+681507953+682102960+681754222+680114938+678228865+677381260
3753+677391462+676624358+675672720+676382483+676231312+673857318+673199907
3740+673722976+673157757+673385036+674169343+672576826+671360972+672953787
3726+674367206+672799860+670190098+669973915+671724380+672523953+671572687
3713+669128172+666852105+666612166+666838775+667123544+667035745+664883371
3699+662623985+661681581+660279034+658146096+655729730+651720697+646691367
3686+643991795+644365778+645950104+646812528+646139776+643557716+641725484
3672+643408034+645929327+647254352+648362747+648706123+647365832+645503961
3659+644663728+644265022+643057062+641311139+637964209+632008114+628244828
3645+628547991+628583662+627019666+625318648+623589555+621042756+617594475
3632+614142395+609716858+603904525+600521589+599837109+598655771+595111797
3618+591713075+590991732+590322108+588052147+585593669+583049662+579740600
3605+576074013+572788260+570241275+567641715+564138327+560456213+558169794
3591+556961723+554477962+550030829+545251118+540824651+537096738+535187319
3578+534149260+531548397+528167882+525606078+521864351+515067092+508391515
3564+505544682+503972941+500696310+497694097+496576506+494742411+490301124
3551+484655191+479169069+473569977+467782739+463784579+462348447+460400415
3537+456399165+452445239+449543187+446289902+442105905+438112921+434298662
3524+430051254+426228208+422966434+418796213+413760367+409765930+406578923
3510+402570188+398693375+396086443+393460782+389269561+383544617+378575755
3497+376459200+375729294+373468530+369096052+364203223+360469800+358440895
3483+356910150+353580199+348499225+344384298+342120592+340391797+338448234
3470+335365967+330763455+326330545+323005286+320831204+319252352+316523068
3456+312880050+309590871+306853581+304953433+303219853+300764707+298685889
3443+297884027+296374561+292392450+288036429+285763062+284959692+283839754
3429+281699667+279119395+276814192+274940592+273398099+272100014+270306933
3416+266890748+262748081+260531701+260460899+260020472+258728083+257502716
3402+255915598+254763639+255092065+255604802+254455319+251443276+248830479
3389+248167427+248507359+248789317+247972412+245538750+243001092+241709504
3375+241194998+241092194+241213988+241150485+241278478+241192913+239783776
3362+238093686+238516446+240598186+241291585+240612186+241351942+243591761
3348+245076391+245422039+246003883+246798931+246911044+246665539+247038888
3335+248856097+251794490+253535144+252828546+251873539+252301064+253582693
3321+255583392+257404268+258329935+260006323+263087622+266278446+268688520
3308+269788127+269986940+271107548+273768545+276325602+277763987+279071344
3294+280734457+282016756+283276862+285340377+287658518+289567901+291624768
3281+294505895+297535010+299690642+300994611+301869751+303022622+305719178
3267+310167558+314740022+318161420+320570340+322664181+325072170+327722629
3254+330289981+332852344+335610932+338256998+340168242+342130906+345334930
3240+349312723+353680770+358103142+361123749+363075280+365986232+370002190
3227+373942375+377382242+380597287+383934871+387483202+391120001+394828961
3213+398127710+400460931+402983788+406420564+409229196+411071705+413606328
3200+417034726+420573823+424733766+428790943+431141702+432876567+435500887
3186+439026468+443342833+448271705+453142156+457132385+460043002+462477203
3173+465518662+469425783+472850272+474807166+476637127+479831507+483376114
3159+486510733+489584436+492015845+493605048+495007819+497308088+501280258
3146+505770471+508734966+510260089+512508863+515916894+519273207+522074354
3132+524025662+525579902+527816277+530469268+532557748+534328804+536536770
3119+539322129+542198825+543995685+544726560+545575133+546974813+549159841
3105+551777609+553882770+555422823+557100347+558731215+559025144+558835099
3092+560448505+563191715+565149204+566602725+568460985+569797887+569811887
3078+569997389+571443352+573268770+574471517+575102306+575643918+575943693
3065+576145950+576880139+577724355+578083184+578319176+578704775+578775372
3051+578038055+577313101+578154785+579661291+579404597+577450310+575250983
3038+573531236+572505539+571465618+569947793+568646859+567690492+566208859
3024+563662545+560300796+556736268+553473005+550287561+546367370+541526967
3011+536415348+531240803+524954214+516533385+506491032+495518005+483287198
2997+469337128+453035703+433734076+411289154+385666570+357222324+326565606
2984+294358763+262519629+233827606+210041834+191873735+180058949+176420436
2970+184069340+204020597+233616617+269817002+308722024+345149987+377056850
2957+404338638+425197596+438515276+445350626+446766503+443504244+437218512
2943+429452562+420759772+412756265+407801851+405577651+404231701+403839063
2930+405049294+407580604+411402645+415873161+419315522+421373135+423141026
2916+425359119+427891843+429897923+430941642+431381008+431036143+429547882
2903+427371566+425380380+423812847+421249181+416925220+412866144+410296447
2889+408287053+407059433+407560869+409474980+412346761+416519662+422463694
2876+429981105+437969047+445161326+451752865+459203440+467887926+476867347
2862+484969115+491771513+498185443+504611326+511145524+518606524+526340267
2849+533238282+539565456+545063345+549387158+553288508+557120826+560350616
2835+562845658+565384452+568455511+571561422+573829372+575152163+576569120
2822+578418927+580317623+582452981+584622408+586359991+587665542+589025418
2808+591076105+593498466+595859316+598352050+600512057+601653554+602144266
2795+602852801+604237810+605725512+606392381+606806912+607597995+608124900
2781+608753566+610153097+611534942+612650560+613787216+614141129+614063160
2768+615347711+617659523+619149571+618982686+618006176+618352642+620092124
2754+621088518+621174492+621447383+621938319+622329244+622223684+621524756
2741+620879521+620506432+619986378+619368621+618809100+618085262+617345637
2727+616609661+615333041+613942670+613347142+613193773+613567458+615608427
2714+618711806+620955851+621719306+621783722+621976857+622317813+622748392
2700+623529161+624734440+626291584+628020826+630065220+632589716+634799133
2687+635884740+636337586+636847325+636941603+636127434+634895793+633829027
2673+632694642+630839324+628348787+625713780+623403941+621908271+620733785
2660+619545299+619280860+620523448+623205184+626532565+629034050+630712132
2646+632892953+635390788+636816197+637818399+639965784+642334192+643451970
2633+643487120+643448396+644426545+645836017+645823060+644617259+644319831
2619+645224032+645841081+645909518+645763410+645254862+644757857+644355501
2606+643538429+642662377+642485513+642753601+643059966+643487343+643772038
2592+644115265+644885347+645332384+645083733+644571685+644190702+644331522
2579+644694409+644963093+645676133+646713186+647549993+648405864+649119574
2565+649512323+650430450+652097138+653517259+654583877+655914338+656661559
2552+655965349+654698559+653834497+653617048+653851774+654061850+653445695
2538+651658814+650214266+650251650+650510206+649740570+648180149+646965785
2525+647047924+647669665+647779879+648054892+648856401+649399056+649752559
2511+650199373+650538876+651357513+652948391+654249512+654768485+655190128
2498+655961998+656796943+657291268+657535973+657682155+657404982+656770209
2484+656821965+657752305+658272619+657870115+657049095+656246767+655853348
2471+656097978+656920487+657952849+658848040+659461217+659878019+660490451
2457+661382365+662208150+662699571+662972946+663207448+663306492+663483281
2444+663961074+664201906+663708996+662616463+661218459+659893434+658980669
2430+658389461+657800858+656874540+655470280+654080393+653220277+652568079
2417+651843720+651565206+651983945+652420630+652141074+651445982+651104616
2403+651052116+651031265+651468471+652348917+652879061+653347843+654609569
2390+655891476+656322875+656525355+656652697+655583324+653398481+651768655
2376+650542600+648210979+645444683+643806666+642210276+638207499+633628408
2363+631156860+629867282+630381788+633926134+638084030+639150871+640396587
2349+645459205+651269714+652208469+647168042+642274915+640571067+641683037
2336+644641834+648040669+650656612+651151085+650601207+650396268+649586717
2322+648961402+649669080+650780602+651894955+653181479+654194926+654743241
2309+655417109+656304034+656981403+657373779+657878157+658774018+659683357
2295+660481143+661092458+661188895+661290992+661879370+662355524+662308981
2282+662149097+662233246+662739114+663505101+663970531+664063990+663830455
2268+663480973+663501303+663421472+662795561+662376599+662695400+663318630
2255+663788082+663848477+663562442+663429961+663367556+663322875+663807742
2241+664332152+664136671+663655081+663482909+663489537+662984191+661756124
2228+660917754+660812604+660211640+659182033+658777294+658827114+658874849
2214+658851465+658494983+657846657+657329992+656878561+656242597+655612516
2201+655176649+654753517+654096329+653743272+654273565+654810263+654743092
2187+654692006+654743315+654750836+654995839+655273831+655095329+654869391
2174+655370492+656172149+656620973+657062723+657571345+657547441+656972243
2160+656607644+656605782+656220107+655415099+655023839+655119457+655055042
2147+654821656+654707793+654674133+654654771+654368811+653705293+653265629
2133+653332204+653340023+653048999+652785156+652613133+652387864+652073382
2120+651740059+651348651+650917551+650616920+650292459+649938583+649580685
2106+649036094+648887752+649455577+650063914+650290969+649828518+648716325
2093+647940433+647843326+647495929+646443162+645597196+645782251+646243288
2079+646118627+645793868+645521535+645332161+645665037+646401385+646836358
2066+646801804+646790634+646832485+646591430+646515844+646845443+646859667
2052+646494546+646553227+647171840+647694016+647692303+647399119+647340289
2039+647716282+648250298+648609536+648731070+648797868+648924093+649056573
2025+649262256+649562664+649789049+649816305+649647409+649652697+650049318
2012+650451599+650637994+650357619+649600568+649480524+650483993+651523802
1998+651717495+651119957+650223277+649690229+649873124+650147095+649628122
1985+648571781+647983476+648229224+648745591+648885593+648613260+648379130
1971+648676558+649416183+649874018+649545983+648755123+648287235+648254171
1958+648107691+647895529+648043126+648536929+649036467+649289512+649324512
1944+649097382+648743655+648711037+648881050+648903391+648729804+648350831
1931+647712708+646713484+645709941+645289118+645492194+646049371+646274565
1917+645611940+644790846+644474875+643926114+642388331+640730431+640135350
1904+640322862+640689324+641225276+641853943+642371203+642727984+642992944
1890+643392470+644070807+644875369+645666749+646216106+646374949+646329820
1877+646035668+645601962+645474024+645334097+644769102+644531397+645036966
1863+645617972+645955540+646164648+646207840+645942359+645295597+644573025
1850+644265171+644275075+643558312+642026636+641527024+642181978+642683228
1836+642654111+642361299+641961699+641314564+640821432+640530631+639919018
1823+639639983+640085381+640607110+640652834+640024391+638869974+637627387
1809+637013837+637108562+637140286+636533662+635371128+634341968+634038433
1796+634274872+634192956+633348926+632643184+632215807+631122306+629808601
1782+629126540+628130891+626224339+624155072+621751812+618583570+616347382
1769+615860467+616111464+616981819+618040320+618750753+619442755+619973942
1755+620580267+621426718+621580757+621246950+621519618+622205663+622855478
1742+622957463+622310180+622097161+621963899+620562544+619920324+620848393
1728+621624470+621752557+621528852+621442580+621036501+619157279+616985319
1715+616709002+617411765+617873547+618099560+617747285+616890111+616200864
1701+614464361+612025692+611465574+611857801+612320290+612573522+612177124
1688+611731837+610204741+607017808+605750459+606474520+606733895+605447594
1674+603753762+602989935+602102713+601223645+601476467+601711230+601043318
1661+600218129+600077047+600622830+599657006+595404683+593757878+595323438
1647+595460945+594467604+595167686+596896221+598154782+597710203+595769953
1634+595763363+597776145+599106904+599720341+600786177+601854098+602866987
1620+604482478+605739624+606113458+607072282+608376009+609038670+609519069
1607+610248529+611023080+611708119+612329748+612904797+613249886+613281572
1593+613438292+613905510+614113315+614003734+614244641+614955856+615631177
1580+615911329+615140613+613294902+612753104+613339993+612801471+611618310
1566+611088650+611150608+611344041+609319753+605210746+604632905+605772465
1553+605736534+605119484+604577649+604148969+603444791+601969004+598996876
1539+595978317+595803129+596238400+595278980+594376380+594164292+593315049
1526+591758910+589975343+587218282+584438433+582981710+581880836+580472443
1512+578867192+577002342+573651503+568502054+565404074+564442048+562680114
1499+558843775+553591894+548910445+544922860+539589026+532620637+525920783
1485+519810909+512936649+504476649+495009122+484628755+472319868+456913372
1472+440729161+430556861+428552754+433321109+442623575+452731498+461220392
1458+467839335+474113711+481563765+489939801+498117006+504779737+509324834
1445+511559049+511274504+508956883+505404531+500779827+496434233+492991089
1431+489132857+484960365+481334773+477844938+474320735+470967066+466886245
1418+462432373+459183035+456911660+455289169+454557773+455100427+457088039
1404+460206871+463738297+466724425+468514433+468709318+466574258+461637232
1391+453247306+438497366+415429624+388199778+363381087+348167466+349130609
1377+364872289+386080245+402499778+410028656+413228361+419996987+435316875
1364+458901096+485220373+507035437+521794127+530158808+532696484+529987976
1350+523061886+513003485+500830727+488601596+480256687+479454545+485947636
1337+495326359+503224417+507503213+507737530+504509229+498595953+490956674
1323+482778389+474835278+467522619+461399341+456905739+454279222+453620172
1310+454454373+456139119+458568108+462117854+467216068+473962875+481973790
1296+490570032+499260104+508050262+517147716+526234372+534872465+543255985
1283+551191427+558089256+564131587+569612460+574453049+578833085+583134259
1269+587327639+590920018+593702511+595990381+598068919+599939205+601519547
1256+602861700+604097399+605354210+606760406+608267880+609622990+610661943
1242+611460249+612114980+612591581+612876610+612962734+612941659+613169980
1229+613705226+613998670+613690481+613200401+612986526+612696842+611932382
1215+611115421+610681454+610359041+609817913+609090947+608027830+606225310
1202+603850237+601576590+599321076+596190367+591969955+587354374+582941906
1188+579058987+575408336+570758610+564166401+555420329+543866816+528098067
1175+506684577+478683159+444658326+408056385+374713464+350613620+339486740
1161+341421702+353393916+371121904+390828121+409504321+424831283+435772177
1148+442155613+443699465+439941690+430633229+415473523+394458218+369880880
1134+346861021+330971670+325808444+332516527+349918825+373679798+396653747
1121+412606695+419523439+419166882+415161238+410991911+408775382+409667929
1107+414170727+422150180+433046356+445822833+459030188+471500077+483210979
1094+494890977+507185790+520639264+535105962+549517366+563056666+575366522
1080+586175047+595338034+602625261+608220592+612834237+616817020+619846414
1067+621448798+621572454+619583352+613787365+603067569+588068344+571880037
1053+559662151+556011016+562262865+576163897+593566605+610447994+624468735
1040+635250563+643320607+649314980+653840231+657274587+659753060+661622751
1026+663353705+664778816+665389163+665411727+665601921+666257843+666957850
1013+667229885+667489558+668215630+668746816+668690592+668639209+668780551
999+668746221+668049564+666567410+665056585+664021468+662931467+661156948
986+658716826+655826390+652399779+648453077+643868624+638076508+630591343
972+621135731+609165118+593220325+571015640+539262852+493598420+432562904
959+363583307+302337769+263890452+256082669+279440672+327800300+389834222
945+453624566+510687577+556682316+590704021+614819950+632777154+647855762
932+661168341+672229056+680685370+686636104+690741648+694060503+697322612
918+700712213+704019003+707118547+709859970+711967514+713368051+713970206
905+713909142+713741438+713836907+713985100+713633160+712429370+710262102
891+706937960+702308751+696770798+691115333+686527231+685177705+688606700
878+695540349+703051131+709018323+712878716+715015749+716128016+716709246
864+716833907+716616309+716202783+715610830+714875152+713967749+713100484
851+712406732+711573872+710598329+709363337+707482030+705357656+703488487
837+701366496+698395784+694750159+690105982+683271377+672798296+655396928
824+625253935+579714425+530932502+505452936+520785148+567664577+621078837
810+661929190+685956650+697835256+703029833+705338071+706762214+707590680
797+707763820+707595372+707162558+706371178+705388486+704505807+703851151
783+703363230+702862725+702111557+701011056+699661904+698328910+697415773
770+696964417+696465327+695703882+694871841+694084854+693508986+692944661
756+691990268+690937352+690258271+690063609+690069269+689589689+688682881
743+688189525+687952491+687326803+686585912+685951512+685318377+685032566
729+685221121+685400293+685262004+684717711+683664796+682770126+682882872
716+683492102+683796531+683747233+683644540+683795712+684060374+684001618
702+683563071+683156843+683156248+683435357+683787893+684172301+684383644
689+684240440+683894532+683755946+684130077+684938139+685964097+687026991
675+688053694+689068258+689263366+687720297+687762520+690942416+693650328
662+695458954+697107546+698851682+700442114+701613510+702541988+703853534
648+705818916+708037270+710174676+712477105+715102878+717658799+719873578
635+721798375+723943377+726809089+729944005+732748950+735277765+737973166
621+740823016+743396511+745761271+748102572+750753292+753927603+756939869
608+759489014+762273927+765851039+769821125+773519845+777024500+780227332
594+782554038+784345238+786778732+790038086+793267951+796386931+799762457
581+803254079+806312442+808753830+811631084+815504658+819514807+823164825
567+826797119+830218741+833002239+836136262+840128911+844039645+847468713
554+850445979+853029231+855553428+858598907+862180116+865920763+870022509
540+874179064+877787156+880642442+882674474+884683943+887898913+892152427
527+895921521+898869074+901778871+904728732+907613433+910212844+912606349
513+915013034+917115738+918976119+920889821+922927885+924266389+924141281
500+923766107+923519540+921668467+917836745+914422496+913488433+914922554
486+919047907+926539254+935959270+944730736+951795525+957509150+962096582
473+965762685+968799452+972066253+975896709+978618993+979520067+980002179
459+981233596+983083775+984537780+985077456+985583175+986988626+988927870
446+991266938+993409482+993875061+992788263+990896827+988717719+986708995
432+984932465+984019403+984050009+983940317+984931795+990307257+1000012638
419+1011133523+1021067002+1028604073+1034105536+1039846566+1047501148
407+1055023622+1060399531+1064814195+1069083720+1073741823
##END=
