##TITLE=павел 2-многокр
##JCAMP-DX=4.24
##DATA TYPE=INFRARED SPECTRUM
##DATE=3/2/2015
##SAMPLING PROCEDURE=Instrument type and / or accessory
##ORIGIN=Default
##XUNITS=1/CM
##YUNITS=TRANSMITTANCE
##RESOLUTION=4
##FIRSTX=3996.3347
##LASTX=399.24773
##DELTAX=-1.928733
##MAXY=0.8547802
##MINY=0.16069871
##XFACTOR=1
##YFACTOR=7.9607609e-010
##NPOINTS=1866
##FIRSTY=0.51786488
##XYDATA=(X++(Y..Y))
3996+650521836+649647768+649877778+649918135+650184234+651070506+651696295
3983+651704007+650698986+648912290+647359049+647861597+651334359+654726183
3969+656033766+656107590+654837369+653241225+652292659+651067960+651001099
3956+652810556+653196601+651417767+650110259+650380626+651548645+651486051
3942+649140503+647794885+649283736+651191501+651685888+650194866+648522951
3929+649105088+650595811+651788389+652682897+652439934+650855995+649106661
3915+649490460+652053739+653725429+652813401+650198909+647806341+647421493
3902+647470685+646586060+647398657+649685654+650664919+650080684+649852995
3888+650588773+650825896+650360934+649977809+649805301+649966877+649617969
3875+648140050+646410407+645478837+646162877+647653749+647494869+646680849
3861+647838536+648957214+648825662+648106581+645519194+643457190+644257882
3848+646165273+648175390+648862125+647335763+645033267+642990880+641983988
3834+642538048+643225308+643398639+643542096+643353640+643767913+645403889
3821+645560149+644147519+644115548+644301458+643483096+643205167+643496348
3807+642903129+641786847+641615837+640790511+639157455+639130800+639524633
3794+639586028+639808626+639577718+639546121+640379833+641445875+641947150
3780+641508619+640774788+641140618+642570693+643206365+642666830+641896761
3767+640764306+639847560+639938082+640274786+639659704+638084075+637402955
3753+638675048+639698563+638560417+637738910+638523206+638693691+636992201
3740+634756792+632505434+630923441+630677483+630628067+630613841+631243074
3726+631584645+631536202+632503412+634321555+635652124+635550446+633937306
3713+632164687+631912290+631816602+630228919+628586129+626970631+625174015
3699+625040441+625597759+625298641+624697710+623940631+621636301+617713701
3686+615723651+615635899+614687557+612647978+610375169+609051002+609479051
3672+609466285+607800510+607109843+609279065+612041132+612785408+611767658
3659+610911597+610347316+609397739+607406827+602658753+596466564+594204687
3645+596267140+598015313+596047088+591860749+589682018+589674343+588293085
3632+585136250+581072403+576955209+575290444+574305639+572115528+569727077
3618+567849224+566684274+566139086+565173710+562491571+558465123+555243972
3605+553611178+551663393+548091012+544422420+541887406+540533963+540264308
3591+539250789+536103425+532226798+528312772+523575816+520010549+519067897
3578+517977184+514401809+509726811+506318889+504175161+501621167+498591691
3564+496779576+495221243+491208384+485518407+480684715+477093729+474258848
3551+471866130+469578084+466985905+464417497+462545371+460143144+456052081
3537+452395431+450922678+449416869+446168838+441820623+436906855+432190115
3524+427960649+424299768+421611601+418657485+415152228+413160306+412344564
3510+409856645+405274452+400270237+395485025+391569427+388963770+386792826
3497+384171108+381021349+378312404+376421823+374621163+372582969+369786011
3483+365715089+361789832+359287986+356166716+351554611+347756676+345276656
3470+343014104+340135947+337274973+336256437+335589805+333111919+330739379
3456+329793995+328460206+325705776+322034863+318217348+315412978+313664412
3443+311603475+308790382+305772343+302823094+300655575+300065276+300126447
3429+299526508+298125166+295742948+292240780+289000499+287289631+285980027
3416+284175343+283044292+283213075+283404675+282403603+280766542+279089928
3402+277254790+275620068+274492966+274065572+273572103+271207649+267589278
3389+265281110+264984913+265718519+266426649+266409447+265802133+265296422
3375+265285322+265072383+263985264+263024380+262854943+263173116+264101654
3362+265143026+265380392+264571557+263292969+262963396+263838157+264296586
3348+263982718+263863445+263884372+264027286+264701967+266332777+268584041
3335+270065348+271463022+273187367+273391921+273099747+274422323+276821368
3321+278958432+279910481+280343078+281591774+283434418+285553569+287977677
3308+289463496+289315472+289502823+291955514+295185818+296910612+298088553
3294+300091482+302122263+303855930+305880684+308190799+310250313+311712733
3281+312976010+314931956+317788476+320652482+322821142+324356452+325716633
3267+327493820+330083716+333223817+335761676+337426591+339432964+342162311
3254+344760032+346911359+349416836+352278184+354320946+356028613+358700907
3240+361759920+364463099+366912945+369143039+371792983+375518180+379397315
3227+382166083+384351964+386916853+389306351+391132205+393475245+397085249
3213+401094701+404380168+406652602+408389769+410902696+414811481+419094407
3200+422368193+424334622+426323325+429421459+432733394+435256466+437761044
3186+441064555+444844858+448441123+451269977+453735134+456521498+459551572
3173+462735886+465673043+467969437+470249321+473050360+475463368+476746206
3159+477981985+480232370+483052164+485186570+486451475+488521528+492088030
3146+495820190+498904286+501306213+503168231+505386045+508104536+510157031
3132+511422910+513139187+515675961+518005786+519791433+521474579+522494650
3119+522870437+524016070+525878724+527469814+528847441+529961851+531209236
3105+533304558+535380451+536738985+537772121+538475628+538734315+539168241
3092+540568929+542391376+543713634+545109605+547033655+548707742+549469612
3078+549449883+549310320+549179666+549262401+550608806+552172267+552153961
3065+551930016+552283267+552062054+552244969+553416957+553927217+553826812
3051+553915387+553825764+553754185+553851221+553714615+553483032+553402619
3038+553120272+552266907+551045391+549730021+548400388+546989892+545342385
3024+543745381+542487850+540621153+537360431+533818150+530654090+527286562
3011+523491434+518756201+512994869+507085813+500643212+492595745+483000239
2997+471635222+457885759+441988414+423924467+403077339+378780136+350656995
2984+319799341+288903352+260904593+237399697+218721810+205972427+201863506
2970+208670140+226677408+254540852+288473955+323037713+354774190+382646918
2957+405652561+422981591+434988420+442076240+444537841+443387305+439352096
2943+432536253+424439294+417339645+411785487+407800856+405863815+405909899
2930+407676679+410875967+414693444+417700458+419426581+421248168+423841920
2916+426161636+427686651+429152216+430612540+431092289+430638633+430188721
2903+429577869+427922576+425407702+422638186+419704734+417046517+414650579
2889+412257861+411047501+411508868+412938120+415541007+419127912+423225041
2876+428456421+434598556+440465084+446069257+452114620+458978007+466665148
2862+473950970+480038261+486179386+492366745+497457401+502275557+507554668
2849+512548027+516796586+520790090+525274798+529704887+532747540+534521133
2835+536294951+538811808+541877859+544846314+547116315+548450178+548926296
2822+548977434+549696964+551569614+553647266+555109874+555579291+555294885
2808+555870809+558148073+561109002+563789719+565798039+566799990+567012405
2795+567614984+569169835+570693876+571462597+571242433+570062059+569316024
2781+570282935+572336216+574214818+575573764+576254398+575772290+574988332
2768+575538724+577155120+578211991+578360090+579092161+581049867+582448533
2754+582270035+581611302+580882975+579972855+579647569+579727272+579011935
2741+578273986+578909658+579725100+579631734+579506771+579497599+578929724
2727+577691848+575892723+574075442+573307507+573939622+575527193+577400255
2714+578637270+579150000+579732550+580570791+581089212+581139789+581877251
2700+583900096+585722544+586087887+585745642+586257549+588202676+590759291
2687+592360489+592227177+591775468+592284306+592739646+592142084+590930189
2673+589597112+588015157+586288360+584509226+582351385+580547993+579899742
2660+579629749+579253924+579404082+580696428+583021499+585545095+587569737
2646+589049715+590427192+591942173+592993353+593350460+594239915+596258080
2633+597778527+597643456+597304132+598072479+598692840+598065179+597456087
2619+597699911+598052488+598280327+598174718+597317946+596386712+595969669
2606+595691890+595306294+595083360+595215810+595607172+596060079+596447622
2592+597012501+597644879+597820269+597741503+597694033+597365078+596779609
2579+596523243+596778972+597272797+597667528+598069671+599333042+600924656
2565+601503799+601612065+601753051+601701838+602161072+603299254+603840736
2552+603352714+602846759+602678370+602541502+602504964+602567632+602354207
2538+601708239+601234368+601033783+600458683+599764498+599162107+598106846
2525+596820340+596159248+596434631+597031556+597584045+598527819+599311029
2511+599103107+598577011+598665773+599656980+600993089+601615696+601605064
2498+601977408+602981044+603849946+604082576+604075576+603934140+603420661
2484+603202144+603520879+603440689+602993323+602985124+603021625+602367684
2471+602030194+603071154+604253998+604688486+605057273+605506250+605972222
2457+606506554+606733419+606457512+606009883+605820080+605800089+605607590
2444+605462224+605708220+605996256+605745956+604887162+603925904+603453044
2430+603368587+602962850+601942704+600850344+600231893+599972270+599599889
2417+598807208+597806418+597235848+597532719+598022539+597636007+596975664
2403+597206422+597844453+598186323+598653232+599374783+599717777+599553917
2390+599536884+599892381+600079900+600013413+599625833+598082812+595763095
2376+593986207+591966058+588698972+586711168+587835199+587628512+583427348
2363+578922499+574567208+571231539+573451974+579533500+584448654+587758716
2349+590667085+593018286+594408417+594301273+591756638+588676398+587761936
2336+587966414+588350625+589468180+590188609+590569788+592311859+593865512
2322+593455283+592473809+592734031+594553708+596011112+595925831+596071684
2309+597140310+598223461+599091688+599534712+599544483+599603858+600052197
2295+601035730+602013160+602361357+602935783+604355264+605346471+604944926
2282+603978765+603667555+604088154+604489998+604488351+604303826+604059590
2268+603685599+603627647+604180098+604891505+605466792+605556527+604692529
2255+603589949+603451022+604097214+604518599+604434929+604475585+604717986
2241+604381881+603838340+603751600+603322540+602366186+602003127+602386103
2228+602416613+601778583+601213665+600931394+600627035+600376061+600260532
2214+599865464+599135601+598599398+598220054+597788186+597519616+597347670
2201+597269540+597336739+596974653+596378888+596541437+597170783+597650270
2187+598224097+598561812+598003334+597118784+596889447+597178233+597463424
2174+597752621+597909555+597593703+596944591+596558434+596895624+597674117
2160+598173146+597917529+596886415+595912204+595723449+595759351+595648801
2147+595433691+594801500+594318831+594461913+594395576+593985871+594031543
2133+594481156+594576469+593964382+593013382+592484479+592582413+592708686
2120+592792057+593173198+593327212+592659944+591507910+590697147+590418918
2106+589923633+589298443+589479037+590120474+590313048+590060950+589638404
2093+589229672+588970237+588796719+588769053+588724092+588136077+587257067
2079+586792630+586649585+586490629+586402541+586488383+586866529+587587557
2066+588318093+588759282+588668873+588132632+587926881+588295669+588616949
2052+588342165+587733709+587697021+588224052+588529946+588430028+588259617
2039+588419172+588852537+589148622+589188717+588905734+588272009+587671227
2025+587621250+588388998+589413036+589637057+589193172+589005877+589157457
2012+589425091+589909595+590362988+590304138+589914873+589838353+590154879
1998+590317877+590167345+590056982+590052789+590084236+589854001+588859163
1985+587755497+587640829+588080820+588097292+587924186+588076852+588287208
1971+588366798+588343849+588149741+587968286+587809555+587622635+587858148
1958+588537845+588748126+588206607+587934855+588418535+589095612+589733119
1944+590123769+589751575+588851451+588166812+588056749+588312515+588341341
1931+587937326+587495276+587296862+587076660+586691963+586611062+586702894
1917+586342642+585978123+586025705+585675748+584243876+582473128+581774862
1904+582371413+583332671+584037189+584266413+583890438+583299203+583152564
1890+583709994+584748895+585803856+586490142+586570818+586151529+585719848
1877+585521285+585389359+585251106+585133780+585005335+585006945+585258368
1863+585545170+585752194+586027352+586184136+585774206+585014395+584553626
1850+584520794+584531351+583856408+582672291+582513522+583164094+583376771
1836+583117037+582748474+582224101+581431682+580980085+581293915+581597825
1823+581396828+580919775+580457696+580220685+579936729+579247111+578501450
1809+578172271+578105596+577979211+577396324+576443227+576023040+576319050
1796+576655118+576258665+575057776+574323197+574313389+574041637+573066116
1782+571566109+569941027+568676234+567724148+566297480+564125899+562495464
1769+562027433+562496774+563829440+564887246+564979078+565044816+565477096
1755+566002330+566107752+565537069+565358460+566046056+566457746+566225040
1742+565863179+565515319+565465079+565220880+563960355+563470498+564159443
1728+564490868+564434039+564449763+564755806+564740607+563158203+560904749
1715+560512601+561583024+562338642+561983370+560619782+559474299+559078146
1701+557846896+556617069+556992632+557134628+557121451+557292873+556987465
1688+556684417+555442235+552850093+551855554+552075194+551691582+550439668
1674+549629579+549958870+549589484+548385039+548112127+547845878+546666028
1661+545999172+546300573+546432162+544866792+541497504+540683148+541816276
1647+541659080+540710851+540860522+541779177+542387820+541577881+539836184
1634+540095394+542113335+543344098+543621877+544382513+545527359+546704139
1620+548209199+549252855+549639799+550921101+552836279+554124095+554795370
1607+555415581+556195533+557014158+557599815+557970848+558352701+558709845
1593+559053849+559512110+559930688+560173838+560297416+560437690+560791129
1580+561238607+560828266+559375953+559026970+559580581+559236352+558595177
1566+558504618+558619136+558624602+556783586+553253809+552658830+553653593
1553+553934891+553886823+553906514+553849648+553362187+552186194+549623177
1539+546978998+547152516+547964103+547205002+546203088+545839842+545022378
1526+543818681+542794118+541191723+539254607+537906780+536977718+536328868
1512+535630565+534276748+531337980+527187655+525043553+524515660+523193739
1499+520268449+516550291+513501273+510776793+506675921+501221082+496123688
1485+491755107+487059781+481087570+474029250+465874826+455670378+442678332
1472+429393794+421280812+419592687+423092965+430106997+437841158+444478430
1458+449746610+454825997+460901683+467684283+474213475+479183960+482157842
1445+483634901+483744739+482616927+480512919+477117164+473505550+470782754
1431+467995980+464935244+462117285+459264135+456455310+453672877+449885237
1418+445944444+443433464+441678402+440348732+439964184+440822266+442445551
1404+444397904+446809864+449138304+450601660+450885054+449492079+445926325
1391+439455234+427907414+409827107+387986377+367476852+354727993+355367184
1377+368015376+384926203+397827054+403644989+406117709+411469148+423573650
1364+442003052+462513962+479631963+491167803+497640728+499752185+498018013
1350+493087773+485601703+476226924+466667956+460247330+459830737+464931051
1337+471972450+477791471+480994203+481423488+479574647+475677093+470025114
1323+463574651+457113743+451112519+446452195+443489806+441597015+440572078
1310+440703256+441929040+444017923+447048934+451291540+456662147+462779275
1296+469226331+475744404+482420535+489125978+495599239+502078266+508618128
1283+514714778+520038177+524714710+529001043+532905934+536394008+539695085
1269+542747360+545215064+547229224+549022059+550645756+552349305+553986292
1256+555004677+555629680+556500379+557734025+559090687+560167960+560934249
1242+561696381+562216487+562313522+562427217+562834527+563454663+564064840
1229+564359803+564272276+564140799+564238733+564356808+564224919+563930032
1215+563649332+563370318+562985957+562360468+561506391+560717304+560062277
1202+559193188+557670682+555361185+552632924+549795497+546944631+544120981
1188+541289582+538567909+535663846+531520858+525140850+516099480+504180290
1175+488435760+467315271+440655112+411069027+383416051+363057170+353367961
1161+354365008+363733237+378324908+394781368+410088414+422345020+430888222
1148+435880046+437449348+434946491+427774140+415819797+399142985+379117514
1134+359625888+346012246+341897747+347655447+361688529+380547328+398852253
1121+411993035+418353800+418822131+415850232+412390573+410404379+410728766
1107+413832254+419898506+428567532+438724473+449024684+458907964+468280946
1094+477285104+486756395+497322592+508626925+519677401+529600289+538227836
1080+545882145+552890637+558999903+563848794+567748632+570824567+572726904
1067+573682171+574138672+573150311+569158304+561705104+551229092+539663826
1053+530902107+528576288+533472723+543552994+555955752+568093872+578217157
1040+586020202+592071704+596712747+600057626+602739765+605113653+606751688
1026+607827876+608910465+609915149+610643627+611255864+611884797+612497034
1013+613194140+613985548+614610887+615013367+615224322+615124067+615086706
999+615749594+616507946+616226011+615206128+614257861+613351860+612219817
986+610954237+609576648+607589143+604880611+601889395+598343931+593453224
972+586859154+578435899+567403654+551580658+527445293+491374078+442318454
959+385619003+333530834+299520668+292090173+312224959+353508423+405209200
945+457080649+502329204+537848491+563732217+582384292+596455932+607817543
932+617769744+626382316+632839293+637197428+640423558+643225083+645998830
918+648953321+651717933+653929983+655735921+657195646+658309158+659199473
905+659939219+660685104+661371540+661572499+661165564+660362027+659116589
891+657067089+653923394+650055302+646292333+643361652+642644593+645616528
878+651395605+657166071+661184283+663595120+665020179+665975110+666755287
864+667240240+667466506+667674503+667837801+667709843+667203851+666762549
851+666656829+666544669+666188797+665402630+664230418+663184516+662181592
837+660619440+658601537+656452531+653410963+648518832+641146008+628747331
824+606459122+572019428+534621426+514844421+526445476+561854738+601654219
810+632174795+650651067+660196857+664899184+667570579+669177430+669812204
797+669829200+669733512+669652874+669503427+669341402+669249458+668960223
783+668245335+667541903+667322824+667404810+667298341+666791301+666180561
770+665851494+665822294+665835621+665671425+665483493+665435724+665250488
756+664693283+664054391+663963121+664424863+664716718+664605083+664390946
743+664306639+664532156+665051476+665465074+665423744+665124552+664979747
729+665195007+665677639+666063460+666011573+665613922+665431232+665662140
716+666088318+666748548+667589148+668502674+669352184+669736657+669749011
702+669846870+670067221+670313329+670714424+671428863+672160821+672637014
689+673278227+674148327+674767452+675393765+676614046+678180914+679422534
675+680492919+681813081+682465300+681635257+682553575+686069164+688741009
662+690350330+691711672+693022699+694404332+696048095+697602234+699127773
648+701169860+703636403+706112155+708600936+711051306+713328794+715760671
635+718268843+720429380+722611031+725111641+727570921+730049444+732839438
621+735499603+737942860+740638664+743271051+745795321+748471433+751164392
608+754271175+757581911+760444907+763135320+765819818+768832935+772541771
594+776213845+779183460+781743294+784283962+786983210+790027773+793073459
581+796118546+799574910+802947642+805988985+808877887+811971716+815818169
567+819697716+822462029+824779799+828478902+833278489+837453485+840592837
554+843065445+845839791+849254826+852509857+855677511+859101156+862316729
540+865169691+868234844+871419270+874221993+877031679+880422604+884478552
527+888702590+892013626+893918097+895617865+898327670+901665137+904943378
513+907872637+910507120+913063286+915305808+916963498+918000414+918797663
500+919885044+921250803+922274393+921904370+920211565+918708339+919170980
486+923236511+930592564+938647556+945354010+950683474+955576053+959993938
473+963183380+965387642+967556415+970202728+973235386+976288784+978895414
459+980812389+982809478+985206314+986573121+987258884+989001254+991493029
446+994597566+997595408+998436606+997912944+997139356+995574285+993826074
432+993075771+993026355+991922876+990600019+993630655+1002213952+1012269552
419+1020358836+1026435683+1032896104+1041873981+1052657797+1061318662
407+1065303406+1066206150+1067150898+1069462229+1073741823
##END=
