##TITLE=павел 2-многокр
##JCAMP-DX=4.24
##DATA TYPE=INFRARED SPECTRUM
##DATE=3/2/2015
##SAMPLING PROCEDURE=Instrument type and / or accessory
##ORIGIN=Default
##XUNITS=1/CM
##YUNITS=TRANSMITTANCE
##RESOLUTION=4
##FIRSTX=3996.3347
##LASTX=399.24773
##DELTAX=-1.928733
##MAXY=0.88798559
##MINY=0.11638486
##XFACTOR=1
##YFACTOR=8.2700102e-010
##NPOINTS=1866
##FIRSTY=0.65690404
##XYDATA=(X++(Y..Y))
3996+794320711+794794449+794091591+791853644+790590993+791138606+792585548
3983+793749819+793908741+793787514+793830613+794061320+795216582+796810193
3969+797292507+797238741+797740010+797942104+797341661+795707184+792792831
3956+790627606+790536866+791343510+792488754+793705711+794835386+795547614
3942+794526264+793055826+793057412+792868580+791771481+791538036+792475997
3929+793892308+794862774+794399488+793598610+793649998+793652665+792109865
3915+789399334+787957005+788736116+790480145+791288446+790201654+788011348
3902+785918701+785567344+787562043+789507516+790319421+791087722+791501639
3888+790675896+788568114+786330239+785665292+785110904+784154637+785960215
3875+790415567+793446607+793312407+792664757+792768182+790866313+787504889
3861+785953441+785280204+784780809+784390965+781246914+778240811+778963922
3848+780201203+780936422+781907825+782695370+782284696+780211293+778627268
3834+778477355+778491770+779213944+780238393+779865053+779399749+779382379
3821+778212342+778185603+779498705+778841253+777681595+778367155+779293368
3807+778131980+776949330+777663360+777329373+776556531+777912013+778815811
3794+777783074+777313949+778574870+779825125+780323655+781600865+783062511
3780+782026314+779248539+777642098+777591575+778398291+779294017+779832044
3767+780396161+781164318+781547171+779671969+775570786+773864884+776137353
3753+777766136+774975893+772334553+774261647+775180653+771874293+770538271
3740+771936636+772943139+772339526+769933145+768409949+769318792+770204572
3726+769468921+768669628+769433389+770582813+770422810+769720096+769407370
3713+768203315+766751760+766709308+766033333+763536212+759175925+754419451
3699+751460628+748943759+746146957+743670448+740208338+734460641+728930245
3686+727153063+727820245+727668819+726350455+725436278+724135500+723651024
3672+725516424+725887889+724991730+726043711+726896987+725124706+721531782
3659+718159620+714785222+711453925+709730294+707559808+702299254+697458311
3645+696185569+695496477+692655926+688654636+685758877+683999498+681236426
3632+677239820+671809390+665348744+661585584+659486811+656946446+653708051
3618+649832096+646919256+644999946+643035301+641034260+638779448+635813058
3605+632116637+628250196+624416116+619822960+613979622+608547750+605759309
3591+603855818+598740997+590527278+584023641+580834256+578595481+575568873
3578+571686071+566618169+560793174+556967706+554404710+549236482+542432443
3564+537306558+533524839+529808491+525545178+520524556+515377337+510087846
3551+504038271+498417927+493621921+488365223+483294943+479357401+475430563
3537+470575349+465360382+460581637+456191512+451292333+446250666+442299178
3524+437932333+431877640+425551015+419501331+413289699+408138156+405690945
3510+403824500+399436933+393831941+389462105+386671321+384636909+381957586
3497+377730599+373277193+369292624+364089909+358596847+355098124+352532280
3483+349069846+344641269+339652215+334782046+331418640+329115900+325797576
3470+321249178+317294195+315227891+313402059+310183268+306617553+303262255
3456+300087014+297712201+295449750+292351213+289509600+287408863+284777937
3443+281694121+278767443+275794800+273208236+271032417+268003233+264307191
3429+262255193+262272581+261483361+257772526+253136234+250537273+249127070
3416+246987504+244191711+241486856+240301612+240489164+239762053+237920276
3402+236147310+234637159+233543646+232755633+231637994+230397631+229555023
3389+228566088+227240102+226210374+225460776+224600979+223560872+222205498
3375+220360189+218670270+217424574+216026029+215441713+216535190+218061323
3362+218784596+218565097+218347418+218603836+218935625+219546518+220584481
3348+222039405+223394202+223948752+224623592+225914063+226430324+225901738
3335+226116048+227805553+229950741+231909295+233453014+234820442+236892926
3321+239581078+241704049+242732048+243751920+245764511+247824599+249128908
3308+250607311+253158739+256412288+259029087+260666213+262119011+263295841
3294+264459373+266894494+270728610+274318218+276813430+279875425+284104989
3281+287924889+291087193+294225226+297138462+299143792+299826884+300647420
3267+303471196+307785320+312958953+318649604+323005459+326140104+329958328
3254+333964519+337269474+340310280+343027297+345890479+349958040+354512024
3240+358429133+362470676+367328520+371940919+375792586+379420861+382985315
3227+387334034+392967387+398859915+404422023+409138568+412794015+416466687
3213+420203504+423795815+428347240+433250599+436841612+439852724+443938628
3200+448856546+453252365+456862442+460403797+464773021+469917428+474715416
3186+479452286+484652514+489538035+494197931+498744635+502217196+505038611
3173+508764509+513264907+517715177+522166457+526550384+530994636+535551863
3159+539474810+542868522+546684692+550740794+554038469+556648998+559833446
3146+563961766+568119599+572148313+575848229+578720384+581955859+585913978
3132+589139255+591343399+593269160+595778390+599147850+602583257+605478511
3119+607816351+610028639+612615564+615386780+617813847+619406593+620316086
3105+621617368+623774304+626276471+628894603+631346823+632636862+632722701
3092+633372730+635692119+638794584+641470159+643313288+644281880+644736950
3078+645406006+646432473+647552131+648483390+649311583+650612794+651776776
3065+651683225+650741156+650127957+650312825+650710741+650970998+651403005
3051+651853967+651860886+651302751+650211129+648332973+645939420+644034236
3038+642490283+640123614+636835633+633703546+631030422+628215457+625284166
3024+622552735+619187779+613841602+607228810+601003304+594316456+585953582
3011+576682513+566903003+555982501+543605219+529565892+513343034+494854986
2997+474353032+451625132+426309514+398296158+367780419+334553214+298153884
2984+260242692+224685196+194465769+170294620+152351896+141853473+140731221
2970+151067767+174706944+211950125+259711368+311649959+361332423+405214793
2957+441351740+467694798+483984035+491849929+492458047+486627069+476176845
2943+463003334+448611497+436061672+428550955+426011274+425990337+426948191
2930+429734686+434787093+440146639+444563539+448670201+452591021+455806677
2916+458586362+461631420+464487178+465789398+465622980+464653631+462132834
2903+458332664+455190271+453178238+450590664+446325262+441633330+437757267
2889+434880716+433595001+434433249+437523353+442980235+450651242+460329849
2876+471381200+482464515+492992542+503380206+514249499+525867886+537580220
2862+549273455+561360066+573055030+583723492+594036560+604508081+614116994
2849+622097304+629496631+636983816+644201446+650358880+654845511+658635194
2835+662858254+667563411+672536393+676832174+679388828+681017828+682900164
2822+684672734+686313193+688325117+690522414+692967139+695842356+698856243
2808+701743137+704837818+708696979+712656611+715553235+717542889+719202015
2795+720389133+721283778+722335039+723062186+723172962+723227089+723740107
2781+725242401+727574980+729635770+731156876+732645044+733743728+734396640
2768+735720409+737496150+738631808+739591103+741263490+743414948+744818935
2754+745111985+745222545+745339376+745495991+745905583+745952935+745271843
2741+744224043+743100709+741660541+739597517+737434887+736040775+735432476
2727+734755709+733588050+732502483+731980240+732031701+733063934+735304042
2714+737797992+739689627+741468610+744000183+746581991+747792965+748366668
2700+749789322+752034692+754818233+758058645+761349438+764432154+767555304
2687+770696977+772995248+773794468+773274028+771956745+770147274+767703270
2673+764778250+761729336+758038609+753317379+748725233+745657363+743942597
2660+742952310+743467490+746056000+749675807+753828162+758744134+763609366
2646+767486907+770816835+774654086+778872965+782440086+784856125+786176723
2633+787136955+788188864+788811433+789258575+789506796+788788874+788289623
2619+789023616+789490363+788770351+787598729+786860843+787048666+787459339
2606+787026755+786136074+785638264+785450586+785452099+785841078+786331969
2592+786690966+786861708+786710930+786705741+787115910+787593972+788017834
2579+788458274+788962426+789499660+790404035+792178551+794413830+796468566
2565+798650511+801275059+803777802+805612354+806830392+807799417+808477410
2552+808399210+807736208+806879762+806011856+805384819+804666825+803286551
2538+801647533+800868782+800914188+800754257+800382287+799708835+798373174
2525+797538926+797913995+798868173+800077201+801139777+801980511+802948599
2511+803615277+804171610+805621580+807750695+809751737+811252734+812253831
2498+813238424+814340856+815292079+816247193+817141911+817216651+816477612
2484+816121498+816437899+816957475+817614927+817747398+817057873+816630191
2471+817374131+818893795+820175906+821254122+822544809+823820650+824985714
2457+826072939+827232957+828421805+829330937+830190915+831146967+831738544
2444+831557064+830775213+829949542+829036302+827509863+825662698+824179935
2430+822966798+821801230+820454829+818524275+816381250+814601545+813302641
2417+812437114+811963664+812129793+812468465+812119559+811682074+811991989
2403+812816291+813808019+814751097+815537056+816382115+817529665+819120537
2390+821020172+822696451+823844506+824611293+824946218+824398965+822663442
2376+820314791+818216811+815658571+812545440+810588795+807398401+800828781
2363+795676842+795494280+798796532+802340157+805232600+807466510+810459712
2349+816140453+822237849+823876579+820508524+816970160+814370911+814025536
2336+816347591+818261280+819428434+820686112+820766762+820331872+820126247
2322+819261729+818500347+819240611+821287780+823056025+823264316+823488320
2309+825192996+826988557+828303317+829734836+831159724+832293220+832838886
2295+832941951+833427436+834503922+835391216+835776808+836187697+836745760
2282+837234489+837810210+838398328+838275371+837503755+837151677+837313770
2268+837400834+837480547+837715434+837852229+837791039+837794498+838016772
2255+838659161+839697808+840395477+840467262+840404486+840324413+840212051
2241+840485208+841131850+841409764+840886368+839911505+838968715+838294326
2228+837886031+837276940+836257464+835297881+834437759+833562718+833017340
2214+832676001+832228282+831720093+831061776+830300683+829485679+828480401
2201+827463159+826450530+825363450+824901388+825630553+826798139+827541719
2187+827915779+828302308+829183403+830419315+831135940+831284699+831893357
2174+833364012+834484174+834495562+834404821+834888793+835510569+835737023
2160+835424946+834871928+834259234+833652809+833464626+833745279+833879984
2147+833449779+832763498+832427780+832300499+831859339+831121741+830526200
2133+830733987+831443620+831485423+830848944+830248718+829813612+829429101
2120+828968481+828451283+828290488+828574385+828812587+828664981+828174450
2106+827638009+827299841+827188200+827124920+826858393+826424007+825989838
2093+825602444+825147158+824639330+824225845+823776829+823244857+822621711
2079+821867104+821211598+820981469+821417800+822255219+823211775+824180872
2066+824651366+824722646+824969858+825368927+825754879+826032578+826122237
2052+825937801+825695995+826063137+826998071+827806012+828417481+829023040
2039+829280414+829049852+829027437+829628312+830200141+830169798+829939884
2025+830187672+830876116+831234968+830916765+830652761+831128228+832141145
2012+833096548+833536339+833400625+832906851+832290913+831903952+832015377
1998+832286084+832387708+832427204+832123487+831640236+831578109+831325492
1985+830478271+829742043+829377353+828991184+828516221+828496329+828955436
1971+829222395+829269243+829504201+829848351+830047129+830042084+829920064
1958+830119635+830670202+830717122+830214051+830022048+830324755+830731465
1944+830607138+829640708+828702603+828324218+827842337+826983224+826180256
1931+825392423+824258278+823239235+822787840+822555260+822524124+822425456
1917+821474233+819977560+818413571+816608857+814762557+813358714+812556467
1904+812303346+812573044+813308263+814508931+816083083+817805345+819334162
1890+820150680+820673860+821857230+823377111+824313342+824403218+824206890
1877+824276153+824715223+825399414+825351413+823995211+823115197+823805442
1863+824674357+824820882+824714862+824896775+825161644+824790323+823848110
1850+823177252+822970474+822051468+820196807+819715358+820544056+820766979
1836+820504776+820455046+820193203+819145042+818070719+817598999+817192290
1823+817114667+817492763+817568224+817031639+816235157+815191104+813660557
1809+812425149+812259021+812662198+812475385+811101092+809514472+809049311
1796+809396344+808682818+806417196+805051841+805001389+804303792+802538647
1782+800192374+797147280+793823118+790333115+785504568+779497840+775673922
1769+775174743+776383339+778580924+780661102+782386752+784614392+786709561
1755+788618493+790220032+790309547+789961073+790567209+791395403+792378338
1742+792981158+792424104+792458771+792522700+789931451+788039817+788881921
1728+789822837+790160067+790084463+790110985+789931811+787985329+785638841
1715+785661688+786738318+787145027+786744300+785537650+784664050+784620446
1701+782241452+778274613+777088576+776861113+777176073+777927797+777464005
1688+776380240+773367651+768072213+766092217+766843581+766869023+764949928
1674+762375544+761231886+759939829+758258505+758414543+758715593+757680477
1661+757167964+757797957+758671556+757328399+752145829+751087361+754061391
1647+754689005+754225430+755976017+758243730+759774421+759658960+757988879
1634+758957471+762636594+765132850+765990450+767140234+768204107+768919506
1620+770683067+772077323+771684885+772517114+774940649+776481143+776999349
1607+777513808+778064015+778245496+778257244+778441030+778523410+778227261
1593+777759434+777592008+777748839+777798137+777579179+777284759+777207425
1580+777185154+775606390+772236245+770919395+770944116+769066680+767345283
1566+767443158+767541826+766926753+763337722+757167460+756132488+757628080
1553+757175604+755478063+753908092+752911391+751651623+748936912+743832252
1539+738826622+738134863+738295154+736367411+734637004+733803261+731624054
1526+728296577+724779619+720082317+715803545+713257342+710790058+707892858
1512+704525452+700596307+694480100+685450620+679630778+677129620+673324441
1499+666689955+657999220+649789501+642488121+633044148+620942186+608973343
1485+597819757+586333732+573648121+559640326+543423955+523855925+500236335
1472+476307586+462024724+460621746+469932059+485881471+502261269+516219982
1458+528106085+538980387+550354554+563049535+575870103+586367607+592868577
1445+595265084+594112453+590254409+584270383+576033673+568348215+562992308
1431+557328361+550538593+544316906+538859268+533658715+528597624+522494462
1418+515876192+510754524+506727684+503633399+502377415+503572101+507033490
1404+512057428+517524940+522035175+524601559+524460476+520393599+511668520
1391+497290485+473425557+438275077+398405817+363313284+343011081+346019165
1377+370193504+402138310+426319460+437136284+442324692+454012810+479790381
1364+519129290+562920019+598840206+622253919+634550335+637273334+631560520
1350+618711303+600042495+577931218+557223494+544361988+543969225+555038017
1337+570386519+582531761+588097256+587038464+580688091+570551494+558049237
1323+544582640+531521960+519978890+510745659+504308329+500795803+499941916
1310+501221432+504333374+509298428+516218865+525384995+536974625+550407203
1296+564885492+579924511+595235102+610766525+626185514+640995701+655032901
1283+668151096+680188409+690698850+699443496+707152954+714447992+721310878
1269+727620746+733301631+738152737+741963537+745116670+748052501+750433801
1256+751981718+753209269+754755096+756792895+758958552+760744167+762294174
1242+763818739+764782286+764966577+764977893+765119373+765134580+765007443
1229+764848449+764584373+764254926+763718053+762584413+760924205+759186231
1215+757481987+755592804+753534392+751464232+749152339+746224003+742673026
1202+738703304+734243340+728765990+721859860+713885965+705541253+697177009
1188+688925704+680643119+671276408+659186843+643126906+621935211+593996559
1175+557806963+512771349+460630179+407022209+360394318+328372356+314721648
1161+318713857+336518759+362931260+392487127+420382246+443259086+459369870
1148+468169544+469535512+462944090+447643373+423520784+392096598+357346520
1134+325629861+304212469+298313742+309213451+334529970+368173219+400944201
1121+424380689+434867851+434306760+428074551+421770052+418782364+420759946
1107+428260572+440641206+457218412+477215024+498505640+518801141+537642888
1094+556298362+576452779+599332862+624905349+651116441+675304582+696460312
1080+714818520+730522271+743418336+753361056+760952530+767127117+771618505
1067+773317776+771502900+765061065+751843770+730278303+701602017+671521818
1053+649389783+643722375+656853688+683555598+715508261+746274022+772387527
1040+792670595+807401861+817613774+824679619+829826369+833647692+836472603
1026+838776496+840269854+840380126+839898028+839968804+840408883+840542795
1013+840414072+840219546+839796909+838932823+837606747+836041893+834337649
999+832372500+829839558+826502423+822814363+819075131+814697835+809288738
986+803104422+796209823+788287749+779089617+768302487+755503433+740106787
972+721191236+697699107+667674548+627539842+572803351+499924402+411086600
959+319192640+243740803+199433885+191972899+221269015+282478242+365788928
945+458385998+547498688+623189718+680945106+723035518+755429918+782683694
932+806222310+825584354+840052481+849722259+855957676+860859737+865961226
918+871445783+876650048+881067056+884584591+887263625+888935364+889272090
905+888626386+887778300+886915295+885538120+883159919+879556113+874317758
891+866843618+856795888+844838144+832707857+823152026+820428234+827296742
878+840862656+854775026+864907659+871004623+874101322+875049950+874861766
864+873996815+872336320+870208069+868232398+866442098+864280045+861711931
851+859040032+856131949+853088080+849896893+846030884+841390520+836208959
837+830334053+823414373+815297629+805303809+791633461+771187940+738265171
824+684617309+608341765+530985771+493801996+521437184+598345603+686344977
810+755255141+796686011+817179965+825796682+829083582+830466956+830650166
797+829843811+828565159+826771400+824310315+821487206+818831019+816534189
783+814172421+811530504+808959363+806604082+804242530+801613875+798780676
770+796096596+793550249+790994387+788510815+786251752+784329054+782426464
756+780116445+777583431+775339863+773334497+771087542+768640078+766502746
743+764832449+763145503+761168822+759108392+757004574+754862558+752839894
729+751142858+749686690+748111241+746309770+744309161+742300408+740754076
716+739814025+739067346+737884769+736082289+734161104+732503492+731089127
702+729999307+729232376+728496796+727460023+726201552+725236275+724495074
689+723372677+722137630+721552828+721638523+722056404+722374174+722132152
675+721468646+720996062+720622723+719475749+719509191+722053016+724115968
662+725003623+725496964+725912034+726220940+726772516+727595376+728668907
648+730369547+732695855+734995280+736942771+738844928+740889718+743144097
635+745439558+747695955+750354160+753157016+755692625+758277244+761020567
621+763813478+766816770+770061795+773003104+775843150+779077509+782308264
608+785869908+789963524+793624988+796503017+799343856+802934040+806634857
594+809727160+812909914+816780031+821139453+825185212+828431896+831413494
581+834769800+838377643+841470017+844097087+847445033+852001648+856781977
567+860809574+863916724+866846862+871010533+875930108+879970678+882985718
554+885574229+888486060+892112209+896274150+900138141+902801607+905052671
540+908063098+911857178+915672591+918512132+920554184+923199200+926886322
527+930654960+933909139+936625580+939236505+942132840+944269740+945330009
513+946743726+948772155+950462345+951516704+951715626+950165475+947041965
500+943230371+938589431+932622416+924429057+915009013+908384905+907423520
486+913352265+925893730+941694202+956364278+967319555+974634124+979731432
473+984050061+988265265+991688167+993963447+995952597+998029892+999308687
459+999208433+998732606+999083746+999145585+998019225+997134670+996864251
446+996480821+995347181+992386989+987680102+981663356+975064834+968854571
432+962531153+956607165+952448107+950736800+953609279+962012875+974362120
419+989019367+1002529568+1014370409+1026228043+1037465703+1047525902+1055510969
405+1060936066+1065215847+1069128703+1073741823
##END=
