##TITLE=павел 2-многокр
##JCAMP-DX=4.24
##DATA TYPE=INFRARED SPECTRUM
##DATE=3/2/2015
##SAMPLING PROCEDURE=Instrument type and / or accessory
##ORIGIN=Default
##XUNITS=1/CM
##YUNITS=TRANSMITTANCE
##RESOLUTION=4
##FIRSTX=3996.3347
##LASTX=399.24773
##DELTAX=-1.928733
##MAXY=0.8620078
##MINY=0.12420703
##XFACTOR=1
##YFACTOR=8.0280732e-010
##NPOINTS=1866
##FIRSTY=0.59929752
##XYDATA=(X++(Y..Y))
3996+746502314+744919108+743823026+742262019+741496847+742635250+743582842
3983+743821689+743545348+742172033+741071050+741076396+741889976+743423957
3969+744335392+744229444+744640689+746158188+747675909+747037697+743925484
3956+741197861+740181518+739081945+737775526+738944592+742428328+744304283
3942+743538666+742571696+742396848+742854199+744078355+745142364+744880872
3929+744826896+746424802+747220192+745762015+744371401+742729541+739767897
3915+739243800+741821522+743650405+744095060+743308506+741342640+740163699
3902+739279215+738695499+739954105+740979951+740668938+740376040+741096591
3888+742443251+742734664+742540067+743254307+742725458+740479687+738595490
3875+737709299+738442174+740088266+741572948+743156823+743460857+742353266
3861+741086345+738918086+737465849+737653466+735149471+731385607+731689493
3848+734174333+736248449+736612474+735147243+733640064+733806522+734793390
3834+734731841+733370034+731918762+731587405+731977267+732618746+733350285
3821+733301506+732590682+731560826+730752889+731073331+731887653+732290211
3807+731552213+731605744+733477467+732230369+727687301+725758855+726542588
3794+728197069+729613892+729872711+730133906+730725937+731164207+732860786
3780+734738597+733853742+731579981+730719181+731103103+731609753+731852758
3767+730988617+729667200+730030705+730838122+729779756+727668072+726023316
3753+725364687+725688396+727337012+729975021+730765807+728088894+725701686
3740+725064290+724243732+722901080+721351433+719642381+719760654+721414987
3726+721641138+720389586+720412453+722558364+724175871+723372092+721284167
3713+718326755+715250625+714030775+714695567+716564469+717734649+716264890
3699+713514771+711592115+709573683+705516476+700848305+697056302+693421774
3686+691382702+691452864+692230508+692903616+692435203+689928831+688368344
3672+689949471+690815394+689268048+688733631+689702457+690064551+689066695
3659+687082564+684137923+681682335+680805944+678315238+672610083+668970580
3645+668877625+668448635+665769346+661715778+657922216+654128060+650081470
3632+647272103+644137022+639141727+635139535+632306856+630333788+629073474
3618+626939145+624167273+620980035+617292792+614981314+614442293+613064969
3605+610229543+606999614+602193420+596389000+592966553+591609423+589473238
3591+585755778+580537078+574396809+569231306+566198906+564146359+561167267
3578+557511504+553397945+548143533+543495928+539791609+534727339+529247667
3564+525747708+522988309+518554196+512467086+507060694+503220060+499544920
3551+495836034+492899820+488925842+483232715+478950582+475687094+471050217
3537+466678767+462996239+458090334+453014519+448617826+443690984+438189335
3524+432505489+427445451+423505218+419437765+414798512+410393169+406975437
3510+404137152+400838212+397210699+393267904+389641209+386710711+382069119
3497+375604658+370983929+368811884+365483469+360131759+356567763+355745125
3483+353826776+349594870+345160052+341179726+337295547+333363184+329278469
3470+325413075+322522669+320823715+319245075+317041067+314737311+312064518
3456+308395911+304723424+301875079+299318462+296153572+292178721+289095668
3443+287768775+286822352+285225225+282290829+278630909+276382075+275513127
3429+273609089+269935470+266835489+265411669+263618181+260351817+256676936
3416+253736897+251882770+250790845+249990240+248827002+247094693+245290384
3402+244071073+244201819+244634093+243326857+240645099+238433277+237390706
3389+236118068+233921429+232529145+232176814+231291086+229679277+228095978
3375+227567055+228429098+228999042+228254269+227136284+226650943+227574313
3362+229343986+229967108+228775471+227106790+226200367+226175179+227249527
3348+229359076+231016657+231241825+231175245+231938598+233314084+235276628
3335+237747251+239633248+239562009+238057280+237786359+239520488+241671057
3321+243523124+245605036+248201746+250416482+251191231+250898872+251334766
3308+253400325+256406572+260126185+263514646+264996211+265949668+268326612
3294+271108471+273012342+274791872+276941476+278748476+280160621+282474438
3281+286011761+289213365+291867671+294830818+297314229+298766912+300368531
3267+303119281+307166446+312375494+317146941+319357928+320138468+322670380
3254+327221727+331147520+333287714+334928757+337558153+341591936+346467993
3240+351443095+355937903+359779353+363408462+367525733+371912404+375349885
3227+377908414+381060275+385329080+389496356+392617516+395573368+399099128
3213+402730389+406074062+409622763+413931179+418130380+421112738+423555667
3200+427154855+432062282+436458827+439682816+443256130+447606457+451613957
3186+455286202+459102594+462936880+467197556+472367217+477630352+481700032
3173+484380249+486551627+489460333+493077823+496442730+500064451+504168173
3159+507462064+509897234+512831667+516398781+519654622+523147528+527473168
3146+530973907+533001842+535747135+540260653+544905215+548364042+550470788
3132+551933012+554315023+557744635+561027166+563554772+565121681+566360352
3119+568084402+570282730+572876971+575267966+577025425+578852973+581053788
3105+583129129+585151236+588008268+591450093+593814805+594782221+595717377
3092+596723474+596923788+597457055+599594205+602153848+603485548+603604823
3078+603943641+605701992+608640285+610673381+610869054+611034473+611366497
3065+611110723+611283231+612039011+612464140+612676147+613220365+613787747
3051+613759237+613558960+614270378+614946790+613568686+610967763+609130304
3038+608092207+606628276+604368695+602255824+600579774+598769711+596088603
3024+592601674+589408385+586072545+581549932+576370322+570787858+564334979
3011+556934136+548809179+540234037+530719617+519459134+506544689+491862947
2997+474853097+455253088+432750424+407372501+379010363+346828454+311064286
2984+274313416+240263757+210796497+186080043+167765220+157296563+154715872
2970+162835409+184828101+218851180+260483583+305301183+348127041+384872064
2957+414605437+437761831+454143530+463563844+465969762+461437979+451858409
2943+440399023+429225667+419327399+411884942+408461382+408592499+410073432
2930+412531990+416948989+422587101+426958736+429232683+431159719+433775269
2916+436601972+439322393+441805748+443284343+443637824+443727439+442798742
2903+439810741+436056232+433017039+430345991+427189454+423562275+419851497
2889+416805882+415357097+415579572+417397616+421065667+426510184+433579558
2876+442200102+452055753+462161202+471240508+479830017+489682512+500610228
2862+511119015+520691717+529438775+537305098+544879266+553370586+562875428
2849+572103224+579576678+585170799+590260164+595379190+599695216+603172418
2835+606999873+611276809+614831673+617635397+620264236+622619927+624678600
2822+626612986+628462658+630088852+631731826+633854424+635875603+637505435
2808+640141959+644157663+647595367+649474589+651316094+653734485+655119828
2795+655354740+656076701+657257201+658056525+658801651+659875683+661174530
2781+662803174+664732511+666442157+667563855+667993141+668086319+669044602
2768+671685284+674979620+676533574+675760087+675298281+676439951+677189605
2754+676740273+676311729+676570622+677556599+678728041+679341307+679264018
2741+678630409+677975640+677450948+676122255+674014655+672608524+672260239
2727+671543178+669720754+668060852+667845912+668630982+669750229+671479179
2714+673430122+674645739+675576255+677297706+679282282+680346440+680832226
2700+681677880+683105765+685062573+687529447+690511211+693767311+696911004
2687+699403344+700538554+700686748+700702784+700160497+698313126+695624705
2673+693262146+691045183+687782920+683930184+680587811+677733155+675595262
2660+675088167+676568543+679550382+683138953+686591803+690298721+694654245
2646+698544772+701284867+703385711+705115849+706638842+708235041+709462390
2633+709763974+709824707+710317769+711126672+712139303+712821765+712900243
2619+712876781+712917616+712610315+711531086+710266317+709914098+710366400
2606+710796206+710774526+710258893+709640207+709512283+709817208+710192889
2592+710594259+710625145+710454158+710821672+711047526+710853226+711354902
2579+712256016+712447495+712275246+712768754+714339784+716306022+717744227
2565+719219257+721372444+723470541+725197635+726619060+727336789+727189784
2552+726483340+725653575+724629584+723372760+722687402+722836338+722875243
2538+722347730+721534596+720397827+718977812+717805108+717410049+717768059
2525+718283915+718254217+717846462+718356379+719965794+721264937+721630669
2511+721513288+721644479+722899818+725047734+726430255+726461512+726543108
2498+727738976+729382692+730176894+729965072+729856080+730188550+730168133
2484+730195752+731126416+732263928+732561429+731652073+730133534+729283723
2471+730065971+732114027+733753437+734433152+734885454+735598729+736747303
2457+737722737+737945770+737796240+738039171+739155745+740642729+741273072
2444+740390073+738872574+737945770+737307484+736364272+735501542+734731395
2430+733673103+732402618+730927662+729332948+728107827+727495600+727276502
2417+727043001+726428844+725823300+725911429+726142629+725891308+725674364
2403+725670651+725722549+726618912+728699190+730471647+730989879+731165395
2390+731929156+733026576+733402554+733125693+733277896+733364614+732264522
2376+730540473+728804470+726759384+724333717+720828004+716781562+714232648
2363+711707789+708787574+708077418+709828493+713161957+716641684+720586038
2349+726073358+730777464+730133238+725352436+722935010+722797360+724580657
2336+727427666+728550997+728242879+728252976+728580398+728234638+727436649
2322+727392622+728569558+730241339+731651702+732601373+732760332+732424001
2309+732715933+733925240+735361515+736384021+737035003+737559620+738047412
2295+738853864+739908147+740494536+740449692+740567593+741304403+741736436
2282+741391122+741461655+742445405+743083617+742684400+742101278+741815730
2268+741492392+741234390+741251244+741426017+741755295+742462332+743505478
2255+744169305+744061873+743723611+743640085+743725764+743920658+744399763
2241+744809671+744658062+744340664+744075979+743150809+741653579+740772807
2228+740832723+741224144+741424458+741240330+740949808+740566257+739576419
2214+738214538+737450703+737255660+736805066+736078130+735443333+734902234
2201+734086056+732782383+731769752+731946381+732988562+733718096+733857826
2187+734070984+734093332+733650459+733611331+734288151+735119030+735888137
2174+736617374+737099745+737357599+737681011+737970939+738055208+738037537
2160+737919265+737937083+738250101+738306899+737945028+737456865+736805363
2147+736196477+735911672+735649364+735059188+734459212+734258899+734116496
2133+733838373+733700054+733543100+733443760+733528474+733132598+732392447
2120+732018176+731802345+731788016+732092793+732036441+731654746+731577902
2106+731532018+731259315+731079419+730895885+730502905+729986974+729625251
2093+729641214+729597706+729053563+728095205+727018055+726263648+725978844
2079+725983595+726102610+726274043+726544518+726821973+727171965+727659979
2066+727809509+727341912+726593594+726159705+726494403+727248660+727779737
2052+728022890+728378079+729072570+729574839+729672546+729882734+730109182
2039+730137618+730298804+730730244+731166360+731176532+730817036+730898632
2025+731731812+732429124+732222871+731571146+731485318+731998873+732176096
2012+732070891+732469736+733023235+733125248+733064663+733238843+733615341
1998+733639322+732880684+731979420+731818382+732426451+732999773+732532399
1985+731015717+729509280+728800461+728973155+729789408+730748137+731256940
1971+731206379+731147799+731529494+731866642+731530682+730968645+730942659
1958+731321385+731459703+731293320+731336531+731651034+731599359+730922836
1944+730017935+729414469+729633641+730090843+729741148+729010575+728503405
1931+728062240+727661761+727137070+726354970+725916255+726227194+726224373
1917+725144178+724176614+723935985+723408621+722150832+720951845+720344444
1904+720140493+720095723+720268714+720786129+721363015+721911391+722568016
1890+723202219+724034805+725084782+725926798+726507767+726914928+727233886
1877+727353420+727159343+727052579+726927921+726361875+725946695+725964217
1863+726108476+726642819+727280883+727295509+726954501+726709640+726322599
1850+725783059+725639468+725474941+724612879+723999539+723732033+723055585
1836+722458727+722417744+722345874+721620721+721041088+721271619+721295675
1823+720755243+720287350+720133885+720078498+719652998+718629601+717320583
1809+716448721+716331042+716540265+716366086+715513305+714650501+714290559
1796+713935741+712877969+711409695+710723000+710382957+709240396+707710498
1782+706194484+704079608+701626767+699235549+695898893+691486942+688841806
1769+688745658+689482468+690694968+691932339+693081879+694679043+696166770
1755+697564511+698745382+698552716+697704389+697931803+699055950+700146539
1742+700248106+699434378+699349887+699054020+696691090+695604288+696891701
1728+697995654+698448104+698485821+698540391+698178668+695664352+692451834
1715+692303492+694111809+695298174+695282731+694080329+692875106+692856693
1701+691719998+689128096+687920571+687225338+687363880+688087994+687566198
1688+686283611+683579747+679535533+678529435+679491357+679472499+677955000
1674+676332666+675683614+674403032+672744021+672651660+672747288+671804967
1661+671136685+671459949+672038988+670944761+667408311+666630740+667896845
1647+667127441+666034996+667324636+669465276+670856632+670354363+668421239
1634+668834117+671745868+673945829+674622129+675271479+676296509+677650445
1620+679556544+680667773+680529083+681519738+683581529+684789796+685329559
1607+686531070+687895476+688334117+688441624+688651367+688674457+688794215
1593+688976784+689007670+689137822+689381718+689369616+689157720+689418766
1580+689842038+688600806+685838808+684993896+685381457+684400899+683379136
1566+683533937+683683393+683238219+680084057+674578176+673611874+675059954
1553+674985040+673806100+672785673+672309612+671454381+669428227+665514017
1539+661581022+661495418+662153825+660526665+658655016+657749298+656229423
1526+654139048+652118463+649343026+646539377+644477808+642484620+640616312
1512+638349752+634949022+629517535+622567918+618789614+617373311+614625085
1499+609556361+602761322+596310485+590761394+583435762+574005499+565293596
1485+557439635+548756577+538594515+527314914+513996167+497174528+476729423
1472+456686579+445095816+443953218+451253681+463795526+476614714+487192215
1458+495742374+503900667+513337240+523980671+534491128+543016712+548413675
1445+550657293+550117195+547411104+542979441+536535212+530150415+525424036
1431+520800412+516000567+511564523+507118902+502752055+498319984+492779654
1418+487231119+483328788+480352815+478156417+477300035+478207386+480913552
1404+484791494+488960180+492459582+494572751+494761520+492121024+486053441
1391+475367356+456408011+427530499+394415922+365035176+347599083+349331633
1377+368493409+393880168+413026909+421772482+426230056+435690166+455849129
1364+486219750+520116687+548261361+566776534+576645995+579222566+575384085
1350+566105171+552483355+536058074+520122590+509956890+509657311+518408081
1337+530418218+540072627+545018142+544899052+540250222+532125896+521979241
1323+511363764+501209313+491971642+484452824+479350170+476449296+475262077
1310+475633971+477613944+481412443+487084002+494415834+503210074+513157307
1296+523867038+534967931+546236284+557962693+570241190+582289786+593311051
1283+603105152+611834168+619717717+626914496+633458697+639196668+644252697
1269+649045674+653636853+657689085+660879479+663380802+665700744+667744716
1256+669088036+670111061+671480886+673209168+674954897+676568172+678155091
1242+679463218+680071064+680214506+680347034+680640228+680983835+681249485
1229+681462272+681343479+680854203+680474958+680128381+679488758+678655504
1215+677651411+676405575+675066933+673816940+672499235+670712151+668362734
1202+665542379+662086930+657862522+652996487+647621576+641779661+635748495
1188+630075117+624674368+618219781+609256001+597288778+581647342+560633332
1175+532618365+496776239+454188894+409435851+369697148+341704194+329122591
1161+331781203+346363790+368118842+392585553+415848043+435035990+448823448
1148+456457012+457455686+451839068+439626353+420557309+394986645+365509232
1134+337822429+318964836+313608226+322629323+343907014+372152179+399395626
1121+418616427+427280478+427093937+422164645+417144403+414896071+416298452
1107+421787108+431599622+445254441+461349404+477995899+493841807+508542110
1094+522951409+538594738+556074487+574941249+594202291+612405746+628503271
1080+642341995+654426600+664818413+672833709+678814685+683642484+686748164
1067+687415332+685998064+681957933+673500283+659293229+639571310+618049834
1053+601760979+596909162+605327721+623974383+647112402+669469805+688147464
1040+702674962+713767576+721988680+727611200+731396966+734295576+736741438
1026+738866634+740439817+741096888+741185908+741459056+742017158+742477330
1013+742789457+743064907+743144646+742765624+741989761+741083746+740103263
999+739214919+738323382+736731118+734440725+732067995+729482181+726191705
986+722266803+717815354+712619744+706744493+699912369+691296800+680717220
972+667996407+651700091+629600393+599265410+557228481+499181229+424923599
959+344329915+275082505+232787073+224928527+251603181+306682275+378946252
945+455940228+527427433+586402974+630493563+662314046+686530105+706788818
932+724406106+738835971+749468858+756784839+762055287+766397670+770494747
918+774569921+778383975+781769634+784547075+786637153+788226373+789089178
905+789238336+789210123+789045521+788420376+786919879+784400589+781043812
891+776364133+769829064+761945701+753672180+746931972+745115710+749994144
878+759330857+769069386+776652353+781781290+784748948+785807537+785775537
864+785421016+784872121+783954375+782707129+781296840+779706951+778030271
851+776392791+774803349+773183540+771252346+768917109+766262173+763121524
837+759180659+754390429+748946394+742263875+732809928+718319108+694236987
824+653544046+594099647+532445114+501651889+522382170+582371307+650505559
810+703116647+734562265+750332628+757408276+760513288+761922314+762287304
797+761946221+761481743+760834027+759423961+757682612+756462317+755405510
783+753712569+751512088+749432701+747678137+746072509+744504152+743166772
770+742122215+740862644+739309730+737908276+736593393+735116803+733381616
756+731596389+730206072+729129516+727996087+726818706+725741704+724613473
743+723272678+721957274+720912569+719835419+718586242+717682900+717095471
729+716314931+715479597+714797135+713862610+712502659+711410586+710866442
716+710312572+709815500+709632931+709186494+708153891+707066718+706322112
702+705858747+705490713+705206725+705148220+705137900+704713885+703862218
689+703331364+703503761+703758126+703695611+703580308+703702368+704078271
675+704621153+705350909+705675213+704556485+704367160+707125446+709720169
662+711255784+712145391+712852651+714029216+715582798+716922777+718066600
648+718992587+720168409+722094777+724673315+727825323+731079568+734030075
635+736518034+738474322+740227847+742048638+744312822+747068435+749902154
621+752948808+756259108+759274431+761798102+764437373+767507786+770634254
608+773685066+776738329+779903627+783334947+786832641+790242726+793630612
594+796955241+800073988+803258219+807120977+811318359+814658431+816896555
581+819327271+822481432+825469210+828441842+831859649+835368109+839005014
567+843030221+847159446+851104394+855257823+859585431+863504616+866515707
554+868658277+871239042+874689294+878208965+881520676+884735273+888367797
540+892283641+895567138+898126818+900398500+902842209+906293500+910706119
527+914682770+917706483+920192957+922625158+925550347+928247900+930131131
513+931953853+934074966+936421562+938575491+939688947+939144210+937099273
500+934400383+931589160+928679042+924899290+920109654+916274737+915738389
486+920575246+930895264+943353174+954676617+963636165+970103225+975296607
473+980740938+985672903+988563271+989795520+990399356+990924864+991909654
459+993849311+995985125+996962490+996730102+996221596+996463710+997582809
446+999153468+999612378+997302978+993290616+988677386+984148053+980857280
432+978085705+975519268+974385543+975302101+979596670+988324869+999034675
419+1008440957+1017055487+1026536756+1035786083+1044319760+1053384216
407+1061147672+1065483596+1069252360+1072786435+1073741823
##END=
