##TITLE=павел 2-многокр
##JCAMP-DX=4.24
##DATA TYPE=INFRARED SPECTRUM
##DATE=3/2/2015
##SAMPLING PROCEDURE=Instrument type and / or accessory
##ORIGIN=Default
##XUNITS=1/CM
##YUNITS=TRANSMITTANCE
##RESOLUTION=4
##FIRSTX=3996.3347
##LASTX=399.24773
##DELTAX=-1.928733
##MAXY=0.94695497
##MINY=0.11295454
##XFACTOR=1
##YFACTOR=8.8192054e-010
##NPOINTS=1866
##FIRSTY=0.75939244
##XYDATA=(X++(Y..Y))
3996+861066738+861156896+862130189+861955887+860468272+859389480+860375343
3983+863166741+865787081+867153110+867252595+867544157+868398973+867573286
3969+866077561+866424881+866625203+865746530+865847772+865087102+862633697
3956+862541511+864579066+865651235+866257608+866867563+866944948+866662104
3942+865477676+863775277+862944251+862722031+863501489+865240723+864557438
3929+861368032+859460985+859363324+858986605+857981548+857610979+857648962
3915+858328462+861568827+866128318+868612001+866996312+861740358+856463790
3902+854137040+855687441+860449281+864920978+867502862+868184998+866890745
3888+864650908+861434739+859479098+860394267+859795058+857280826+855882424
3875+854696306+854433536+856302533+858521012+859348185+857613074+855698525
3861+857108282+859124006+858898745+855830045+849360669+845891055+848337634
3848+852282439+855545783+856581388+855006386+852961601+850704260+847787762
3834+845850302+846220330+848736724+850827738+850430743+849433661+848063577
3821+845256770+845630380+848699147+848758959+846476612+844789419+844022937
3807+843505100+844665806+847558311+847198961+844684527+844548478+844071801
3794+842397719+841876909+842144681+842342232+843184004+845370448+847566894
3780+847807159+847979839+850116811+851482434+850732713+849694945+849247329
3767+848500649+847642387+848223821+848417858+845475948+842275255+842886292
3753+846433763+846914428+842683604+841097450+840940045+837659061+837016462
3740+839736220+840031161+836922316+833476019+831666430+832564432+834660583
3726+834806161+833076119+832544022+833963037+835096236+834472764+833190202
3713+831408660+827990952+824582638+823105634+823061028+821896740+818247756
3699+814160955+810201890+805868540+801352845+795401170+786938778+779577211
3686+777438753+778510854+779319645+779295652+778773355+776485736+774392019
3672+774261850+771836087+768255769+768618430+769941205+768342481+765140909
3659+762172168+758878884+757002385+758229662+757452636+749576815+740853883
3645+737917313+737742335+735246284+729760946+725103930+722500351+719831080
3632+716406951+710735416+702983681+698110393+696213281+694490808+691065192
3618+686783882+684144686+681692497+678323923+675651678+672603525+668514156
3605+665135917+661178880+655516469+650462662+647203305+644394538+640906609
3591+637016616+631934220+624152207+616531519+612024069+608717471+604323834
3578+599067609+593916480+589420519+586085129+582097679+574778488+566984648
3564+562757304+559700838+554815452+548796429+543247696+538016782+532180272
3551+526149793+520275841+513334384+506127688+501087770+497775899+494349608
3537+489519000+483573847+478498480+474884031+471238460+465845173+458665275
3524+451039417+444334507+438935205+433752445+428444281+423736847+420152136
3510+417125948+413274276+408938864+404533197+399396091+393984657+389523740
3497+386449397+383430576+379107971+373779295+368676421+364648758+360564289
3483+355285322+350170924+346700027+343949484+340512514+336960987+334106904
3470+331157965+327525979+323275656+318705285+314921907+312182347+309720866
3456+307678141+306107972+304078190+301070452+297295320+293214028+289460050
3443+286058697+282799814+279571107+276015187+272797125+270725508+269098465
3429+267125725+265132980+263383828+261080665+257835315+254338076+251501447
3416+249963160+249343929+248380217+246003927+242710203+240720499+240559562
3402+239462555+236463164+234154239+233477950+233062741+232016001+230493039
3389+229220801+228025931+226252685+224263826+222692220+221635832+221451004
3375+222559889+223823442+223851625+223122686+222793868+223028794+223062907
3362+222924341+223343723+223864061+223920680+223806850+223594734+223387028
3348+223454732+223696129+224508873+226624538+229225667+230847759+231939055
3335+233449868+234749529+235382784+236099726+237891862+240886065+243945032
3321+246278575+247946574+249658943+252284656+255337287+258081172+260193053
3308+261999585+264952663+268377248+270750548+273828371+278175053+281341345
3294+283044573+284629915+287312974+291737599+295736133+297750877+300109224
3281+304666382+309807307+313639616+316564562+319544589+323382677+328341426
3267+333331906+338046234+342675877+346528361+350285684+355389943+361397241
3254+366760655+370741888+374209609+378012215+382043764+386669589+392028070
3240+397781822+404165940+410594123+415788845+420389393+425711243+431012344
3227+435994478+441627489+447431524+452992422+458609619+463977967+469313671
3213+474839155+479908203+484503141+489558267+495290391+500997510+506442195
3200+511810848+517428348+523752281+530286776+535881669+540603364+545405079
3186+550244878+554794129+559886528+565972021+571959651+577054280+582187364
3173+588019414+593144523+596933747+601033118+606334489+611826045+616411015
3159+620346155+624329550+628458591+632757946+637109816+641597666+646264819
3146+650534032+654439299+658241498+661828710+665633749+670185669+674731170
3132+677746409+679465435+681314156+683650639+686485764+690093387+693960603
3119+696874533+699091593+701626100+703809300+704766101+705182493+706861441
3105+710245019+713476260+715751038+718438625+721745899+723289001+722870515
3092+723514735+725578715+727402836+728790762+730078934+731395490+732575458
3078+733518607+734682151+736048856+736477683+735841978+735229320+734743451
3065+734435601+734196080+733337817+732430758+731993212+731497949+730913271
3051+730270064+729058534+727202108+724977479+722318210+719475650+717018325
3038+714558567+711346250+707743358+704081127+699767444+694882058+690049389
3024+685041675+679121832+672058924+664319287+655755923+645223806+632232270
3011+617786709+603470978+589125781+572488301+552422063+529819121+505786012
2997+481202524+455631416+427141140+395201256+360669620+323381089+283393819
2984+243018441+206385012+176819762+154225961+137595350+128193746+128077913
2970+139999477+167783303+212204828+269040798+332174614+395106299+451274917
2957+496022473+527899604+547512651+555908742+554615840+545953058+532440407
2943+515989800+498879732+484789905+476036154+471839392+470473127+471311722
2930+475132271+482023716+490030585+496910506+502111142+506588753+510507909
2916+513422109+516226213+519289843+521176953+520941994+518912651+515298811
2903+510243719+505030445+501013967+497833009+494013237+489012348+484210059
2889+481120138+479954904+480835774+484787404+492888148+504611620+518199156
2876+532730820+548119024+563824235+579491059+595627192+612152413+628301523
2862+643826486+658661269+672955034+687212169+701406178+714976513+727561593
2849+739055175+749297081+758469251+766667926+772953336+777369208+781280895
2835+785130675+789606630+795304591+801023435+805551904+808644258+810781027
2822+812747346+814802337+816630918+818303040+820860661+824078386+826620597
2808+829250534+833300298+837797745+841368534+844598491+847839600+850034965
2795+851407077+852932404+854265992+854833639+855000980+855576196+857171609
2781+860015385+863103684+864865491+865591557+866483207+867554159+868477980
2768+869888682+872480637+875200327+876730520+877703069+878981778+879927360
2754+879747787+879129248+879020437+879264013+879421216+878999620+877754771
2741+876296827+875115034+873980552+872618307+870965650+869034880+866826606
2727+864142872+861629384+860620271+860694885+861017063+862550635+865508225
2714+868408367+870518372+872374798+874874432+877815260+879574904+880237035
2700+882008169+885735552+890437917+895063506+899181598+903045165+906932725
2687+909994125+911215792+911311695+911207547+910263924+907690421+904052791
2673+900091428+895251730+889139406+882555337+876754648+872663725+870140234
2660+869218712+870616573+874373153+879927901+886516092+893500872+900046349
2646+905242828+909803603+914828078+919585863+922974577+925430889+927733241
2633+929571757+930745236+931615529+932254546+932407626+931918580+931480426
2619+931561393+931287268+930283630+929193010+928576702+928560009+928443222
2606+927626727+926516304+925796388+926058281+927248183+928249320+928623133
2592+929351295+930281738+930119872+929256067+928808249+929030266+930021536
2579+931299569+932015295+932540092+934085154+936941096+940223026+943178588
2565+945975730+948897500+951601780+953988952+956224598+957705184+957931391
2552+957489182+956819887+955785701+954860056+954357764+953428469+951541697
2538+949483124+948320391+947729157+946796889+945895912+945088406+943934932
2525+943235021+943302606+943732582+944737167+945922135+946844266+947940428
2511+949141887+950531571+953129338+956839757+960037003+962028937+963807370
2498+966062548+968201615+969427405+969881442+970347846+970733892+970683000
2484+971144741+972432980+973319020+973113832+972152232+971212462+970700910
2471+970857099+972268613+974544337+976925561+979362002+981670235+983709275
2457+985650251+987486131+988622709+988954889+989487933+990213120+990234612
2444+989717857+989072622+987974838+986407271+985054624+983969681+982433675
2430+980237769+977853031+975489041+972908238+970210446+967888832+966358165
2417+965371424+964360486+963998501+964973212+966095597+966407570+966829706
2403+968167552+969625497+970551277+971642438+973101464+974376996+975814125
2390+978082212+980760742+982716924+983605465+983905813+983999486+984002257
2376+983112432+980145245+975131854+969754517+966162101+962142210+954062282
2363+945292513+941962462+945201611+951467759+957066032+960438458+966162371
2349+976379677+985508052+986494996+980093070+974927815+973179254+973949251
2336+976797285+979478992+980202895+979446754+978577745+978130873+977491518
2322+977384599+978768065+980324684+982024786+984706020+986982825+988079325
2309+988946779+989919125+991388559+993400837+994789642+995006590+994855064
2295+995416966+997090372+999179832+1000598712+1001226442+1001636008+1001977988
2282+1002408978+1003311914+1004635229+1005346089+1004585419+1003655246
2270+1003768181+1003967962+1003796161+1003955256+1004364213+1004597382
2259+1004819939+1005211122+1005869806+1006678799+1007268208+1007753131
2247+1008145191+1008176213+1008101194+1008229876+1008325103+1007981500
2235+1007306461+1006370340+1004991132+1003814544+1003375106+1002872206
2224+1001747253+1000566136+999628123+998772902+997929846+997074084+996623427
2210+996662424+996293409+994951643+993225859+991914371+990845649+989711504
2197+988762339+988447055+989398112+991103215+992235468+992629218+992586842
2183+992692748+994047220+996433040+998541626+999965440+1001105195+1002242381
2170+1003073947+1003129637+1002899578+1003117945+1003623549+1004155240
2158+1004535474+1004286693+1003669101+1003610708+1003951607+1003591040
2147+1002321185+1001185215+1000945897+1001137365+1001051532+1000561338
2135+999913940+999641302+999892584+999814253+999106772+998682879+998565213
2122+998084751+997565563+997336044+997160255+996934656+996486027+995975624
2108+995986641+996234137+996231501+996289692+996311184+995899794+995282202
2095+994846819+994597430+994065603+992973699+991730067+990781037+990157160
2081+989893308+990132762+990517388+990483460+990273001+990379515+990741297
2068+991291169+991977631+992572312+992936595+993217073+993876703+994909808
2054+995930951+996594163+996760287+997205943+998212014+999056759+999688409
2041+1000340199+1000957792+1001470830+1001892763+1002419589+1002813610
2029+1002540228+1002244138+1003036843+1004501817+1005537828+1005629743
2017+1005065611+1004696597+1004751341+1005109744+1005701451+1005941919
2006+1005485720+1004766682+1004398952+1004623740+1005095213+1005154012
1994+1004550613+1003798932+1003521360+1003528321+1003024542+1001733533
1983+1000274912+999459972+999491737+999987135+1000587155+1001024228+1001114454
1969+1001153248+1001514557+1001642969+1000981311+1000431304+1000822892
1958+1001522330+1001646821+1001142637+1000669339+1000601280+1000562689
1946+1000368855+999919685+999079738+998264933+997546909+996908974+996443516
1933+995420616+993574192+991552588+990046185+989261793+988767273+988568911
1919+988248017+986937611+985344225+983965626+982096764+979604700+977262608
1906+975826561+975413616+976058445+977647234+979500079+981291961+983178125
1892+984912222+986316639+988079055+990415267+992300349+993250190+993868187
1879+994483955+994840939+995067349+995403449+995023824+993459636+992559470
1865+993485926+994668867+994951981+994875069+995030988+995280850+995126080
1852+994411368+993483290+992669093+991202565+988983072+988499569+989534228
1838+989781387+989288286+989102968+989012134+987824259+986369558+986033187
1825+985665390+985002786+984663171+984390398+984048688+983561399+982579389
1811+980936734+979322127+978557808+978655603+978387831+976566414+974300896
1798+973363964+973421276+972265166+969390098+967646809+967111671+965507337
1784+962872872+959705566+955377825+950559078+945860836+939561233+931365937
1771+926048278+925650472+927875372+931538076+935207404+938294892+941338855
1757+943586531+945660378+947861962+948320729+947940698+948967788+950532720
1744+951600361+951761349+951091581+951373208+951036296+947350816+945764257
1730+947919274+949608224+950414581+950662213+950420056+949268744+945651187
1717+941737675+941443612+943043350+943951288+943836596+942456239+940854541
1703+940093263+936862021+932175268+930690290+929521609+929153068+930210774
1690+930008627+928890229+925088638+917842371+915038065+916304947+916289672
1676+913378108+910163020+909064763+907431232+905219106+905343935+905592919
1663+904284810+903807322+905015269+906694893+905418211+898961879+897456625
1649+901154676+902162302+901967927+904769530+908308892+910652133+910539266
1636+908259825+909491630+914361336+917807565+919260576+920816925+921862871
1622+922825823+925544499+927357265+926549016+927426337+929978078+931212384
1609+931542943+931961767+932071323+931496985+930887165+930754631+930478546
1595+929671445+928760263+928159567+927763722+927453236+927067258+926414589
1582+925932775+925498338+922847044+917886572+915887406+915855979+913447248
1568+910771285+910056033+909963847+909476829+904193638+894066085+891278675
1555+893168556+893069274+891098156+888921917+887283588+885039629+880920523
1541+873666349+866496791+865657791+866062287+862864636+859300673+857184720
1528+853708956+849064241+844547127+838615187+832750967+828273525+823679093
1514+819422857+815070177+809298887+799956199+787058201+779030448+775326990
1501+769384169+759509993+747337993+735896452+725338450+711860707+695328930
1487+679691169+665340227+650190362+632892373+613610899+591747202+565833640
1474+535221059+506206628+490999687+491431353+504457425+525739518+547550836
1460+565979726+581516245+596278374+612188031+629629232+646897010+660704703
1447+668856880+671145242+668590054+663090523+655321081+644287956+633612830
1433+625977409+618131798+609305596+601195052+593587881+586191103+578907462
1420+570128231+561036386+554480771+549548042+545818801+544489943+546081909
1406+550099739+555689901+561484813+565720706+567240795+565064658+557786829
1393+545073033+525657572+494428581+449926629+401244745+359581839+336410777
1379+341918148+373184513+413868990+445176143+459751738+467407232+484483339
1366+520816691+575338160+635850233+685251053+716801647+732491990+734583477
1352+724932332+705657819+678802831+647831981+619551895+602946248+603991654
1339+620306482+641476553+657818281+665208774+663209743+653452286+638437727
1325+620556479+601784731+583833669+568381293+556788294+549161354+544711082
1312+543420308+545692011+551096213+558934119+569151762+582329225+598816396
1298+617852537+638266263+659503582+681190611+702918867+724600016+745986968
1285+766275797+784570936+800543040+814380674+826437442+837090198+846450254
1271+854627099+861840925+868113899+873473731+877951241+881546428+884307345
1258+886222975+887438357+888392388+889777408+892262714+895419206+897985748
1244+899649962+900786135+901462458+901771322+901833703+901811941+901985431
1231+902237456+902187849+901665078+900742475+899556763+898074555+896350257
1217+894422732+891928370+888625556+884745431+880708306+876478563+871503965
1204+865667658+859133332+851553804+842323578+831171099+818492076+805094218
1190+791667907+778565328+765272970+750099721+731139951+706981337+676229800
1177+637070076+587916414+528984986+463485508+398397454+343634571+307592883
1163+293330578+299234842+321049033+353032881+388993468+423184373+451364265
1150+471333417+482136313+483146304+473723359+453578182+423279330+385096784
1136+344196000+308153940+284469536+278116896+290950672+321479076+363043815
1123+403953013+433009043+445680227+444967644+437725094+430316184+426695619
1109+429067348+438503336+455015006+477661473+504438129+532540670+559470406
1096+584571292+609686843+637608188+669755761+705283127+741661524+776321639
1082+807750175+835085828+857782916+875606716+889052829+899476742+907580595
1069+912621156+913660411+910187688+900316757+880255486+847617718+804784273
1055+760652518+729123754+722249273+742924824+784081012+834037246+882173752
1042+922396185+953212873+975106374+989822343+999940637+1007106477+1012005447
1028+1015362667+1017773088+1019010570+1018892228+1018045861+1016982545
1016+1015714988+1014210747+1012600601+1011024382+1009299409+1006940826
1005+1003835158+1000297688+996474334+992422949+987655634+981401111+974098952
991+966480629+958092108+948164269+936766794+924198205+910077930+893995054
978+875455933+853368936+826996776+795966721+759086978+713936244+657047203
964+584244113+492855606+387657243+284957568+205367755+161090845+154484778
951+185326439+251958930+347705253+460901901+576881667+680723057+763110519
937+824755317+873229547+915258460+952406786+982947997+1005515592+1020447225
924+1029851888+1036944601+1044213982+1052033302+1059398112+1065539363
912+1070046475+1072745011+1073741823+1073209658+1071797536+1070043907
901+1067583946+1063918809+1058922246+1052116296+1042499619+1029536604
889+1013116478+993831894+974070566+958720446+954994820+966492524+987583453
876+1008560299+1023636158+1032305563+1036249151+1037000494+1035772271
864+1033428827+1030332147+1026552859+1022404083+1018249292+1013906952
852+1009260345+1004375432+999131981+993489779+987165034+979925864+971966508
839+963167678+952997141+941014447+927100577+910302718+888137863+856676886
825+808292410+732367836+628937972+528400004+482589302+521540594+626824047
812+749509163+847342444+906453885+935069058+946773234+951248986+952742616
798+952234850+950296240+947591892+944115587+939876044+935333450+930775920
785+926153170+921579487+917199908+912809177+908321462+903665866+898776628
771+894255797+890450082+886541571+882034662+877451787+873331059+869687752
758+865932794+861756443+857575632+853744100+850189262+846631652+842943536
744+839212301+835664221+832329033+828934912+825308704+821618019+818047636
731+814376214+810888487+808085465+805374223+802055594+798455609+795456725
717+793060361+790393726+787414171+784830868+782740868+780586729+778111562
704+775484463+772827695+770219858+767782065+765451665+763256976+761319988
690+759340084+757304828+755597494+754099066+752725062+751823342+751448786
677+751058550+750293352+749673935+748929148+746409780+744767260+746980873
663+749027078+749817688+750109318+750073565+750030041+750258411+750292338
650+750489754+751684050+753696935+756042542+758524062+760724632+762516717
636+764437484+766592906+768938310+771946048+775312932+778207060+780855583
623+783943003+787269472+790451376+793636727+796619931+799396122+802456238
609+805863336+809722915+813967054+818375627+823021220+827450812+831226181
596+834528927+837684203+840936801+844620051+849085193+853808306+857917275
582+861314978+864758504+868875515+873357012+877814922+881753170+885084640
569+888598184+892563197+896684398+900928198+905614276+910406259+914755289
555+918594052+921812452+925076946+928728025+932349705+936035456+939788589
542+943458660+946769449+949558819+952154356+955064095+958466664+962028667
528+965649604+969098063+971824241+973829558+975699298+977792880+979552051
515+980781153+982044183+983184072+983376216+982015121+979024618+974462559
501+968638958+961906203+953627034+943158380+930985704+918633657+908718052
488+904978435+911086772+927045968+947745580+967275430+982758557+993725583
474+1000934272+1005777822+1009269536+1012207391+1015177822+1017372173
463+1017884130+1017184354+1015721881+1014160599+1013413446+1012107703
451+1009283527+1006265584+1002902619+998519526+993330008+986710390+979537859
438+973016171+965547212+955939389+945550080+936231656+928993567+925217252
424+928442951+940130637+957457957+976519443+993118264+1008035636+1022647186
411+1034953883+1045587986+1055124101+1061026439+1063951317+1065665004
399+1067337937
##END=
