##TITLE=41
##JCAMP-DX=4.24
##DATA TYPE=INFRARED SPECTRUM
##DATE=16/11/2015
##SAMPLING PROCEDURE=Instrument type and / or accessory
##ORIGIN=Default
##XUNITS=1/CM
##YUNITS=TRANSMITTANCE
##RESOLUTION=4
##FIRSTX=3996.3359
##LASTX=399.24785
##DELTAX=-1.9287336
##MAXY=0.87960875
##MINY=0.0029548733
##XFACTOR=1
##YFACTOR=8.1919949e-010
##NPOINTS=1866
##FIRSTY=0.097994074
##XYDATA=(X++(Y..Y))
3996+119621748+119559975+119589460+119741028+119953841+120108109+120178750
3983+120276539+120459702+120658672+120828075+120982916+121139186+121346232
3969+121607585+121837769+121979332+122044070+122134365+122324231+122526548
3956+122677142+122824199+123009899+123212499+123416307+123634850+123789519
3942+123858277+123929163+124006552+124082576+124167596+124247768+124354697
3929+124540116+124763215+124949016+125091079+125165712+125201947+125259609
3915+125347739+125440898+125590956+125856156+126112524+126214433+126240918
3902+126269940+126252723+126279062+126397506+126468865+126390839+126369584
3888+126433021+126411066+126482916+126605380+126630764+126729653+126857674
3875+126889288+126872135+126770526+126716975+126701377+126523016+126318771
3861+126262755+126451111+126774364+126841385+126593220+126463971+126497814
3848+126631364+126831544+127023338+127180672+127213987+127126994+127136043
3834+127246965+127317633+127350038+127329802+127319779+127406272+127416932
3821+127456840+127627280+127541814+127302799+127231485+127342417+127482051
3807+127530882+127625233+127574629+127334131+127278743+127286292+127181481
3794+127086876+127078754+127150422+127224919+127228457+127205920+127193359
3780+127128149+127063583+127051405+127083683+127126721+127081737+126965804
3767+126794427+126650100+126589827+126481716+126372722+126450502+126686398
3753+126786860+126628281+126495558+126479215+126188958+125847506+125825860
3740+125835947+125671219+125367529+125035127+124752501+124641334+124548183
3726+124325002+124057374+123795985+123526611+123211153+122918813+122654014
3713+122265587+121715451+121086108+120442867+119744802+118838327+117722985
3699+116535475+115299653+114050862+112771848+111328360+109766320+108483104
3686+107674945+107149284+106768960+106398214+105797892+104947041+104323646
3672+103916147+103320136+102619807+101928008+101207042+100432034+99647167
3659+98885319+98148082+97567861+97047593+96277960+95254359+94170086+93155399
3643+92212516+91308369+90400619+89435836+88435155+87522185+86639647+85481005
3628+84136334+82940048+81911909+80879077+79699534+78492389+77393455+76299659
3613+75131676+73868215+72523435+71219460+70006457+68789015+67507409+66217390
3597+64940832+63652354+62403690+61205316+59900332+58443789+57054762+55845524
3582+54713330+53571281+52391079+51152261+49906839+48757205+47660631+46465522
3566+45195135+43983469+42829351+41723200+40717285+39794665+38831364+37771352
3551+36710760+35653799+34524597+33409884+32420596+31521346+30649208+29816713
3535+29066744+28367947+27618868+26764895+25859577+25004929+24267305+23633596
3520+23010890+22334680+21648545+21019382+20448259+19887722+19320342+18745725
3505+18143763+17576178+17107954+16656927+16170649+15720995+15326413+14923544
3489+14463798+13986711+13606927+13278298+12858303+12422983+12112783+11887331
3474+11576107+11076365+10514801+10120282+9945459+9788975+9504884+9233507
3458+9084708+8900216+8579545+8258082+8035970+7860614+7661044+7463883+7286257
3441+7026049+6641819+6276865+6071179+5972067+5875973+5811680+5811670+5811763
3424+5754174+5650304+5522448+5362740+5153772+4932062+4793499+4780502+4823306
3406+4791944+4560339+4193997+3984030+4076375+4269179+4259738+4054196+3997692
3389+4207354+4403270+4368371+4178935+4017657+3974135+4015676+4063168+4015425
3371+3826520+3626823+3607025+3763974+3912650+3955286+3974885+4035638+4086966
3354+4031300+3863230+3764500+3862292+4044863+4145865+4125376+4073297+4097722
3337+4199071+4293939+4385796+4509378+4555818+4505407+4550040+4730914+4888225
3319+4967963+5015382+5061607+5127281+5152087+5084263+5030152+5121674+5349090
3302+5611150+5819232+5933690+5996677+6096357+6312798+6631488+6879234+6969823
3285+7029918+7161380+7355081+7550085+7702842+7836549+7954467+8101117+8400710
3267+8800061+9117155+9344382+9593832+9888959+10163042+10419560+10714381
3252+11013865+11274020+11550881+11942977+12438917+12906957+13297114+13680100
3236+14071690+14450708+14892288+15430745+16009225+16626548+17257281+17844573
3221+18438854+19110533+19818691+20487568+21131888+21820724+22573795+23352944
3206+24148493+24981204+25836264+26710341+27640575+28637655+29647218+30609011
3190+31535453+32492585+33525542+34627036+35750436+36873271+38036391+39229460
3175+40397238+41565748+42746942+43931332+45170597+46481561+47841625+49233416
3159+50608419+51922648+53190449+54500722+55936879+57433590+58900578+60371373
3144+61839353+63242791+64639216+66130152+67686166+69208911+70670575+72101024
3128+73559414+75095601+76658428+78136440+79512915+80868736+82244148+83674174
3113+85211567+86776581+88279522+89757215+91175455+92475160+93753992+95077099
3098+96393957+97691825+98966455+100213400+101465803+102681398+103802924
3084+104884050+105964294+107050558+108201670+109412754+110587886+111659289
3071+112624073+113513168+114355679+115184638+116005185+116749516+117391847
3057+118022573+118693098+119332337+119854014+120205016+120395173+120527596
3044+120664639+120754806+120706148+120450607+120035422+119565332+119003118
3030+118256886+117334494+116252059+115006869+113610238+112006471+110120705
3017+107981263+105627635+103046105+100205324+97014314+93376342+89271236
3003+84690117+79597516+73981697+67858429+61188577+53879209+45969670+37823596
2988+29996300+22908471+16828404+12016480+8658824+6697168+5866387+5992319
2972+7127561+9465330+13177079+18215757+24300670+30993027+37695289+43815685
2957+48862734+52456495+54493428+55099702+54456416+52813645+50561848+48162536
2941+45909671+43887071+42116852+40588409+39293256+38277859+37687313+37770013
2926+38640298+40044108+41560491+42932820+44005842+44588128+44568884+43992632
2910+42967285+41568277+39884042+38078182+36373251+35073123+34360077+34060336
2895+33910709+33816742+33779823+33818659+33910593+34038731+34310980+34892491
2880+35875061+37343098+39456065+42342621+46014213+50370786+55247700+60467770
2864+65844043+71219946+76483332+81519371+86262079+90734341+94984612+99049938
2849+102903396+106485198+109810813+112914675+115844359+118716563+121622564
2835+124598742+127666397+130786530+133897695+136994090+140035842+142949246
2822+145727063+148370957+150851942+153161678+155377554+157669245+160184218
2808+162974622+166035911+169298434+172602157+175811857+178886188+181801120
2795+184508360+186955921+189135326+191097344+192895052+194540857+196040996
2781+197381520+198524228+199523890+200464181+201292713+201939473+202446663
2768+202857736+203150721+203328473+203459295+203611926+203773034+203878572
2754+203952023+204097305+204379213+204816262+205407706+206122897+206907046
2741+207693213+208459190+209249105+210086004+210962303+211871089+212807996
2727+213822357+215001026+216409507+218085652+220016274+222075953+224042555
2714+225772651+227263460+228563183+229752967+230928107+232207985+233727188
2700+235493992+237367643+239243968+241147469+243099882+245030359+246850605
2687+248550033+250201131+251863906+253521934+255117953+256633336+258107828
2673+259542284+260865654+262066351+263216354+264322227+265333604+266234313
2660+267019153+267735890+268475510+269219241+269898415+270547995+271234027
2646+271952128+272634777+273240010+273803915+274325511+274740859+275057236
2633+275367538+275733300+276165129+276677375+277259197+277898227+278616182
2619+279404078+280212819+281004062+281758525+282429514+282975029+283426448
2606+283851255+284296071+284746799+285163839+285551375+285929561+286319098
2592+286739066+287176806+287623059+288081245+288509726+288871905+289180115
2579+289427134+289628023+289842592+290069947+290248317+290332300+290347125
2565+290341286+290266198+290053049+289761228+289472118+289150593+288745595
2552+288303307+287910005+287637247+287551518+287681085+287976216+288390892
2538+288953906+289672807+290484750+291325742+292170990+293026698+293872129
2525+294624736+295231733+295739122+296219754+296722596+297239426+297695465
2511+298082819+298506152+299038826+299668851+300366234+301109874+301912994
2498+302826000+303852057+304926407+305998229+307102720+308281062+309457658
2484+310573754+311689232+312847310+314045589+315282866+316515014+317707071
2471+318904331+320129966+321349454+322576072+323843545+325117056+326353570
2457+327565963+328756857+329849924+330756182+331505278+332193584+332851659
2444+333435191+333875605+334202114+334520801+334826537+335040996+335122596
2430+335065007+334907336+334689858+334412826+334088863+333772723+333575253
2417+333598027+333836315+334273346+334936113+335799406+336777550+337798513
2403+338864478+339991742+341123118+342191666+343209864+344179422+345031110
2390+345674233+346051782+346190935+346195337+346170126+346105297+345986117
2376+345803999+345363840+344518555+343505668+342422496+341039190+339835746
2363+339327993+339484280+340718720+343206808+345814113+346316045+344616017
2349+344336183+347777386+352031677+353262806+352268292+351575547+351778547
2336+352558748+353422514+354249536+355169691+356099922+356936767+357978576
2322+359471894+360862658+361655411+362274959+363229601+364305753+365199350
2309+365979988+366781726+367624210+368518789+369384883+370093890+370684334
2295+371260481+371813636+372341434+372853044+373296113+373618839+373856508
2282+374054269+374190002+374217796+374119352+373926612+373685013+373391319
2268+372996089+372464944+371830698+371201764+370731810+370582761+370894282
2255+371687653+372855990+374296376+375897233+377219494+378367059+379343820
2241+380154945+380847689+381500779+382126439+382684069+383193896+383709034
2228+384220425+384690634+385102199+385492081+385919653+386367525+386788585
2214+387185416+387601492+388079086+388613069+389149853+389633340+390062368
2201+390487902+390907507+391270505+391600033+391938474+392275424+392611683
2187+392965040+393372457+393875517+394444170+395012787+395555792+396114258
2174+396733188+397341822+397885373+398431761+398988554+399506239+399978049
2160+400397763+400795576+401216199+401622016+401936229+402134244+402268522
2147+402398943+402513067+402605908+402751427+403000229+403347001+403843877
2133+404589153+405580576+406723775+407966037+409309434+410737705+412204248
2120+413656712+415037763+416308800+417493182+418612297+419629368+420546466
2106+421414343+422210079+422868517+423409266+423931680+424514012+425171686
2093+425848605+426539203+427334793+428243816+429187726+430149099+431148198
2079+432192044+433284639+434434932+435643178+436863830+438026565+439097987
2066+440112293+441154792+442177684+443095728+443971063+444871790+445770008
2052+446614893+447424707+448240233+449067365+449895479+450689541+451438164
2039+452156229+452859269+453575842+454283320+454974973+455682451+456411539
2025+457141864+457857309+458560858+459234285+459897344+460622866+461340458
2012+461995222+462638198+463229952+463755422+464298937+464886762+465436461
1998+465927115+466408966+466787789+467052488+467425381+467776192+467983520
1985+468173278+468392175+468613291+468802757+468998117+469271293+469674818
1971+470185154+470673735+471140597+471724566+472321194+472841389+473341757
1958+473812039+474205305+474490668+474617888+474542910+474252671+473700353
1944+472661273+471194512+469480950+467201173+464199729+460658373+456895536
1931+453357600+450614016+449282370+449672216+451878178+455549956+459781983
1917+464408222+469174232+473501901+477396797+480975770+484279202+487196644
1904+489696556+491914924+493946518+495787737+497457024+499118418+500607334
1890+501734926+502951285+504233783+505327615+506401910+507456197+508442709
1877+509413213+510471429+511596984+512384861+512990694+513998160+515086208
1863+515906354+516625729+517388104+518207377+519031089+519815547+520595130
1850+521457440+522447444+523004928+523357158+524261342+525083089+525624057
1836+526314436+527153646+527752712+528099048+528749082+529227768+529467620
1823+530040129+530585535+530922376+531318661+531852753+532266064+532555575
1809+532982237+533508580+534005856+534309773+534458021+534803774+535400767
1796+535832595+535646804+535337248+535568187+535735971+535534899+535445587
1782+535435764+535327789+535409534+535564512+535269800+534626350+534274375
1769+533884711+533596619+533444479+532999590+532823767+532986203+533242680
1755+534071485+534953695+535512016+536334964+537265632+537970528+538456307
1742+538688410+538992873+539570475+539013137+537691567+537298811+536964153
1728+536218367+535348416+534447470+533825703+532890087+530948606+528861496
1715+527123632+525435609+523668169+521663969+519303974+517194964+515113274
1701+511808132+508463227+504923544+500686460+497097883+493501338+489744686
1688+485999203+480935788+475097483+470366034+466167622+461700000+456823722
1674+452519845+448842028+444952408+441757824+439668786+437635701+435709208
1661+434725861+434726262+435097226+434790581+434848316+436688334+437933688
1647+438424233+440047682+442604637+445381144+448592208+452155101+456538432
1634+461987909+467142383+471874523+477154070+482841253+488416460+494197248
1620+499726033+504502011+509775738+515727038+520893444+525335456+529661197
1607+533823266+537656352+541147977+544348054+547247198+549836058+552209295
1593+554427117+556417238+558146407+559671849+561024559+562249177+563524653
1580+564685023+565046711+565347536+566456247+566802619+566213266+566176668
1566+566473273+566938207+567153357+565802138+564599167+564698593+564017708
1553+562796693+561656731+560805153+560166396+559458554+558459055+556479520
1539+554598975+553676019+551808171+549163322+547257457+545416056+543125474
1526+540956583+538495125+535205553+532072778+528752357+524984754+521382971
1512+517914629+514104062+508483636+501554373+495574733+489711217+482310618
1499+472727411+461013913+448189702+433794902+416696646+399382766+386283706
1485+378717360+374700483+372056653+369821332+367290207+363240479+356173846
1472+346419618+335648102+323648986+309302025+293322848+277566133+262545492
1458+249361921+241839013+241372424+244546653+248770786+254139918+261209316
1445+268874305+275280135+279208063+280076268+278460531+275993634+273258327
1431+270166225+267237905+264921239+263250496+262308586+261912483+261980495
1418+263000639+264739867+266770461+269244452+272277946+275775683+279591889
1404+283723762+287750170+290735079+291693360+289428680+284496215+278888849
1391+271712622+260374781+245737837+232238999+223816072+222668253+229360992
1377+242932044+262500108+287912915+317986759+349997537+379622562+401962749
1364+415305736+421549749+423577450+423704052+423170069+422073145+419989382
1350+416631417+412179110+407172484+402136790+397258403+392565808+388534634
1337+385560220+383590145+382644124+382880920+384312538+386792004+390254198
1323+394686824+400005879+406138788+413022176+420535552+428691942+437615874
1310+447223018+457379897+467976245+478757438+489355968+499365764+508515687
1296+516618562+523414492+528564746+531676784+532340425+530142902+524656135
1283+515769603+504344778+492513408+483403503+480196987+484775568+496880041
1269+514274465+533981700+553562333+571498853+587141189+600527650+611945672
1256+621668831+629855307+636721050+643144561+649934270+656196909+660362689
1242+663380394+667625336+672449590+675790275+678065905+680647999+684040634
1229+688247741+692988030+697878205+702650581+707241422+711653784+715861254
1215+719780815+723263891+726251983+728894322+731368076+733623624+735581076
1202+737338731+738990010+740412243+741509458+742427902+743289595+744031088
1188+744483507+744484671+744069432+743469456+742785370+741778377+740242567
1175+738168845+735429664+731743879+726927847+721063640+714304126+706708894
1161+698622244+690886660+684287726+679075299+675063407+671807341+668770427
1148+665472233+661580612+656956520+651508861+645091536+637651646+629396630
1134+620604867+611392262+602000050+592895711+584172305+575264600+565372638
1121+553812189+539901313+522649971+500924566+473848819+440729949+401027424
1107+354605040+302273155+246512145+191458741+141952039+102005524+73458423
1094+55800673+47202104+45842377+50539470+60597519+75542127+94743769+116925476
1078+140167691+162289809+181148721+194978197+202214996+201286310+191464216
1065+172180279+142287188+104032980+65464951+35305397+16974684+8186053+4889823
1049+4545226+6737123+12929502+26427406+51679768+91964769+147143211+213085283
1034+283443492+352384088+416042791+474392988+529022440+576870150+613035247
1020+638218152+658716430+681682495+709965542+741173817+771720344+799568580
1007+824158567+845906927+865401849+882592983+897225016+909548095+920172673
993+929563612+937664959+944214708+949369363+953487049+956469538+957642132
980+955928352+949838372+937360097+917506251+894435194+878693941+879914484
966+897969565+924170523+949661348+970346253+985984843+997500217+1005678398
953+1011284891+1015215657+1018167878+1020378025+1021843840+1022714118
941+1023305726+1023610953+1023299687+1022320779+1020967523+1019353133
930+1017148298+1014067001+1010219545+1005849893+1000871970+994814950+987450294
916+978915881+969203709+958000328+944924842+929846356+912778477+893484226
903+871244374+844564731+810992495+767276987+709540408+634637433+543027976
889+440704156+339060201+251923660+191311839+166990953+187963842+258397829
876+369127423+497239873+617672290+715026774+786083603+834703183+866517909
862+886700482+899626084+908681455+915494302+920225060+922917093+923929980
849+923439653+921386813+918069702+914130714+909894504+905083565+899477654
835+893429292+887280959+880859704+873776627+866047373+857960505+849436206
822+839990333+829106367+816479444+801801936+784444838+763857066+740628775
808+717332818+698686346+689989461+693456602+705821591+720523691+732419598
795+739871420+743324519+743851226+742669173+740476999+737328908+733445290
781+729252081+724982255+720584081+715809595+710869726+706196812+701706452
768+697079158+692251703+687358982+682354357+677143095+671929359+667119657
754+662946456+659213887+655474188+651506315+647469757+643454735+639413084
741+635360227+631362959+627505753+623694168+619812806+616043348+612491514
727+608890531+605249822+601947881+598825256+595270112+591462783+588188600
714+585392011+582552094+579630031+576819364+574175424+571653030+569173819
700+566625777+564053433+561678159+559591195+557574735+555454119+553330775
687+551393514+549804735+548591141+547570323+546565840+545208218+542455322
673+539203949+541061174+548047626+548157821+541168422+538887190+541551793
660+543421751+543727524+543973015+544598165+545631788+546971439+548222322
646+549361265+550762397+552527327+554483688+556494982+558470515+560483992
633+562825324+565701184+568912175+571866980+574743095+577495009+580169689
619+583256225+586977698+590995121+594919011+598598065+602318664+606499032
606+610963999+615323755+619702429+624252816+628758092+633206324+637984448
592+643242641+648485772+653299840+658119801+663396547+668859703+674133975
579+679314751+684692342+690383527+695974813+701279280+706653815+712076153
565+717191155+722152924+727520038+733356378+739217457+744996171+750881042
552+756733608+762359964+767998107+773842160+779657036+785248468+790751860
538+796306111+801849521+807292159+812717335+818197881+823414891+828275743
525+833262979+838370922+843581166+848929435+854112976+859219101+864359932
511+869427785+874197396+878772958+883365036+887807375+892549265+897557673
498+902131052+906065529+909366269+912539971+916136333+919966254+923515614
484+926649153+929695889+932673940+935194625+937192750+938751988+939939862
471+940563703+940090183+939432072+939609679+940187245+939822646+937098817
457+932845289+927767977+921202877+913751200+904957691+894056480+881848289
444+869345639+856763463+843641557+830628571+820511200+815946261+818361008
430+828778076+846823844+870573385+897361732+923635304+947420351+970977152
417+992348254+1007345685+1018161330+1027079913+1035129456+1043750962+1052978483
403+1061968443+1069118240+1073741823
##END=
