##TITLE=41
##JCAMP-DX=4.24
##DATA TYPE=INFRARED SPECTRUM
##DATE=16/11/2015
##SAMPLING PROCEDURE=Instrument type and / or accessory
##ORIGIN=Default
##XUNITS=1/CM
##YUNITS=TRANSMITTANCE
##RESOLUTION=4
##FIRSTX=3996.3359
##LASTX=399.24785
##DELTAX=-1.9287336
##MAXY=0.83800173
##MINY=0.0020382025
##XFACTOR=1
##YFACTOR=7.8044993e-010
##NPOINTS=1866
##FIRSTY=0.094111465
##XYDATA=(X++(Y..Y))
3996+120586166+120711312+120907836+121094757+121226748+121349516+121440246
3983+121506594+121652236+121885858+122134077+122377160+122586210+122742086
3969+122894486+123059794+123241321+123447249+123627334+123786857+123992422
3956+124231133+124454054+124633986+124756545+124872697+125044133+125219408
3942+125346023+125498911+125707187+125880647+125990575+126080294+126201076
3929+126406765+126655557+126837142+126931805+127006125+127122229+127284005
3915+127447823+127591498+127691412+127747756+127854839+128040204+128187010
3902+128232184+128206008+128157549+128181406+128279917+128294504+128234132
3888+128303067+128445807+128499363+128551553+128648050+128722808+128787801
3875+128833615+128875725+128931763+128901653+128788727+128663467+128502742
3861+128366380+128407659+128714302+129114006+129162464+128825653+128599973
3848+128673930+128918942+129175867+129333738+129370597+129300507+129228612
3834+129308335+129468735+129537413+129519790+129506816+129563637+129658348
3821+129676086+129682558+129698186+129535485+129289814+129234492+129353327
3807+129408287+129376802+129459943+129547341+129447981+129335657+129323380
3794+129302120+129225815+129167371+129182979+129206387+129182263+129172965
3780+129149939+128987018+128752002+128654952+128750799+128860536+128805701
3767+128667085+128600346+128589854+128541997+128440823+128388146+128478704
3753+128637386+128623334+128378590+128205607+128100089+127748815+127321131
3740+127173561+127194649+127091070+126836397+126595214+126417763+126212332
3726+125910289+125558242+125227007+124911275+124592220+124311992+124121252
3713+123894465+123380271+122598372+121776293+120945765+119942836+118702991
3699+117369419+115995493+114534962+113063356+111616027+110108288+108663337
3686+107566165+106860295+106384926+105950445+105407954+104712299+103985599
3672+103352866+102675798+101852410+101055047+100318838+99513513+98685801
3659+97967111+97256802+96419362+95581769+94805026+93908303+92813250+91677424
3643+90612214+89569047+88500228+87435839+86387449+85356645+84377468+83326644
3628+82039124+80701819+79520671+78409399+77180667+75814483+74491632+73285185
3613+72126214+70934407+69600276+68137034+66711423+65382557+64100961+62843002
3597+61578579+60258410+58906747+57597351+56276920+54854398+53460620+52240016
3582+51102649+49907907+48643833+47386346+46183031+45038637+43965685+42918971
3566+41792300+40588231+39399606+38275098+37178327+36057432+34922983+33827775
3551+32814574+31823507+30755879+29701361+28817186+28039489+27208610+26315595
3535+25467869+24713491+24020101+23354298+22635951+21813237+21021498+20402278
3520+19872254+19262660+18567976+17908669+17361080+16887977+16412213+15893686
3505+15312854+14774333+14382753+14007643+13558640+13149942+12807305+12412736
3489+11954549+11534671+11200085+10871133+10466710+10102010+9868626+9651046
3474+9335753+8880920+8371282+8029298+7917919+7834831+7616685+7366922+7237877
3456+7164636+7015684+6773608+6501453+6297365+6180630+6059629+5862553+5582562
3439+5237507+4926492+4798517+4798376+4730474+4619881+4617553+4668368+4612532
3422+4475269+4369768+4270404+4107911+3942869+3853491+3803569+3777857+3765571
3404+3578622+3205536+3008786+3121736+3268934+3213158+3055641+3089658+3333547
3387+3500363+3470848+3370982+3300349+3248166+3172885+3092882+2991154+2792941
3369+2611574+2660044+2873282+2984974+2958478+3005572+3168345+3233989+3085554
3352+2886569+2880212+3094137+3295165+3322750+3250725+3154773+3114771+3238187
3335+3425575+3506421+3496655+3436014+3355421+3367477+3485409+3603584+3707019
3317+3802541+3866582+3915799+3889308+3752723+3646793+3707457+3941577+4224637
3300+4401441+4475617+4520797+4537759+4602604+4830249+5132234+5330169+5415006
3283+5491825+5621493+5779013+5890306+5936584+5968710+6051190+6262840+6598374
3265+6914956+7131935+7337597+7583734+7813546+8048870+8330989+8588515+8754860
3248+8886602+9152877+9621792+10120713+10483523+10753109+11015445+11288535
3233+11658561+12192755+12780494+13320902+13833066+14335238+14827468+15331802
3217+15864559+16436292+17065406+17732707+18395578+19051575+19719776+20422645
3202+21190231+22010262+22846029+23694187+24550007+25404962+26275254+27171154
3186+28100584+29098973+30154355+31190644+32219275+33296504+34381636+35457051
3171+36596237+37805292+38999411+40164805+41377571+42661840+43975575+45282241
3155+46515169+47692632+49037627+50618139+52177238+53558472+54854522+56162729
3140+57531762+58994561+60499045+61934937+63287769+64683322+66189295+67717498
3125+69184043+70566484+71897317+73275930+74776056+76360907+77892469+79282887
3109+80625304+82046695+83516906+84937037+86293111+87618397+88941258+90304024
3094+91702837+93026004+94182116+95248596+96383992+97625899+98860407+100018247
3078+101184030+102437946+103698898+104811297+105751457+106650472+107607883
3065+108573628+109448796+110208059+110896602+111566901+112206422+112770545
3051+113256005+113673217+114001731+114206552+114309158+114365072+114357836
3038+114230561+113966371+113559498+112997409+112299043+111461632+110435467
3024+109207030+107787701+106157528+104280549+102153756+99805073+97208515
3011+94288665+90995784+87317777+83269489+78822587+73853284+68267745+62111309
2995+55462501+48300879+40678093+32937798+25597720+19072703+13617267+9420773
2980+6582256+4965175+4263422+4337644+5304002+7300342+10389759+14655640+20017524
2963+26037772+32143370+37842490+42641034+46092010+48028140+48564492+47913620
2947+46329752+44189312+41920768+39786095+37879891+36225648+34798291+33595589
2932+32656245+32114320+32209776+33002717+34252397+35654141+36974005+38032101
2916+38665557+38705462+38114074+37038365+35634545+34038493+32397146+30860099
2901+29672058+28997207+28690838+28547397+28483886+28457767+28468345+28533719
2885+28670265+28921857+29379839+30202928+31550240+33507387+36134417+39516878
2870+43649896+48338740+53346353+58518676+63683912+68668765+73463228+78107500
2855+82544259+86754714+90788128+94601075+98121984+101418932+104575297+107600303
2839+110539361+113481274+116503263+119629997+122830315+126045115+129215753
2826+132322362+135348943+138223448+140882650+143366053+145760816+148152153
2812+150634525+153289784+156202303+159397294+162778719+166230550+169660041
2799+172940149+175958911+178740767+181348724+183725845+185842748+187779107
2785+189560468+191165143+192600653+193883476+195026271+196003166+196824778
2772+197567211+198202512+198651256+198935551+199114262+199236706+199344486
2758+199447188+199531388+199601937+199728886+200013563+200510784+201185303
2745+201948108+202766646+203634119+204492122+205340407+206255574+207245625
2731+208242186+209214155+210245409+211480843+212992534+214768970+216781605
2718+218956322+221114637+223050461+224666859+226015839+227233059+228449705
2704+229812853+231466272+233399576+235465252+237557161+239654398+241731644
2691+243750943+245705421+247611709+249496344+251344856+253113597+254798539
2677+256427939+258034523+259611875+261116846+262530170+263851790+265053983
2664+266104826+267045864+267943504+268802176+269606470+270344912+271040930
2650+271777406+272572765+273359341+274112446+274827366+275454878+275980280
2637+276437272+276817606+277120116+277424230+277820448+278352839+279009773
2623+279736588+280513082+281367458+282262234+283101927+283881152+284628129
2610+285280576+285789940+286207352+286624516+287095446+287581727+288010270
2596+288385162+288796387+289297007+289806657+290253435+290680794+291106512
2583+291491695+291837546+292159817+292436991+292645964+292795081+292897763
2569+292963023+293010985+293015434+292868532+292541315+292160944+291808162
2556+291425136+290972879+290520546+290131296+289836233+289712529+289798085
2542+290076919+290561195+291212039+291947426+292761764+293662764+294571669
2529+295415047+296203971+296964791+297690002+298341723+298907393+299424566
2515+299897882+300338512+300806635+301312123+301844399+302434546+303136348
2502+303995134+304968211+305984228+307081982+308302333+309544354+310722280
2488+311894115+313113473+314368230+315647731+316940119+318238274+319544200
2475+320861849+322201646+323550149+324895788+326269036+327669243+329055588
2461+330420894+331785855+333155399+334460561+335599346+336588976+337514530
2448+338365125+339075883+339646726+340138181+340555708+340853254+341065607
2434+341242790+341350284+341353606+341230685+340948184+340541121+340113208
2421+339728597+339440293+339382670+339649972+340201494+340964757+341881529
2407+342908085+344025868+345204443+346406808+347610739+348771748+349895794
2394+350982111+351957918+352691206+353101362+353264417+353315319+353318908
2380+353204999+352933916+352593258+352130099+351296650+350119946+348874278
2367+347639684+346607209+345825081+345625826+347002244+349896863+352801258
2353+353499452+351886128+351586177+354985998+359143622+360176441+359122658
2340+358723842+359414781+360624287+361701096+362509839+363319040+364181511
2326+365040049+366135111+367644798+369080518+370004010+370753526+371779739
2313+372915966+373883525+374737442+375610796+376507863+377414782+378246246
2299+378907094+379500239+380133937+380727119+381253552+381768072+382226419
2286+382526944+382689425+382820594+382954360+383024585+382954322+382721120
2272+382357359+381911422+381385256+380746823+379995970+379218731+378599696
2259+378345224+378614856+379437461+380684351+382227183+383948802+385368102
2245+386597465+387701195+388667265+389485860+390186536+390779261+391312606
2232+391829683+392325339+392798350+393254253+393684648+394106490+394548608
2218+394993629+395427079+395865494+396322848+396799754+397292469+397783389
2205+398245365+398695960+399165725+399621744+400025141+400384663+400709016
2191+401021072+401370360+401764899+402167151+402589909+403099541+403683826
2178+404274259+404876263+405520385+406180012+406795304+407339532+407854815
2164+408381630+408904397+409383747+409797990+410198982+410617730+410942770
2151+411115601+411219619+411301223+411361404+411437280+411594110+411852821
2137+412200276+412710633+413480846+414490983+415671773+417000724+418462449
2124+420023916+421657173+423282373+424781100+426145488+427454927+428701054
2110+429818111+430807169+431687930+432457494+433142629+433780489+434392689
2097+435015427+435677421+436371797+437110583+437939679+438885548+439918176
2083+440987004+442088214+443245367+444458157+445711501+447007307+448349166
2070+449680562+450907748+452022132+453100736+454165898+455182412+456163603
2056+457144527+458123656+459083387+460018411+460933197+461817434+462667494
2043+463495483+464280932+465014411+465753693+466524288+467286788+468042414
2029+468808656+469566649+470325827+471105701+471883475+472640743+473369945
2016+474071499+474769846+475469644+476160927+476824372+477431110+478004169
2002+478581199+479124587+479590304+480027535+480480002+480885614+481192630
1989+481431331+481643990+481850882+482054337+482241334+482407177+482576799
1975+482824016+483198010+483648186+484130209+484662561+485259104+485881041
1962+486469755+487004055+487457591+487795691+488039738+488182936+488114773
1948+487728483+486970795+485760143+484032987+481842863+479154945+475789987
1935+471783428+467473212+463366108+460146067+458527321+458912313+461257053
1921+465142028+469993799+475180385+480190055+484910961+489330542+493359402
1908+496967681+500168706+502993979+505509296+507774685+509827760+511690668
1894+513374444+514928618+516370944+517694512+518971034+520229495+521419144
1881+522528106+523580323+524599548+525613503+526649835+527692086+528631005
1867+529436311+530246772+531102866+531961060+532828991+533700512+534540873
1854+535340070+536129949+536963551+537890556+538795223+539429035+539910676
1840+540549147+541296907+542010109+542748895+543538048+544212987+544676108
1827+545026961+545346235+545702893+546153680+546615961+547017945+547422451
1813+547889466+548352549+548730629+549068118+549433979+549819696+550156918
1800+550371180+550514377+550743723+550969517+550894711+550625881+550501547
1786+550508268+550491618+550424296+550262464+550012994+549867582+549826913
1773+549504088+548774161+548002153+547443682+547112074+546871196+546620085
1759+546539398+546816705+547474804+548444043+549460403+550265748+550915637
1746+551571368+552212321+552640426+552738220+552719585+552650316+552072446
1732+550980057+549946780+549072967+548116330+546999196+545926740+544982704
1719+543633170+541416315+538831767+536489738+534352463+532143628+529644082
1705+526990302+524464484+521537903+517710130+513429280+508894950+504358406
1691+500093975+495904924+491714957+486910537+480813939+474572119+469300798
1678+464626325+459827405+454958450+450599930+446690553+443105530+440292934
1664+438230657+436480856+435091112+434467991+434816592+435824514+436708598
1651+437244043+438186208+439842911+441828205+444068468+446882018+450510307
1637+455108216+460445599+465699278+470744575+476266702+482377239+488702648
1624+495040239+501077000+506679203+512462332+518594863+524307310+529480340
1610+534493561+539296529+543701790+547743786+551496141+554927428+558028939
1597+560841000+563388126+565645497+567634037+569417556+571007509+572384194
1583+573544554+574589325+575674612+576718008+577300919+577423954+577568374
1570+577695954+577520451+577180480+577032738+577311076+577568030+576815345
1556+575206832+573704134+572477253+571301848+570157793+569191914+568486617
1543+567858342+566638182+564335752+561791223+559642950+557438277+554973060
1529+552563671+550185710+547703653+545040059+541833154+538111195+534230077
1516+530138209+525852777+521640203+517519238+512541148+505619959+497845121
1502+490543943+482842918+473081411+460555728+446138230+430350578+412412973
1489+394051502+379757880+371379205+367034890+364229129+361776056+359125636
1475+355064852+347896523+337427848+325545371+312937474+298300845+281578531
1462+264808828+249318741+236178319+228414880+227470366+230570560+235026016
1448+240622893+247758114+255446824+261910982+265818163+266827516+265377858
1435+262568928+259518243+256482946+253523945+251023387+249280822+248324815
1421+248100319+248495506+249430359+250933000+253010838+255646881+258803266
1408+262442017+266488138+270688759+274606517+277663122+278728093+276544060
1394+271625922+265627442+257985663+246462537+231635360+217862940+209278270
1381+208039552+214655538+228261849+248134037+274032370+304771209+337800277
1367+368485999+391726199+405874141+412454595+414370200+414418964+413896654
1354+412710518+410411258+406802025+402079400+396771955+391406925+386243938
1340+381365056+377078745+373810360+371703176+370739168+370951636+372379719
1327+374941012+378510303+383065749+388610406+395018335+402107046+409858286
1313+418411395+427809676+437932042+448663895+459847147+471206169+482389420
1300+492997245+502726715+511367002+518630262+524121076+527453728+528227225
1286+525910972+520013094+510490746+498280442+485629776+475868613+472390243
1273+477223913+490085824+508570979+529577523+550583456+569944294+586892727
1259+601383733+613711918+624244669+633189682+640720855+647653461+654832291
1246+661443141+665921528+669227755+673763803+678835373+682372167+684887026
1232+687824147+691660320+696298096+701392500+706583058+711647372+716551916
1219+721299820+725806083+729912613+733510582+736648027+739450732+742047615
1205+744457996+746621161+748517406+750175369+751600626+752801578+753811905
1192+754681555+755413200+755843328+755808885+755386088+754759760+753987409
1178+752839001+751067090+748683286+745655435+741698212+736534691+730142952
1165+722635951+714181247+705268617+696790391+689569098+683888155+679512106
1151+675955226+672649075+669053169+664835516+659865980+653997620+647050121
1138+639027035+630193908+620813535+610987723+600971056+591247926+581958055
1124+572559162+562171633+549974312+535196452+516906962+494060804+465686447
1111+431016352+389635702+341593796+287965191+231570711+176767196+128347850
1097+90050554+63289755+47079960+39269690+37925886+41998100+51101121+64903121
1082+82784278+103629094+125785468+147175295+165511468+178951764+186067988
1069+185395016+176090844+157467045+128666274+92375408+56597511+29422307
1055+13490628+6181062+3554857+3236321+4883018+9840508+21122503+43099902
1040+79558027+131284522+194865927+264103188+333031943+397654053+457682989
1026+514297860+564043285+601695446+627864595+649194422+673375145+703466310
1013+736835062+769547625+799458933+826046983+849623145+870686051+889282595
999+905193894+918635088+930252592+940508685+949347006+956543478+962175390
986+966563352+969733331+970982551+969023605+962169815+948157127+925866233
972+900005933+882336089+883430349+903039435+931656541+959774249+982889886
959+1000438833+1013300592+1022421032+1028681792+1033039893+1036274483
947+1038699222+1040315410+1041232258+1041769230+1041999416+1041695302
935+1040795180+1039411545+1037554785+1035046418+1031699561+1027524754
924+1022675274+1017133940+1010583500+1002713578+993413817+982699261+970493998
910+956488948+940347845+921950480+901220632+877413369+848753571+812707822
897+766018315+704719730+625625669+529588750+423683021+320217879+233007252
883+173221313+149312637+169367288+238058354+348116208+478153133+602620924
870+704506652+779622105+831567926+865819693+887598207+901526961+911190788
856+918391308+923401780+926302394+927459051+926947205+924649319+920994682
843+916711273+912056390+906745394+900607364+893930604+887056958+879985507
829+872402286+864242532+855673118+846508001+836293836+824629058+811192599
816+795545165+777023619+755145516+730529471+705768854+685824724+676445917
802+679953003+692765731+708047494+720453922+728252741+731954041+732604656
789+731325728+728895260+725474016+721260259+716765834+712217490+707385729
775+702140642+696816052+691718592+686824511+681912942+676812274+671690223
762+666632018+661371046+655884776+650709798+646256385+642232565+638136497
748+633878940+629650443+625480676+621265850+616961553+612676349+608544768
735+604495440+600439735+596422139+592571532+588898527+585273103+581729244
721+578180001+574290672+570402260+567176606+564334874+561291023+558099087
708+555121871+552464464+549896068+547278145+544719296+542333048+540088661
694+537878604+535603974+533308341+531098398+529007863+527146330+525681398
681+524544445+523489708+522130703+519481659+516250773+517682636+523928542
667+523806423+517156661+515207300+518248706+520544874+520895575+520741685
654+520984930+521932747+523324935+524591605+525690257+527059686+528918050
640+531076518+533224370+535234027+537253727+539508271+542189736+545292622
627+548336396+551300056+554169625+557064588+560277145+563853729+567518867
613+571266716+575214050+579323712+583610443+588038806+592528611+597194338
600+602103579+607015263+611771187+616675425+621903099+627021484+631872568
586+636835154+642079210+647485290+652914128+658419491+663993513+669493836
573+675008364+680710920+686682841+692673091+698153634+703193661+708520161
559+714360951+720293311+726165872+732147263+738251537+744332593+750332084
546+756208235+761934695+767594865+773252209+779073906+784986027+790550808
532+795847217+801416581+807272721+812854609+817840718+822660794+827962931
519+833748428+839619919+845484690+851275609+856621431+861408820+866064161
505+870829249+875622365+880406470+885153840+889793983+894122299+898060811
492+901712698+905086515+908279253+911506053+915009091+918941570+922796912
478+925577317+927264836+928792891+930305823+931120485+930812705+929891122
465+929519037+929680640+929052174+926846088+922961265+917407406+910373377
451+902224163+893135723+882614466+870273412+856752944+842902547+828956075
438+815770422+805442004+799844307+800800563+810819826+830289991+856030845
424+884159169+911960391+939102674+965102887+986194051+1001856988+1014838575
411+1025811650+1034757502+1041968867+1048515870+1056720455+1066010364
399+1073741823
##END=
