##TITLE=41
##JCAMP-DX=4.24
##DATA TYPE=INFRARED SPECTRUM
##DATE=16/11/2015
##SAMPLING PROCEDURE=Instrument type and / or accessory
##ORIGIN=Default
##XUNITS=1/CM
##YUNITS=TRANSMITTANCE
##RESOLUTION=4
##FIRSTX=3996.3359
##LASTX=399.24785
##DELTAX=-1.9287336
##MAXY=0.79306787
##MINY=0.0014818533
##XFACTOR=1
##YFACTOR=7.3860201e-010
##NPOINTS=1866
##FIRSTY=0.08347331
##XYDATA=(X++(Y..Y))
3996+113015275+113141529+113236664+113337598+113457588+113579736+113775594
3983+114080021+114362116+114506961+114559587+114653844+114887438+115235706
3969+115588442+115861619+116036474+116171979+116349608+116537526+116685377
3956+116851315+117058369+117260793+117462269+117679643+117863657+117966014
3942+118048650+118188199+118305879+118352937+118481985+118740969+118983350
3929+119181577+119393867+119582088+119698809+119777128+119854448+119909969
3915+119967679+120107016+120307403+120509322+120740949+120990926+121157721
3902+121187247+121102230+121015166+121061265+121201046+121276722+121299086
3888+121414859+121550202+121545138+121495891+121509812+121554590+121609173
3875+121661365+121729314+121791825+121760191+121669122+121539186+121311614
3861+121098326+121093484+121357653+121697861+121705830+121381046+121222149
3848+121375498+121627239+121818154+121946899+122074535+122179283+122205439
3834+122207628+122208910+122172877+122147235+122182218+122277746+122400237
3821+122460933+122471051+122463617+122345695+122170537+122110245+122156616
3807+122170769+122160389+122219864+122236670+122139670+122071428+122076986
3794+122109771+122133960+122126758+122104273+122042034+121930487+121864737
3780+121866745+121836422+121753211+121692777+121687491+121673621+121576833
3767+121448147+121390649+121407142+121391184+121277196+121188376+121262347
3753+121415051+121389439+121119298+120918094+120862341+120652301+120293593
3740+120097433+120082514+119990658+119697387+119339314+119099899+119024859
3726+118954257+118691480+118257460+117836119+117532498+117312814+117081671
3713+116659907+115925372+115062091+114273125+113501377+112559597+111335510
3699+109930122+108478302+107021650+105568760+104029553+102351492+100821424
3686+99784922+99185175+98712136+98108163+97339462+96598289+96068912+95628224
3670+94982034+94109847+93235904+92408081+91573953+90760787+89984328+89216142
3655+88482828+87798397+86991979+85906403+84704104+83634602+82680237+81687233
3640+80650050+79657091+78694778+77720884+76717731+75544102+74146627+72797451
3624+71621038+70494763+69353549+68217621+67096391+65961658+64812768+63644767
3609+62369592+60983683+59626084+58356594+57125678+55907013+54702128+53474051
3593+52226577+51019058+49764961+48334113+46888209+45652370+44571181+43529107
3578+42531048+41540434+40445893+39263860+38146410+37088379+35948623+34785383
3562+33729681+32766999+31813275+30853473+29911536+28944025+27963997+27010364
3547+26030670+25098497+24329320+23619464+22885217+22162575+21439645+20738750
3532+20115687+19511967+18819339+18060522+17376087+16828297+16357567+15885666
3516+15376482+14857287+14411308+14072528+13726548+13239350+12661993+12163143
3501+11768696+11404251+11068218+10756879+10449853+10130394+9792981+9496691
3485+9225315+8847447+8414536+8141721+8022946+7878962+7615953+7223967+6799695
3468+6516894+6403630+6323142+6196384+6065024+5956181+5826492+5661543+5495138
3451+5338485+5202703+5096700+4972243+4777636+4537824+4268096+3991102+3813757
3433+3766701+3797254+3846192+3812220+3698411+3641895+3683311+3702413+3573988
3416+3325448+3148783+3137483+3174585+3182955+3123291+2882042+2550161+2457641
3398+2682144+2870434+2719762+2434462+2417829+2690885+2928934+2943712+2817436
3381+2686346+2596934+2566564+2593558+2516987+2245045+2006295+2031226+2270745
3364+2520829+2653713+2674521+2645937+2604059+2529494+2442697+2425369+2461135
3346+2462317+2457682+2484559+2499610+2538044+2636558+2701810+2712235+2740398
3329+2763826+2745004+2745380+2813102+2904100+2977659+3058645+3150374+3174567
3312+3054247+2846199+2709686+2769179+3038376+3388867+3622477+3661302+3602891
3294+3568333+3626321+3782726+3943550+4059089+4199604+4358459+4447514+4485615
3277+4544755+4576042+4524794+4532761+4736231+5036702+5281067+5478878+5700087
3260+5904933+6055226+6232523+6451203+6613358+6718603+6894322+7217194+7611343
3242+7945460+8178549+8380952+8600744+8847412+9199907+9641042+10018892+10357231
3225+10786454+11230774+11570258+11913282+12373738+12881319+13398669+13986229
3209+14625602+15229338+15785387+16327136+16876138+17495868+18209397+18917828
3194+19576936+20280653+21063657+21854541+22620692+23379971+24146849+24968814
3179+25943202+27040430+28058300+28943916+29857149+30846787+31823680+32804421
3163+33886247+35063657+36236553+37329879+38346272+39376441+40546494+41851412
3148+43171256+44439309+45622859+46728833+47871661+49163116+50585037+52018055
3132+53349557+54570038+55789268+57118112+58503699+59791624+60985459+62206827
3117+63517474+64942749+66382959+67697066+68965991+70313336+71697520+73020862
3101+74253135+75457360+76685083+77919833+79140878+80338269+81508797+82655508
3086+83776663+84881371+85982653+87078085+88185572+89318479+90419671+91449958
3071+92433289+93381667+94302889+95174613+95968906+96753726+97565269+98311121
3055+98914137+99397455+99845013+100299269+100685405+100931084+101088498
3042+101229056+101304469+101170206+100793481+100334565+99860497+99257542
3028+98489840+97595006+96537644+95274176+93792013+92064029+90072210+87824977
3013+85364335+82724037+79810960+76483759+72726335+68557718+63928652+58832987
2997+53317489+47362307+40951148+34192208+27397310+21025252+15424655+10795627
2982+7329745+5096653+3862145+3300389+3349146+4091887+5591329+7975278+11396856
2964+15763507+20755021+25973888+30899590+35011780+37997593+39730486+40271655
2949+39799398+38493364+36642188+34628759+32696425+30952743+29486291+28313123
2934+27376706+26627847+26157320+26199969+26818822+27833091+29013660+30146830
2918+31054230+31537919+31484536+31009099+30219434+29112381+27767651+26338205
2903+24986880+23944553+23342507+23071947+22975721+22952595+22956406+22989303
2887+23030089+23077939+23247085+23692701+24448611+25550360+27176347+29445560
2872+32346775+35839724+39845841+44219786+48796948+53441186+58003792+62345226
2856+66452148+70436276+74337118+78055145+81525481+84764094+87807113+90711449
2841+93560244+96398065+99192771+101961503+104822443+107833666+110908409
2828+113951044+116943242+119863113+122629605+125161545+127500169+129796174
2814+132147055+134566450+137105420+139870722+142914608+146195648+149614584
2801+153027901+156279910+159283477+162041273+164572416+166886720+169025866
2787+171012208+172771391+174280488+175676646+176998339+178111020+179032102
2774+179877527+180597526+181154714+181606408+181969616+182272924+182512318
2760+182614705+182615593+182645996+182759702+182978175+183349835+183861852
2747+184493304+185254520+186086328+186942587+187852633+188787615+189703289
2733+190610389+191502560+192410931+193437305+194679711+196195344+197988582
2720+200024847+202209376+204388257+206373600+208018049+209375068+210627622
2706+211924721+213376279+215026418+216875965+218899277+221014264+223158766
2693+225312993+227453158+229526060+231484853+233380943+235287968+237165638
2679+238937289+240617247+242254373+243852460+245382498+246805247+248117437
2666+249330650+250455497+251517116+252479878+253319998+254109721+254898092
2652+255656766+256363329+257095897+257919513+258743978+259479935+260112819
2639+260639644+261107357+261530281+261890442+262267288+262714321+263234932
2625+263881919+264623848+265386335+266210153+267120804+268047534+268936175
2612+269766267+270483785+271062217+271584422+272092464+272509195+272850634
2598+273234480+273676006+274132804+274602998+275081586+275542540+275979163
2585+276411388+276819041+277186223+277564420+277928454+278173901+278307458
2571+278411540+278471379+278425723+278303363+278159153+277989967+277729873
2558+277314111+276793984+276256325+275742573+275324349+275051969+274913287
2544+274940503+275194686+275673737+276320783+277067958+277891252+278811526
2530+279809151+280770723+281607191+282377425+283130410+283807779+284370516
2517+284841880+285274448+285720171+286222705+286791131+287381648+287968069
2503+288610455+289415330+290417716+291570727+292782567+293973406+295175845
2490+296455958+297797099+299136384+300458722+301785075+303082599+304353007
2476+305681115+307081207+308500486+309930799+311352438+312744844+314173886
2463+315672896+317202389+318728796+320181887+321490930+322657297+323702594
2449+324635115+325470614+326207197+326845004+327418876+327920806+328311188
2436+328582701+328745915+328803010+328720737+328496131+328188283+327826468
2422+327413873+327006281+326719597+326654675+326860236+327359623+328131915
2409+329122438+330281865+331534539+332799057+334046082+335269503+336459596
2395+337651463+338830621+339887903+340680248+341124901+341286744+341328788
2382+341373011+341341337+341107632+340692273+340049261+338952396+337453508
2368+335938238+334598065+333649546+333171060+333359069+334994117+338050178
2355+340989690+341664416+340230431+340170875+343570009+347576445+348558595
2341+347407098+346671201+346985403+348034292+349288238+350493482+351620770
2328+352652268+353653221+354916205+356619525+358221768+359222601+359988639
2314+361020540+362176759+363190544+364067422+364910326+365798139+366749503
2301+367641996+368379023+369042936+369685463+370231716+370697755+371149590
2287+371559623+371839771+371988298+372099340+372218290+372280348+372204410
2274+371980268+371606429+371050088+370336061+369540568+368704483+367885829
2260+367238702+366962064+367215662+368034033+369324011+370975441+372851336
2247+374451401+375839953+376978095+377902666+378701388+379416343+380067303
2233+380684532+381230462+381680764+382125094+382615464+383081784+383494158
2220+383913068+384370915+384832474+385260503+385687483+386166474+386687387
2206+387205880+387695442+388166000+388661736+389167115+389592400+389918183
2193+390205069+390503656+390835290+391202068+391596445+392038637+392572947
2179+393197922+393866879+394510415+395100044+395692014+396305813+396901091
2166+397469294+398034028+398602110+399145620+399633487+400050824+400394683
2152+400652114+400820211+400938314+401018973+401023290+400980157+401017480
2139+401240250+401658030+402234586+403015554+404099748+405454286+406948876
2125+408514563+410165953+411905063+413630413+415230841+416698478+418058826
2112+419311803+420461566+421506581+422439182+423273976+424014997+424661197
2098+425276327+425946615+426696876+427473647+428256753+429110390+430092379
2085+431178671+432317701+433504021+434767610+436118032+437515098+438918458
2071+440311570+441655172+442914807+444133850+445361125+446553093+447668680
2058+448723944+449720177+450684008+451668539+452649843+453582726+454488333
2044+455413147+456356643+457262492+458109431+458920418+459718978+460539326
2031+461371659+462178328+462969625+463752852+464531963+465347873+466194086
2017+466992645+467730156+468460081+469186657+469897698+470578679+471209223
2004+471814104+472406517+472943329+473424216+473900503+474353589+474726097
1990+475035579+475316251+475545598+475725638+475913223+476099276+476247036
1977+476406700+476662395+477022395+477438480+477907545+478456259+479095438
1963+479787918+480448442+481024514+481508306+481884687+482114761+482160961
1950+481977733+481494103+480650513+479370098+477562555+475194556+472194278
1936+468462219+464080854+459346389+454781030+451153315+449255994+449568623
1923+452057389+456189635+461347570+466970453+472484594+477626792+482363476
1909+486677498+490592018+494096706+497129304+499746139+502128301+504347733
1896+506346614+508125387+509758821+511278348+512706200+514092009+515446183
1882+516744110+517958956+519092620+520196868+521312294+522401976+523407166
1869+524339525+525284756+526257343+527147012+527978538+528892538+529866780
1855+530773194+531596326+532416110+533277655+534168979+534981540+535613657
1842+536240691+537019196+537808677+538500270+539175077+539872521+540498061
1828+540983750+541388820+541806761+542297897+542823613+543286625+543695407
1815+544126018+544578660+544987039+545347563+545730844+546122397+546433331
1801+546635443+546771582+546917769+547092887+547139208+546953600+546794340
1788+546824561+546841266+546710533+546500271+546243728+545953292+545683232
1774+545357650+544782547+544022804+543340612+542831037+542451347+542095221
1761+541775773+541723318+542059794+542733512+543626974+544557598+545425801
1747+546238039+546970829+547572724+547948581+548020686+547883134+547530236
1734+546760406+545804200+545012822+544238715+543239940+542005322+540699769
1720+539304116+537383433+534789516+532155814+529902328+527739466+525290001
1707+522406253+519313090+516217466+512591769+508260921+503808137+499243181
1693+494688837+490273901+485693168+480884299+475319963+468609052+462131805
1680+456747146+451744881+446406342+441031488+436318206+432147386+428401164
1666+425516811+423394985+421641228+420342212+419725427+419773928+420264700
1653+420922762+421758605+423100271+425097013+427529491+430254947+433430585
1639+437253430+441960014+447614369+453543385+459302973+465341336+471862201
1626+478570651+485258804+491661686+497605188+503671271+510204079+516484298
1612+522157618+527485627+532520414+537170709+541464960+545437180+549037779
1599+552268575+555191987+557853166+560230486+562333751+564230144+565931446
1585+567384920+568570514+569583410+570499549+571236696+571636844+571820919
1572+571985545+572000434+571806675+571566474+571385183+571205062+570651990
1558+569467970+568183561+567174900+566231486+565185986+564045181+562839332
1545+561576994+560212006+558464261+556210129+554020072+551987499+549666992
1531+547108421+544554208+541839243+538919906+535849138+532336904+528440097
1518+524437736+520247467+515876068+511427843+506724448+500883394+493312713
1504+485430896+478135117+470083226+459612455+446280814+431102855+414482073
1491+395566688+376319306+361480001+352841144+348340748+345396152+342789203
1477+339885401+335439133+327894054+317249094+305344640+292627201+277755859
1464+260861950+244026428+228459296+215222719+207406470+206434911+209484295
1450+213844194+219336485+226407275+234050041+240433131+244223092+245113709
1437+243594424+240801846+237809537+234819085+231888148+229393370+227622727
1423+226591955+226226690+226480489+227392714+228963102+231084887+233722059
1410+236878792+240524503+244560374+248743784+252640510+255603828+256512017
1396+254245094+249377415+243504061+236005142+224622510+209967643+196424247
1383+188039976+186832009+193214232+206346102+225662461+251123687+281679800
1369+314859003+345996676+369747480+384242643+391024772+393071467+393152408
1356+392556524+391291120+388952011+385254410+380353544+374850983+369328893
1342+364034537+359013590+354541478+351079035+348845038+347806519+347929666
1329+349253699+351774986+355435828+360160367+365843694+372351888+379563700
1315+387487440+396257635+405916168+416332790+427391253+438973939+450828581
1302+462561448+473710093+483914314+492939358+500526461+506311308+509875068
1288+510740528+508351587+502220904+492266648+479434577+466097771+455740060
1275+451919151+456819614+470221625+489681003+511922611+534197103+554752781
1261+572796452+588285790+601543913+612904152+622536538+630686478+638268578
1248+646136192+653350344+658200048+661712685+666499605+671925541+675830216
1234+678664011+681893838+686057759+691103078+696695134+702423007+707975197
1221+713260515+718296957+723108167+727616351+731631382+735087974+738115003
1207+740891865+743454390+745743990+747762037+749576237+751181184+752552507
1194+753702471+754677964+755483988+755989731+756020316+755617626+754989786
1180+754180937+752951403+751090881+748572903+745288846+740937945+735293273
1167+728359672+720195327+710939766+701154172+691888846+684085550+677999775
1153+673348794+669603621+666113257+662282947+657733646+652293426+645889777
1140+638469116+629989115+620580952+610531835+600079262+589522183+579250497
1126+569356847+559375558+548472804+535756455+520380338+501406204+477690302
1113+448201134+412366299+369960042+321162363+267303911+211528710+158386312
1099+112501302+77075204+52907593+38595975+31819125+30642134+34060800+41791132
1084+53754506+69580425+88335128+108541166+128255827+145342284+158032638
1070+164899914+164476051+155835550+138439631+111930617+79182938+47563919
1057+24104600+10766413+4879084+2836886+2584879+3778405+7549392+16634697
1042+35074350+66664070+112956213+171732328+237663673+304939550+369271113
1028+430002762+487920751+539243712+578481917+605937343+628264733+653694769
1015+685714545+721497651+756701579+788993554+817825225+843581124+866778130
1001+887298018+904825173+919652777+932496712+943809620+953519921+961461133
988+967784163+972778964+976325213+977600261+975245537+967382281+951509702
974+926508180+897601217+877711509+878589356+900175524+932002348+963339489
961+989161642+1008905526+1023429458+1033750895+1040912794+1045946573+1049684967
947+1052467881+1054299109+1055350217+1055981043+1056234197+1055887593
935+1054910083+1053408270+1051366013+1048572366+1044873999+1040344026
924+1035079286+1028990929+1021758580+1013066542+1002826531+991017645+977480584
910+961972847+944287682+924282575+901713167+875748338+844603665+805661424
897+755558555+690194969+606567322+506412262+397980887+294379061+209145277
883+151892503+129039599+147453700+212556758+319615681+449552443+577106802
870+683791724+763694010+819503931+856511972+880012568+895001409+905540088
856+913567487+919271392+922618879+923895864+923279483+920795317+916826689
843+912093434+906994370+901304184+894813380+887696511+880184861+872344443
829+863924361+854762089+845130631+835156766+824282942+811721616+797115290
816+780214522+760373799+736979968+710676928+684374534+663344303+653315926
802+656553460+669613063+685632635+698982474+707431123+711152892+711509341
789+710006398+707414821+703899723+699708525+695133280+690297860+685259159
775+679847627+674089169+668432917+663131661+657938179+652529592+646951941
762+641319092+635578831+629791079+624381283+619738048+615595593+611406171
748+607011854+602577066+598184564+593771605+589284604+584859581+580634611
735+576458504+572203312+567938437+563803204+559814360+555944709+552291735
721+548624397+544617759+540611807+537194879+534187943+531135211+527982573
708+524894171+521995615+519270884+516613821+513930247+511295860+508863019
694+506584555+504274377+501939909+499749085+497790151+495998021+494355751
681+493018322+491900597+490382603+487551915+484433211+485989899+492107267
667+492144187+485957579+483988436+486464129+488216029+488365081+488284260
654+488656688+489577668+490794331+491983112+493281966+494981776+496976662
640+499026100+501099829+503217903+505450327+507972785+510835793+513802984
627+516457264+519231665+522248728+525362671+528683446+532360185+536194773
613+540070113+544030793+548062609+552219308+556566779+561119550+565963645
600+570987739+575858102+580606608+585722014+591273801+596615891+601620013
586+606773710+612197791+617766969+623336752+628894995+634607535+640465253
573+646223186+651917044+657918569+664000025+669616412+675110338+681163671
559+687638577+694053847+700306103+706423270+712442225+718373298+724337297
546+730459628+736626667+742768850+749015780+755565253+762130138+768142476
532+773673120+779218290+784985705+790812274+796462110+801899385+807245308
519+812615442+818301674+824489371+830593787+836127336+841492385+847084037
505+852721446+858120551+863201457+868134200+872946298+877198343+880794786
492+884437551+888612206+892786133+896378623+899835699+903762525+907900623
478+911543226+914236565+915835944+916413508+916495660+916567725+916571275
465+916380422+915845547+914765629+913201597+910702905+906103773+898861174
451+889402978+878373566+865874459+852178744+838186539+824027448+809329448
438+795233464+784282492+779042043+781681070+793495686+813780336+840129616
424+869585173+899016117+927808810+956241020+979974111+996839129+1010097616
411+1021937813+1032315497+1040567240+1047266006+1054879094+1064075180
399+1073741823
##END=
