##TITLE=41
##JCAMP-DX=4.24
##DATA TYPE=INFRARED SPECTRUM
##DATE=16/11/2015
##SAMPLING PROCEDURE=Instrument type and / or accessory
##ORIGIN=Default
##XUNITS=1/CM
##YUNITS=TRANSMITTANCE
##RESOLUTION=4
##FIRSTX=3996.3359
##LASTX=399.24785
##DELTAX=-1.9287336
##MAXY=0.75613558
##MINY=0.0012532128
##XFACTOR=1
##YFACTOR=7.0420614e-010
##NPOINTS=1866
##FIRSTY=0.072902113
##XYDATA=(X++(Y..Y))
3996+103523825+103616422+103743606+103899123+104016721+104112217+104275214
3983+104540087+104814144+104970793+105040749+105210771+105518473+105790329
3969+106005348+106272592+106521330+106652555+106732678+106847166+107025525
3956+107279078+107536227+107699955+107813225+107985755+108238239+108497991
3942+108702791+108880113+109057827+109200511+109294050+109377696+109502213
3929+109708430+109985418+110228866+110377548+110506911+110657297+110775477
3915+110842682+110895963+110974955+111119479+111358134+111642634+111845338
3902+111869323+111736850+111605423+111634170+111781762+111913400+112030681
3888+112174591+112282381+112324543+112335070+112265993+112145750+112137656
3875+112255275+112389283+112432450+112305763+112126780+112031009+111961772
3861+111890811+111922626+112153071+112451970+112469311+112202554+112020725
3848+112032987+112200703+112493592+112765046+112885353+112881375+112854173
3834+112871514+112913189+112941829+112948664+112936878+112952960+112982584
3821+112939089+112930974+113027782+113031506+112938560+112933111+112997206
3807+112998041+112966428+113016493+113028078+112904534+112823004+112839001
3794+112857612+112849465+112808848+112758899+112742585+112739495+112716579
3780+112682987+112643534+112598282+112559073+112524243+112453451+112355088
3767+112335716+112399366+112448627+112441728+112350486+112221451+112214119
3753+112350898+112368006+112101017+111833658+111693111+111454646+111151928
3740+111003341+110932010+110725486+110379813+110060917+109853738+109699130
3726+109508170+109267314+109011645+108736287+108430628+108140108+107897454
3713+107595032+107047691+106237804+105299369+104337542+103317979+102113041
3699+100726560+99253089+97732049+96168118+94536728+92848502+91305741+90199178
3684+89583193+89227500+88791356+88066666+87177915+86494980+86082641+85538612
3668+84699545+83871329+83135487+82300155+81389451+80599746+79936685+79293129
3653+78656460+77926263+76940535+75813816+74792301+73863383+72865244+71771081
3638+70671177+69645002+68753881+67956638+66989086+65705460+64421505+63377359
3622+62458306+61436289+60221485+58989553+57899346+56916470+55939814+54842265
3607+53571964+52240620+50945429+49679963+48456955+47337981+46278044+45175009
3591+44080232+42990385+41742977+40438285+39332293+38371669+37385594+36358313
3576+35333044+34344290+33429989+32588251+31735213+30756918+29669208+28608221
3560+27667160+26830231+26058919+25301817+24480403+23634962+22844189+22061813
3545+21274581+20565154+19932723+19269217+18537935+17871259+17365318+16896381
3530+16332710+15704915+15085898+14531702+14077811+13661292+13165454+12622429
3514+12184105+11876783+11591186+11238004+10801702+10355647+10023824+9788353
3499+9492343+9108715+8765105+8519562+8310480+8094291+7895941+7744472+7556271
3481+7244237+6963864+6843398+6743291+6528869+6177972+5754280+5448183+5360770
3464+5350204+5254432+5112875+5035110+4982069+4880505+4766952+4679929+4606852
3447+4508985+4344031+4110280+3838772+3533167+3239827+3104460+3159450+3259592
3429+3319274+3353214+3355061+3308069+3217599+3154370+3186265+3154747+2925266
3412+2692271+2594372+2552412+2527433+2444442+2233779+2135489+2330667+2541096
3395+2473852+2263728+2234451+2441892+2648303+2693237+2595850+2436460+2343862
3377+2373546+2428995+2361373+2119763+1848330+1779611+1961939+2196711+2321638
3360+2382717+2409615+2375195+2292375+2156055+2042505+2060015+2135290+2165256
3342+2146068+2111041+2155194+2319252+2489466+2567257+2556974+2481347+2398285
3325+2407309+2507362+2599710+2659787+2715734+2735986+2645736+2452278+2267096
3308+2164608+2204960+2430598+2713483+2872336+2883352+2815434+2779945+2906386
3290+3154871+3324522+3348135+3370854+3518159+3749754+3926443+3949598+3850017
3273+3739477+3766599+4029392+4381538+4585500+4642857+4719075+4887676+5058880
3256+5173757+5295310+5427491+5554079+5752570+6038332+6331218+6579618+6773288
3238+6940175+7087106+7209940+7424546+7793093+8188984+8566622+8947270+9226802
3221+9422061+9731363+10173393+10594445+10993425+11455241+11943342+12425570
3206+12910607+13366849+13818305+14329414+14905347+15511036+16105221+16669858
3190+17259801+17933571+18609653+19203622+19826536+20606602+21468100+22260317
3175+22998473+23785409+24609986+25411956+26210220+27050982+27948768+28900880
3159+29880435+30848523+31739752+32559761+33497545+34629427+35777380+36830292
3144+37831091+38812203+39800968+40885919+42108726+43376096+44569023+45668878
3128+46768755+47936884+49077331+50091382+51082405+52167596+53339640+54585840
3113+55859770+57079245+58225283+59327466+60428004+61541302+62680780+63881802
3098+65089157+66230894+67322921+68365030+69379621+70402284+71400824+72391636
3082+73397350+74395510+75451939+76618222+77764508+78735419+79542269+80284639
3067+81054860+81898772+82750641+83523433+84201391+84805986+85341271+85773157
3051+86125533+86470185+86803200+87092174+87314907+87435182+87437266+87312611
3036+87059323+86707820+86270618+85710195+84995138+84129272+83098398+81874502
3020+80444901+78793028+76927574+74888114+72706331+70343829+67680931+64663165
3005+61297430+57529889+53335863+48767688+43870682+38683049+33228448+27522672
2990+21837156+16638216+12182512+8554806+5824203+3988630+2957320+2572621+2695483
2972+3257257+4342582+6203971+9002890+12592629+16675716+20948349+25019693
2957+28463488+30976463+32434374+32897738+32491276+31379883+29852390+28188939
2941+26594834+25208077+24037319+23010640+22053749+21231290+20750559+20745905
2926+21248705+22184593+23319979+24354042+25062846+25382837+25316938+24900106
2910+24229163+23333387+22235168+21062168+19959128+19114278+18667964+18496773
2895+18384356+18300258+18316908+18384310+18409774+18463129+18660710+19044606
2880+19662624+20598767+21952902+23812150+26223604+29177000+32581096+36279726
2864+40144896+44113678+48084101+51925116+55609254+59159274+62533986+65736930
2849+68844420+71818120+74558195+77094708+79556970+82058246+84624733+87206339
2833+89803069+92501834+95324439+98164204+100929031+103626717+106241073
2820+108680244+110912352+113012854+115113186+117321277+119683044+122271913
2806+125156200+128273672+131476981+134606854+137567423+140398112+143115751
2793+145600977+147800371+149827172+151739739+153447856+154910874+156200505
2779+157391646+158477970+159411580+160238945+161010161+161663938+162134615
2766+162432551+162638218+162814239+162965546+163090137+163167912+163220410
2752+163378964+163719262+164187496+164761361+165463013+166291013+167204637
2739+168127773+169011054+169854278+170702920+171584942+172503486+173532000
2725+174750596+176218365+177987444+180011293+182157003+184246533+186100889
2712+187658937+188998104+190237395+191495984+192914037+194570883+196436792
2698+198451287+200541304+202641435+204731579+206803758+208854374+210846123
2685+212735054+214581347+216428190+218212315+219904964+221538110+223139262
2671+224679049+226105524+227443315+228720779+229887681+230893279+231774390
2658+232609712+233429162+234250539+235086833+235908189+236699370+237478256
2644+238251239+238999444+239665356+240178682+240563714+240932748+241339871
2631+241769529+242240111+242787907+243416324+244134883+244963559+245893171
2617+246852935+247743061+248541965+249291249+249990594+250589810+251085340
2604+251550844+252010021+252432527+252856578+253339708+253860440+254335953
2590+254740219+255166343+255654997+256122235+256519921+256880406+257226313
2577+257531909+257790592+258001094+258117729+258140096+258116587+258056978
2563+257930906+257708067+257358691+256872302+256320147+255790718+255303292
2550+254860134+254513191+254325034+254336524+254610210+255162958+255873666
2536+256616094+257417241+258332760+259304649+260224547+261038285+261804328
2523+262547750+263203442+263788987+264347131+264864541+265355564+265866964
2509+266411861+266967423+267564988+268278764+269128686+270100490+271178392
2496+272319690+273499987+274743658+276054724+277401953+278758366+280105109
2482+281437061+282789940+284184674+285585904+286988530+288419406+289862830
2469+291288035+292723904+294233898+295820428+297411508+298937837+300406399
2455+301804688+303050243+304161070+305184188+306045557+306726472+307326428
2442+307879620+308349779+308747697+309077712+309279623+309322261+309256833
2428+309116223+308841775+308406129+307883534+307365955+306984881+306888708
2415+307113895+307632955+308436451+309483332+310671310+311904210+313161699
2401+314440052+315710004+316952511+318193474+319411774+320502181+321343279
2388+321884304+322190154+322359753+322418176+322289861+321980625+321563726
2374+320944684+319983756+318762557+317328634+315613788+314106164+313361959
2361+313673819+315402271+318294683+321227110+322317877+321357118+321458200
2347+324710041+328464605+329284183+328182772+327729732+328478423+329888985
2334+331185281+332261681+333438718+334592437+335527698+336654544+338334645
2320+339969187+340966427+341730607+342804108+343982690+344939153+345764317
2307+346641832+347580796+348515147+349324124+349967204+350579750+351223614
2293+351803171+352297876+352759656+353188341+353512198+353698217+353796993
2280+353856834+353850804+353707062+353399223+352949166+352376634+351681288
2266+350854981+349929285+349018908+348299164+347952687+348152503+348981307
2253+350350860+352092601+354025079+355651306+357016818+358127899+359099196
2239+359974467+360741991+361454456+362123839+362662747+363080662+363524434
2226+364047557+364566406+365009839+365379001+365745538+366156639+366601639
2212+367076601+367553933+368023902+368521760+369044248+369539567+369996035
2199+370460206+370906179+371258793+371554020+371863467+372175708+372502760
2185+372912718+373414808+373950501+374489240+375086466+375763847+376451005
2172+377111881+377756802+378377474+378949731+379489317+380036520+380562352
2158+381018185+381414855+381748679+381980722+382128970+382238369+382309721
2145+382323475+382295544+382314122+382481796+382844271+383412126+384234497
2131+385369955+386770381+388325065+389979753+391712775+393465223+395183518
2118+396841506+398405205+399885913+401291756+402553329+403634151+404571633
2104+405408012+406171219+406883388+407571857+408249407+408932460+409688345
2091+410565817+411516166+412495842+413525202+414643181+415871744+417205981
2077+418633704+420113904+421596982+423077859+424534741+425898856+427174352
2064+428434951+429663472+430810314+431919321+433029641+434101575+435117266
2050+436131603+437150425+438128239+439093696+440070579+441004464+441880117
2037+442729827+443540010+444305333+445102269+445986851+446901735+447768923
2023+448603990+449459752+450333712+451165774+451903547+452582959+453282813
2010+454017199+454724840+455364852+455974478+456604545+457230972+457788417
1996+458273579+458700592+459053291+459343440+459580688+459781499+459977189
1983+460148925+460275040+460391252+460548134+460788049+461129109+461562470
1969+462069893+462617350+463195447+463817643+464471113+465117092+465685287
1956+466093467+466297748+466306551+466099858+465579316+464668030+463293208
1942+461325518+458721414+455442425+451347033+446524913+441416539+436594165
1929+432757097+430723557+431029195+433600967+437896069+443301999+449177094
1915+454922349+460341525+465405379+470029566+474165713+477835362+481117143
1902+484066540+486691847+489012701+491068586+492913377+494647246+496326606
1888+497910322+499364030+500700975+501952052+503160090+504363218+505562410
1875+506735237+507872768+508959007+509952522+510901812+511919492+512951688
1861+513902840+514819840+515750382+516646010+517491868+518368621+519323794
1848+520306856+521174256+521816384+522418985+523180414+523998934+524748810
1834+525459879+526145978+526743246+527259048+527760122+528217183+528621343
1821+529034306+529455860+529886513+530350345+530808930+531196712+531523257
1807+531858900+532233352+532608015+532883732+532998463+533068842+533253782
1794+533423149+533304906+533034689+532900322+532841624+532689820+532424005
1780+532058991+531622879+531200987+530757045+530124227+529361909+528662394
1767+528071643+527599728+527189642+526825052+526728730+527049858+527764354
1753+528791852+529886767+530827128+531635998+532350071+532887753+533152298
1740+533175024+533161820+533051110+532380754+531226590+530122619+529108452
1726+527934863+526525127+525083481+523685382+521839745+519203392+516303553
1713+513662714+511183751+508544140+505488434+502208387+499015267+495336985
1699+490814156+485998215+480946677+475896408+471134341+466358436+461412191
1686+455657202+448616136+441744607+436038836+430827327+425331466+419793792
1672+414901886+410491884+406448588+403347387+401129626+399281153+397887202
1659+397354599+397719994+398521163+399221566+399970511+401344106+403447983
1645+405990850+408902497+412338367+416455132+421482505+427403348+433523690
1632+439544366+445942076+452806327+459851920+466953334+473793716+480098152
1618+486403984+493046559+499384217+505164894+510675694+515949965+520863412
1605+525393562+529544903+533270880+536578646+539540697+542237399+544683944
1591+546859808+548758176+550412187+551862339+553088490+554118781+555039463
1578+555800977+556190494+556310219+556438704+556448861+556199593+555851677
1564+555638043+555639948+555348487+554160932+552625123+551361646+550204436
1551+548960384+547673503+546435461+545221202+543832711+541882373+539298794
1537+536833754+534664238+532225015+529507788+526877021+524174226+521175949
1524+517844356+513965009+509736095+505504558+501098660+496477479+491852869
1510+487108534+481162553+473143039+464597228+456758930+448333732+437500331
1497+423707968+408044238+391012118+371696429+352025332+336852117+328009512
1483+323382892+320367602+317776808+314991127+310683117+303175553+292464585
1470+280534619+267951818+253353907+236823072+220486679+205532197+192756711
1456+184981893+183740698+186480122+190576784+195797816+202551102+209868182
1443+216009112+219722224+220669419+219203079+216420255+213478815+210578657
1429+207719001+205270445+203495653+202406112+201990018+202164590+202883614
1416+204195210+206043852+208373846+211184369+214494632+218309546+222439239
1402+226386616+229431953+230379995+228048477+223144700+217499702+210532232
1389+199889865+186064387+173223642+165202615+163925120+169831119+182198329
1375+200536607+224858149+254339952+286770919+317547346+341254841+355887751
1362+362782260+364842504+364961425+364493911+363348931+361043355+357350007
1348+352473908+346968800+341388340+336020986+330938701+326448417+323037050
1335+320833064+319746783+319829434+321145410+323622934+327187501+331806736
1321+337412778+343876656+351079914+359005329+367742598+377382478+387869697
1308+399059352+410771283+422730958+434578654+445936363+456464337+465809666
1294+473602935+479497751+483119324+483974663+481457865+475053977+464738536
1281+451527022+437810836+427135163+423131649+427989486+441478411+461157887
1267+483746386+506450124+527460620+545998925+562017090+575724176+587426585
1254+597354710+605749056+613628532+622011071+629790035+634937176+638656213
1240+643972635+650035336+654201065+656989686+660181199+664453618+669776853
1227+675747254+681880503+687873841+693668526+699296639+704747767+709837351
1213+714347823+718318074+721891951+725125826+727969761+730425955+732631697
1200+734693634+736551333+738097214+739369621+740466483+741360206+741889296
1186+741978085+741716798+741191940+740392845+739130934+737206115+734557701
1173+731083023+726521894+720552763+713075162+704253295+694358688+683971133
1159+674117027+665748116+659195471+654211899+650239320+646598703+642649190
1146+637969690+632345471+625606024+617703907+608732479+598845109+588291742
1132+577327402+566287816+555616714+545346852+534931746+523626091+510570105
1119+494737304+475078523+450643878+420620099+384448893+342015170+293812788
1105+241483739+188319327+138719608+96838982+65193578+43992698+31613719+25801399
1090+24767534+27589367+33985897+43944579+57293429+73349835+90896862+108271672
1074+123561946+135088154+141343847+140809276+132882687+117516998+94458287
1061+66161785+39176027+19537504+8573912+3790477+2173642+1998873+2944937+5957226
1043+13301133+28566623+55577064+96410159+149621177+210700900+274344576
1030+336202540+395609685+453579225+505904613+546293687+574834643+598319658
1016+625032963+658483048+695871983+732835766+766968650+797655972+825168498
1003+849945261+871956636+890967491+907210758+921311933+933693797+944309967
989+953023833+959979707+965441161+969295793+970743237+968434233+960494578
976+944223803+918215599+888002605+867360720+868561351+891377830+924889535
962+958007320+985389161+1006272019+1021533028+1032273451+1039689263+1044963154
949+1048937637+1051902523+1053855358+1054983960+1055618682+1055811663
937+1055397684+1054316989+1052621463+1050324055+1047251759+1043187895
926+1038150661+1032297996+1025582418+1017646571+1008102971+996788428+983699305
912+968749266+951712999+932392104+910695339+886356424+858367454+824865230
899+783342349+730495869+662318170+576241121+474868486+367226458+266469607
885+185427295+132206247+111285185+128292886+189085623+291124403+417923059
872+545340080+654132675+736989604+795654892+835069030+860491264+876874019
858+888327711+897015846+903176011+906674135+907936638+907339074+904782918
845+900596325+895602512+890099330+883841658+876774396+869161794+861201316
831+852863426+843926023+834314540+824210786+813565500+801897412+788605066
818+773275667+755512758+734609755+710019626+682579594+655331106+633542378
804+623140096+626690105+640465920+657059558+670715648+679254984+682923321
791+683201324+681614223+678921118+675282236+670894029+666107882+661137683
777+655945260+650286635+644227658+638271647+632773966+627545697+622148824
764+616489098+610784894+605113276+599318548+593598939+588536058+584207946
750+580083437+575768697+571280402+566675513+562011292+557429045+553012398
737+548756780+544491471+540067079+535664694+531553347+527666509+523891483
723+520280829+516500046+512276508+508152718+504779736+501842569+498827068
710+495766834+492833137+489998175+487153267+484345009+481661088+479067225
696+476557665+474252766+472104876+469917967+467703761+465636830+463773291
683+462121143+460749071+459587756+458217123+455756104+452941244+454296472
669+459703587+459426938+453651678+452033047+454618446+456555115+456943193
656+456911580+457135074+457935904+459201159+460488081+461753886+463326091
642+465269277+467456821+469834892+472269037+474653160+477060897+479672831
629+482617276+485584321+488465370+491269397+494303011+497917771+501965552
615+505891917+509686792+513745662+518150332+522604645+526894457+531199251
602+535861484+540971552+546206803+551347596+556569220+561919752+567237444
588+572544429+577957046+583589559+589499907+595487320+601421874+607351139
575+613260471+619174119+625203810+631364018+637499468+643459499+649218509
561+655092418+661515859+668363477+675062593+681339055+687476282+693861592
548+700633288+707406211+713627360+719391828+725281396+731713174+738411740
534+744824135+750908292+756923298+762999330+768991314+774724720+780435018
521+786447908+792640914+798782543+804926626+811089923+817093502+822906809
507+828767937+834673249+840341565+845665902+850935136+856379832+861400561
494+865536031+869427058+873608150+877784924+881705068+885646371+889832287
480+893940757+897349839+899814666+901837161+903951491+905764414+906346574
467+905739191+905108109+904936542+904142187+901360887+896354377+890147829
453+883324333+874796931+863429234+849851225+835535655+820776143+805093538
440+789423882+775938216+766141201+760954575+762198374+772425873+792632111
426+820597382+851874904+882894950+914273195+945405982+970249103+988454346
413+1004389689+1018914238+1031448456+1041653525+1049600544+1056619137
401+1064259333+1073741823
##END=
