##TITLE=41
##JCAMP-DX=4.24
##DATA TYPE=INFRARED SPECTRUM
##DATE=16/11/2015
##SAMPLING PROCEDURE=Instrument type and / or accessory
##ORIGIN=Default
##XUNITS=1/CM
##YUNITS=TRANSMITTANCE
##RESOLUTION=4
##FIRSTX=3996.3359
##LASTX=399.24785
##DELTAX=-1.9287336
##MAXY=0.90713167
##MINY=0.0041512763
##XFACTOR=1
##YFACTOR=8.448322e-010
##NPOINTS=1866
##FIRSTY=0.098748371
##XYDATA=(X++(Y..Y))
3996+116885188+116980010+117049706+117102479+117206403+117412035+117620093
3983+117710188+117749089+117849149+118008253+118198135+118400637+118594646
3969+118779854+118939690+119029291+119066084+119179479+119419065+119640783
3956+119783581+119946838+120135794+120251852+120326726+120448393+120560209
3942+120687344+120896107+121102269+121245410+121292575+121276356+121318123
3929+121419392+121479890+121523209+121663096+121805823+121833259+121867159
3915+122065128+122317343+122486544+122654026+122876345+123041842+123088380
3902+123018630+122854809+122816658+122991953+123127298+123055794+123063696
3888+123204403+123189975+123157689+123185936+123173236+123238030+123343972
3875+123424516+123523175+123511586+123485323+123486770+123341741+123185609
3861+123185512+123437842+123850033+123968296+123613746+123304613+123274496
3848+123424737+123606470+123735016+123860978+123919113+123838516+123819211
3834+123935251+124040136+124095660+124105529+124129049+124209258+124160921
3821+124100528+124169396+124040841+123857186+123903847+124073066+124136739
3807+124039933+124068604+124114648+124030867+124028548+124033054+124024332
3794+124074512+124085986+124029632+123949609+123861286+123798654+123759198
3780+123671528+123628112+123730457+123921794+124050295+123968058+123764207
3767+123561334+123475922+123540028+123564906+123512601+123525617+123635167
3753+123643228+123448769+123328583+123349176+123041966+122648700+122699726
3740+122899336+122840372+122474551+122075103+121826283+121746850+121643201
3726+121448847+121242888+120961835+120604136+120308171+120194432+120091876
3713+119733806+119193104+118627824+118023792+117317496+116408768+115343837
3699+114270882+113178268+112101547+111087017+109932812+108473734+107124444
3686+106324075+105944681+105763865+105551301+104977483+104078227+103496913
3672+103192137+102648648+101994375+101368905+100697919+100016651+99432806
3659+98891064+98271052+97712941+97185318+96410048+95424841+94476975+93683714
3643+92943182+92121559+91209639+90278607+89370602+88543097+87727463+86638730
3628+85402587+84339253+83398662+82436077+81356586+80229085+79174420+78154334
3613+77107897+75957317+74700767+73490010+72349863+71156819+69868856+68567215
3597+67315683+66127754+65026458+63938308+62656703+61202317+59884797+58764735
3582+57647746+56499357+55392360+54261622+53059957+51921940+50891518+49823858
3566+48694025+47579871+46431085+45237830+44105152+43060196+42036649+41028425
3551+40065778+39078142+38007929+36959602+36068100+35282133+34416847+33449902
3535+32543522+31750321+30967692+30117998+29209319+28319805+27538886+26855929
3520+26211463+25593749+24956181+24252585+23564341+22973370+22419125+21793101
3505+21107694+20516219+20058826+19592033+19085853+18617524+18186067+17755990
3489+17296303+16839570+16462897+16082521+15581090+15070410+14679551+14352221
3474+13968702+13462515+12907350+12462570+12192243+12019799+11811990+11534674
3458+11267826+11012745+10705292+10382648+10120092+9897229+9679552+9478385
3443+9279427+9051020+8730827+8344053+8072722+7941568+7798050+7652000+7619043
3425+7610120+7463186+7249097+7108295+7005211+6821367+6578708+6386475+6260408
3408+6226674+6268114+6162991+5844432+5610839+5645885+5766771+5740207+5580646
3391+5517159+5640535+5756109+5704386+5574405+5496011+5479055+5476522+5421139
3373+5254451+5031082+4913729+4989687+5179563+5364125+5473643+5494845+5483876
3356+5500248+5492834+5404380+5355948+5431866+5520395+5569803+5636899+5713349
3339+5781615+5877170+5993372+6088978+6152607+6193739+6237988+6307287+6391187
3321+6493463+6652658+6829670+6926679+6965190+7018477+7043635+7024160+7119518
3304+7412431+7737345+7962026+8120165+8220794+8277050+8413512+8703570+9044065
3287+9299525+9479334+9699953+9989260+10243355+10409424+10519086+10605472
3271+10779564+11129367+11562029+11954065+12273634+12577623+12911603+13223378
3256+13528398+13911381+14333602+14703224+15041890+15440839+15938882+16499709
3240+17026427+17460255+17858331+18316933+18912641+19620512+20323067+20973667
3225+21595914+22216257+22864244+23550189+24274247+25041244+25824169+26605390
3209+27438969+28347254+29273838+30180371+31081913+32014669+32999659+34025217
3194+35055411+36093724+37179044+38300521+39429284+40575186+41754944+42958416
3179+44167965+45393406+46640321+47877389+49104527+50393818+51759022+53125747
3163+54487045+55876603+57273846+58646119+59968966+61286693+62725835+64300121
3148+65881210+67399331+68852527+70227004+71586979+73055665+74618257+76150250
3132+77623307+79089387+80561632+82029644+83463129+84830860+86167530+87526619
3117+88950430+90455128+91958637+93371071+94726455+96111904+97530608+98905095
3101+100195280+101446300+102723195+104021441+105268096+106455831+107648363
3088+108818399+109917899+111002055+112079791+113105485+114152478+115291364
3074+116416475+117405933+118291431+119158428+120027373+120865885+121630598
3061+122302527+122904654+123491805+124082829+124612507+125018587+125303388
3047+125481991+125567967+125589353+125573982+125513192+125346945+125024461
3034+124538701+123882567+123079411+122170348+121124308+119884982+118443630
3020+116804159+114947008+112842423+110467694+107824999+104922938+101740344
3007+98231217+94318700+89889081+84854054+79216839+73039090+66323214+58944933
2991+50863028+42493655+34464448+27071034+20514025+15189392+11372842+9025224
2976+7958829+8087462+9502701+12350101+16673303+22357588+29092967+36380979
2961+43593244+50037904+55177383+58800385+60889895+61490306+60742503+58986343
2945+56693878+54245175+51900871+49810246+47989077+46441060+45150045+44111488
2930+43540188+43690045+44544440+45900887+47498502+49032591+50203759+50802371
2914+50769207+50152146+49044302+47562061+45833558+43987175+42214273+40849765
2899+40093377+39755018+39603322+39582906+39618129+39638739+39677424+39814352
2883+40175989+40898658+42044780+43679211+45950877+49000489+52841921+57345876
2868+62361950+67771542+73353695+78818247+84041762+89059212+93858163+98377568
2853+102623893+106651428+110448980+113955214+117196322+120255671+123179604
2839+126016669+128846327+131722875+134666174+137687875+140732443+143716106
2826+146621422+149444166+152150930+154702586+157077210+159270796+161357197
2812+163533058+165952675+168628574+171514205+174532916+177601313+180650202
2799+183572680+186269955+188764640+191112595+193260376+195136531+196793958
2785+198333015+199751658+200979493+202020612+202944491+203769651+204481221
2772+205075516+205552325+205942442+206256822+206464757+206575294+206659604
2758+206783564+206916360+207016703+207151669+207395303+207780993+208327807
2745+209002743+209757262+210557287+211358458+212150194+212959867+213782468
2731+214604435+215457568+216384322+217438564+218717866+220278248+222074962
2718+223993026+225861703+227519905+228895405+230040430+231080491+232118135
2704+233295120+234741807+236390203+238101549+239848188+241633437+243422320
2691+245161763+246801234+248372710+249956745+251543937+253049711+254424789
2677+255747639+257108835+258436096+259648498+260777701+261825328+262753670
2664+263617315+264481490+265292626+265996242+266616800+267212224+267843013
2650+268501951+269138754+269755555+270382445+271004997+271561494+271994278
2637+272302502+272569488+272895298+273284798+273689185+274114772+274621583
2623+275245651+275948209+276677681+277411776+278119025+278790856+279432598
2610+280012712+280524902+280978199+281365124+281728185+282094580+282460180
2596+282845095+283219850+283568236+283945319+284363463+284768114+285123238
2583+285449153+285735753+285976018+286245792+286557597+286813136+286961930
2569+287040085+287073949+287052167+286978105+286865186+286689335+286441380
2556+286156984+285830911+285484765+285225327+285078737+285014853+285103695
2542+285396874+285839271+286401059+287083756+287841609+288611737+289366062
2529+290097969+290811780+291525925+292192836+292736069+293190971+293640211
2515+294104497+294550703+294953979+295352809+295823533+296398549+297062903
2502+297813048+298622703+299465870+300374969+301367142+302427328+303527093
2488+304608057+305624253+306601152+307612586+308673336+309733452+310792332
2475+311896577+313033876+314147294+315241591+316358995+317508711+318694268
2461+319894464+321059666+322185254+323247132+324163956+324927012+325610803
2448+326270500+326889982+327410797+327818976+328148101+328436553+328719820
2434+328980157+329137065+329151598+329058575+328888228+328643341+328360639
2421+328142281+328049611+328055643+328229412+328697067+329411971+330239617
2407+331107231+332001548+332946628+333942823+334949284+335929816+336900048
2394+337845022+338694504+339378824+339863975+340147241+340255115+340248625
2380+340146959+339913502+339530475+338994844+338304528+337479280+336550533
2367+335548553+334565798+333706439+333326093+334017750+335803105+337967042
2353+339576369+340608581+341986110+343920647+345321247+345518969+345356487
2340+345633016+346291690+347066210+347764111+348440811+349252301+350147360
2326+350941529+351677069+352581617+353666778+354731338+355640366+356358621
2313+356920110+357513981+358310232+359256864+360185823+360994490+361696095
2299+362337660+362931109+363471749+363988473+364511545+365010701+365424242
2286+365738058+365995467+366220951+366402305+366505770+366488308+366349568
2272+366149517+365924915+365630748+365218018+364705811+364176317+363770678
2259+363668907+364013131+364808146+365926961+367257184+368718388+369961586
2245+371040291+371966534+372776789+373477618+374067750+374585673+375103384
2232+375652455+376193554+376650308+377011711+377363589+377767112+378220197
2218+378712298+379212723+379667361+380066333+380478745+380961920+381476351
2205+381966440+382415081+382844496+383302943+383757828+384134752+384453153
2191+384785171+385153665+385532035+385907231+386333895+386877604+387492289
2178+388071909+388590678+389111105+389684976+390281423+390841289+391349475
2164+391847326+392368000+392873999+393329377+393724927+394042059+394308040
2151+394576526+394825610+394998568+395116849+395254813+395431617+395641791
2137+395976667+396528701+397279939+398196446+399265733+400479157+401799363
2124+403130856+404421324+405687028+406913504+408060434+409148100+410222078
2110+411246000+412162930+412973008+413663607+414239876+414786761+415350013
2097+415912313+416505479+417151983+417843781+418608671+419444925+420313456
2083+421229997+422213387+423222634+424239783+425300956+426412786+427537950
2070+428626075+429617260+430522937+431480081+432485413+433402096+434230341
2056+435044406+435859247+436660366+437439401+438197624+438953166+439690118
2043+440389571+441096926+441808972+442487119+443166888+443853641+444526778
2029+445195823+445877286+446564357+447243068+447927422+448618938+449307244
2016+450005180+450658281+451255645+451854314+452424375+452951998+453492110
2002+454062100+454598189+455068419+455520869+455885517+456126594+456453603
1989+456808268+457104304+457383126+457627624+457859670+458085930+458353675
1975+458724461+459168869+459626399+460033696+460446708+461018003+461640625
1962+462208569+462756793+463251328+463631074+463892540+464036114+464015442
1948+463788723+463334191+462443119+461149476+459663403+457725656+455182360
1935+452155325+448887354+445770188+443351699+442244314+442695494+444735612
1921+448081508+451927406+456146101+460519799+464506978+468113387+471391906
1908+474352799+476975360+479281142+481348035+483228917+484940192+486506907
1894+488061133+489426139+490450731+491615369+492872536+493915683+494901542
1881+495870857+496804896+497753574+498818874+499967180+500749108+501287173
1867+502219907+503286266+504101353+504795198+505518709+506310303+507140877
1854+507953354+508764668+509645545+510579055+510992596+511236565+512185419
1840+513138225+513752627+514437864+515248542+515809749+516108960+516737543
1827+517263332+517606603+518283656+518875870+519184888+519548690+520124677
1813+520621010+520938812+521336585+521849180+522359413+522662787+522799728
1800+523168433+523808764+524237685+524027052+523778074+524171472+524508781
1786+524422778+524408491+524466520+524436430+524592985+524806546+524564306
1773+523982710+523722443+523472407+523344284+523324389+522954837+522823222
1759+523031950+523317757+524146320+524988570+525458694+526210920+527132612
1746+527829596+528286244+528520018+528885231+529537308+528993069+527650711
1732+527340846+527209161+526672754+525966775+525192289+524685408+523865876
1719+522046268+520135930+518672257+517292823+515774155+513967634+511843841
1705+510016120+508159719+505020823+501907326+498722430+494906763+491762929
1691+488622833+485311190+481946105+477188251+471708050+467479618+463821212
1678+459797805+455285437+451312369+447904634+444249085+441321704+439495394
1664+437667990+435919851+435080529+435107127+435335786+434767878+434621694
1651+436446311+437685028+437996410+439408509+441850210+444490373+447428020
1637+450558908+454430134+459487976+464417871+468933096+473926488+479266679
1624+484433735+489795585+494938441+499322934+504237907+509958514+514954834
1610+519181078+523271051+527224012+530872858+534213463+537297822+540094399
1597+542589649+544876947+547007830+548931432+550647716+552185751+553506591
1583+554662304+555912205+557089965+557433977+557708918+558883610+559363717
1570+558893664+558944884+559323643+559869116+560097035+558668073+557449534
1556+557726133+557301551+556290752+555323095+554616410+554094713+553484332
1543+552545355+550613675+548908291+548332939+546814906+544432716+542769451
1529+541158536+539043879+537007818+534661750+531537917+528712907+525808597
1516+522443581+519174623+515987928+512413408+507018046+500466653+495097289
1502+489904129+483099983+474106925+463085354+451065542+437560010+421460103
1489+405181099+392910369+385828530+382048492+379555289+377457917+375068990
1475+371200868+364411326+355081770+344845091+333397350+319617512+304255826
1462+289095178+274529812+261611520+254207876+253787545+256966585+261183693
1448+266536265+273553936+281117998+287385984+291189498+291993809+290411344
1435+288075736+285493019+282535671+279734261+277514270+275895647+274970287
1421+274514397+274443792+275356506+277023916+278927498+281236226+284114838
1408+287463379+291172142+295285661+299324378+302303439+303256562+300969899
1394+296074680+290688507+283845593+272849898+258547745+245313467+237047025
1381+235997281+242718528+256182152+275515178+300564578+330041612+361208334
1367+389936459+411517308+424320565+430319324+432361700+432587643+432136357
1354+431115998+429122161+425918781+421735891+417062311+412337088+407698043
1340+403165603+399256667+396434056+394675687+393920392+394219003+395596920
1327+397971208+401298302+405592382+410785119+416758514+423422508+430680233
1313+438550843+447163697+456435929+466202908+476340674+486626669+496766727
1300+506387593+515147476+522829713+529244164+534101779+537038649+537673265
1286+535589580+530379982+521971094+511160545+499934408+491268465+488217617
1273+492611529+504188909+520748674+539412937+557860323+574694607+589363860
1259+601923218+612642050+621782915+629480426+635924439+641979851+648449827
1246+654429748+658334804+661128877+665205657+669880859+673017532+675035321
1232+677404812+680648372+684683102+689215366+693913074+698509329+702927228
1219+707212066+711353753+715179085+718518173+721426046+724045150+726441168
1205+728566972+730406617+732079900+733689051+735139742+736336587+737333981
1192+738218069+738941439+739338930+739356285+739102651+738665510+738040560
1178+737079924+735636429+733686582+731152211+727809243+723458933+718093097
1165+711768388+704580827+696959935+689727151+683618966+678854727+675217063
1151+672269892+669504393+666452241+662774010+658352230+653158541+647046970
1138+639963191+632159146+623855241+615066995+606027020+597253801+588902802
1124+580423257+570979653+559867141+546419073+529753585+508869120+482823031
1111+450794623+412240184+366947602+315555830+260388712+205367072+155164685
1097+113995508+84187681+65545316+56324044+54795930+59824343+70635651+86568054
1082+106705770+129579001+153318196+175820191+194922776+208901042+216175206
1069+215073641+204990660+185464392+155014532+115397122+74597082+41891630
1055+21384882+11108404+7076467+6695575+9455971+16905862+32486318+60480314
1040+103686460+161413692+229066847+300034979+368544583+431046116+487963101
1026+541244010+587874047+622974257+647354436+667186688+689322817+716427645
1013+746192285+775295500+801899903+825430775+846156358+864669639+881053518
999+895024941+906786603+916980598+925955101+933592290+939761856+944626843
986+948493801+951301984+952407393+950834083+945231756+933662913+915132558
972+893570863+878964331+880334664+897413692+921980058+945869476+965349603
959+980120380+990973473+998629781+1003834971+1007521386+1010395959+1012612422
945+1014088512+1014924201+1015367973+1015519660+1015285639+1014571723
934+1013401829+1011817230+1009664404+1006779531+1003214113+999087876+994374293
920+988791721+981990503+973870880+964495711+953707879+941235335+926995250
907+910921729+892663635+871425774+845859686+813825739+772237563+717183399
893+645250432+556504665+456550682+356359044+269606091+208688204+184144116
880+205613299+276873058+387532680+514023229+631684049+725886629+794106582
866+840603629+870959002+890180908+902511854+911160266+917690140+922244910
853+924858017+925983887+925751982+923971178+920957617+917288135+913201266
839+908584269+903373648+897755306+891838176+885621270+878996573+871830672
825+864209287+856102433+847100062+836780131+824854859+810874970+794212339
812+774476109+752295461+730043697+712164185+703834527+707172980+718941838
798+733050061+744755916+752215032+755569923+755963392+754732188+752609488
785+749704649+746175212+742328714+738358186+734262357+729825691+725108017
771+720468373+716015550+711572464+706995259+702339176+697641962+692774717
758+687706822+682867798+678756025+675212407+671697080+667991969+664226535
744+660411292+656480837+652572889+648785020+645110457+641557667+637933761
731+634123880+630438453+626967362+623573950+620400166+616934084+613351028
717+610025275+607046638+604256657+601472532+598681987+596018294+593560895
704+591209643+588875110+586572821+584340342+582184095+580068627+577972631
690+575989978+574239828+572661755+571112044+569650735+568386689+567240324
677+566068525+564608345+562920210+562183859+562877420+563341512+563060821
663+563327437+564029289+564285851+564363529+564759784+565451688+566375603
650+567490184+568713627+570058032+571500821+573084045+574977450+577092847
636+579160940+581219084+583462181+585952845+588701129+591520601+594435811
623+597339522+600194058+603319937+606885850+610583130+614210916+617853801
609+621701780+625738698+629660828+633519108+637777559+642491142+647234497
596+651867227+656727628+661920118+666998455+671721632+676412215+681271558
582+686341499+691709028+697159739+702419112+707652663+712811429+717876855
569+723174467+728640205+733897109+739014743+744409364+750036878+755661499
555+761442252+767341674+772976243+778280205+783631860+789300223+795085915
542+800630601+805854557+810958786+816067742+821192855+826597212+832452398
528+838122243+843058205+847779831+852594797+857386410+862118054+866942756
515+872232960+877715701+882898666+887593270+891987464+896377847+900581409
501+904849526+909393713+913947495+918134265+921592727+924786830+928175445
488+931309508+933802465+936242155+939491218+943195271+946227104+948195859
474+949362226+950215623+950827098+950512507+949826741+949677594+949858842
461+949266275+946591647+942626904+938001017+932035277+925144952+916769718
447+906277711+894261286+881623791+869350768+857574713+846166164+836524662
434+830951826+832053214+842113584+860346280+883150255+907668010+932650844
420+957373764+981986270+1002983407+1017119287+1026554777+1033720678+1041287174
407+1050971149+1061248395+1069466792+1073352587+1073741823
##END=
