##TITLE=павел 12-многокр
##JCAMP-DX=4.24
##DATA TYPE=INFRARED SPECTRUM
##DATE=3/2/2015
##SAMPLING PROCEDURE=Instrument type and / or accessory
##ORIGIN=Default
##XUNITS=1/CM
##YUNITS=TRANSMITTANCE
##RESOLUTION=4
##FIRSTX=3996.3347
##LASTX=399.24773
##DELTAX=-1.928733
##MAXY=0.37926185
##MINY=-0.0015512663
##XFACTOR=1
##YFACTOR=3.5321512e-010
##NPOINTS=1866
##FIRSTY=0.12930894
##XYDATA=(X++(Y..Y))
3996+366091173+364824248+365390696+363983331+361225131+359577298+358522998
3983+357107870+354876166+352082656+350476272+350458385+350866588+349438361
3969+344422956+338975321+334778390+329551584+324850326+324781582+330124550
3956+336002114+337396992+334836756+331358062+329166457+326997950+323852746
3942+321555378+320006643+318632838+316922167+314631634+313881714+314415551
3929+314940149+316207790+316389765+314781905+313795146+312894786+311184369
3915+309499116+308254256+308890207+311445149+312608841+310234397+307255980
3902+307561036+309353360+309007931+305257952+299511020+296245835+297717747
3888+299665868+300064896+300247798+299982399+299871868+299962592+299240853
3875+299443309+300785390+301287629+299799791+295944492+292974976+292737737
3861+291846363+290246603+290426130+291886631+291452587+287808330+284867818
3848+284328792+285554351+285917942+283154679+278744154+273948481+269710269
3834+268159340+268917276+269120660+267793556+266794521+265991951+264439335
3821+262662621+260724857+259262943+257751101+254876296+252330656+250591214
3807+247853053+245479348+245839141+245479263+240324345+234960452+233559393
3794+233244044+230770101+226464032+221813735+218166145+214873116+209639730
3780+203584472+201030881+200974898+199459934+197905589+198038626+196149335
3767+190564634+184427576+179139557+176274170+176591650+174665086+168587670
3753+163873640+162992876+160613728+153639929+145791336+141381823+139417017
3740+137041413+135247265+134207877+132622018+129941864+125293255+119482958
3726+112618877+104185654+97075010+93140061+90664811+88658165+86889451+83480935
3711+77493863+71159685+65862137+61528814+59231003+58985526+56892450+52285269
3695+46981050+39200507+30842074+26978221+25438952+22446824+18667190+15270029
3680+13191006+12356368+11286119+8576743+6620304+8140167+9170246+6872199+5539563
3663+6267710+4462115+154540-338110+3956935+7509471+7952332+6024737+3973739
3645+3184367+2721612+2498187+1827918+95169-337279+2620633+5499242+5260974
3628+3254310+3028241+4134693+5607993+6982279+6782004+4414207+4109498+3255888
3611+1613428+3090082+5665512+5530194+4185707+2355997+2175961+2364041+2548852
3593+4485756+5697308+5043466+4448231+4091605+4383881+4555260+3547628+2771550
3576+4002313+4857667+4728435+5269033+5356487+4120573+3307345+3157296+2562698
3559+2408112+3499383+4789465+5591684+4590679+2177309+1698712+3879207+6092601
3541+7018756+5786253+4142245+4228867+4635853+3978655+2859588+1820627-385684
3524-1580942+1533609+5122676+4312586+1306113-982221-1375936-56761+2753116
3506+5689276+5530341+2360017+939178+2379489+3464619+3378000+3709859+4182476
3489+3291524+2059033+1635237+1733736+1736211+3308691+5239976+5323578+4643409
3472+3603005+1368469-661637-1212860+581172+3310425+3674803+2894565+4014596
3454+4129282+2064249+398934+548182+47177+45059+3075023+5388565+3593651+1633548
3435+2801289+5215207+4308393+2619228+3161631+3468070+2908094+3679522+4665726
3418+4647334+3621862+2236968+1570836+2313698+3957526+5444270+5226399+4488086
3400+5294580+6920381+7568874+7236571+6638730+5421140+2388925-2011559-4391846
3383-2620612+872992+4281819+5261421+3146845+2389545+4022455+4380002+4235483
3366+3826065+2136068+1896979+3447559+3886621+4231711+3800923+3470231+2065992
3348+1173157-286826-32357+3370788+5159839+5273065+2792985+163280+721230+2786436
3329+4290773+5822261+6716056+5777000+3963503+2957556+3342213+3031454+1698814
3312+867817+1498064+1155347+97765+319744+3066301+6234965+6813223+5172257
3294+4588038+5860190+6093133+3858314+519647-971165+807231+2411856+3058060
3277+4354868+4536088+3013839+2054185+2145585+2022979+2036886+1807889+583590
3260+3076109+6476230+6239208+1985628-205927+2366355+1507317-194693-1057740
3242+722581+2208535+1513797+1332505+3397563+4074096+2661522+2142837+2861742
3225+3858853+4743143+4525514+3010020+1405691+202440+25397+1497500+3398001
3207+5198031+5392343+2604395+767993+1854850+3868153+5021172+5040632+4680731
3190+4417936+4215654+4877839+6213124+6219359+5806079+7388944+9225397+8981793
3173+7936633+7408649+7840269+10069967+12330483+12283893+11527677+12263627
3157+13777558+14649826+16102664+19309310+22387554+24277912+25578077+26361544
3142+27259465+28910266+30501046+31485447+33030614+35892249+38750193+40422233
3126+41802522+44186445+47431409+50818963+53935079+56045468+57200860+59538448
3111+63676091+67445423+70490902+74551421+79711560+84814710+89722602+94801277
3096+100352577+106181077+111678820+117525335+124121073+130588668+136369761
3082+141109789+145758767+151575139+158001981+164690985+171342664+177668067
3069+184706075+192254401+199317637+206296709+213786901+222335254+231824845
3055+241133728+249285647+256282290+263495143+271901452+281141738+290372468
3042+299000323+307501953+316459711+325624018+334292562+342655797+352170258
3028+362521038+372140439+381440019+390756517+399151772+406820183+414758551
3015+423554500+433185798+442776766+451573263+460176122+469800839+479973610
3001+489774374+499782404+509735464+518902070+527177809+534080649+540621523
2988+548024493+555085957+561612446+569664592+580030581+591509974+603035351
2974+614123037+623613050+631862464+641316238+651349074+660541710+670090785
2961+679125683+686445586+693729799+701798525+709728624+717098730+724263299
2947+731203771+737808516+744706969+752112765+759133308+765961561+774266789
2934+783692931+792270350+799253430+805242243+811544506+817971053+823381141
2920+828303544+833388875+838545165+843554643+847872336+852241159+858418295
2907+865589699+870867572+874188465+879173981+887107286+893985405+897693914
2893+901590747+907456794+913565418+919848528+926897674+932610750+935512302
2880+937276065+939768908+943437086+947811478+951889040+955194240+958122623
2866+961542656+966197930+971726058+977034053+981084278+983215154+984196429
2853+986131894+989885796+994029677+997233290+999781904+1003044494+1006887833
2839+1008972641+1009603340+1011127648+1013153647+1015147330+1018790617
2828+1023779424+1026692873+1026355459+1025241801+1026059811+1029259458
2816+1032780150+1035680521+1038484367+1040353261+1040825335+1041152202
2804+1042325597+1044077041+1045801401+1047061787+1048160257+1049847324
2793+1051686180+1052968587+1053948511+1055049007+1056056691+1057040581
2781+1059199469+1062503487+1065007889+1065842099+1065962332+1065967311
2770+1065858552+1065904452+1065983932+1065674700+1064914655+1064456924
2758+1064898793+1065359899+1065300837+1065507048+1066652937+1068640967
2747+1070881361+1072760295+1073741823+1073638464+1073313876+1073456047
2735+1072838764+1070976704+1069470537+1068905312+1068886666+1069388693
2723+1069925315+1069540736+1068734538+1069199357+1069736907+1068264489
2712+1067296292+1069021833+1070600985+1069881271+1067931800+1066288440
2700+1065748950+1065558685+1065456761+1066205753+1066667787+1066005701
2689+1064958867+1062998934+1060670031+1060633497+1062300904+1062791204
2677+1062174427+1061013688+1058712376+1056376048+1054998973+1054353256
2666+1054603426+1055042510+1054862455+1053821022+1050976085+1047572758
2654+1046323004+1046326717+1045239046+1043154576+1041325338+1040447422
2642+1040101065+1039574232+1038938217+1038038955+1036474990+1034690556
2631+1033015892+1031089793+1028908545+1026521508+1024011116+1022352146
2619+1021990433+1021946811+1020928581+1018397517+1015227485+1012963129
2608+1011982276+1010793610+1008802458+1007108219+1005562733+1003342251
2596+1000183526+996653384+994318997+993482762+992859066+991191406+988199067
2583+984725035+981489360+978815787+977077337+975922589+974303950+971720827
2569+968159045+964462179+962413400+961723470+960350107+958215350+955978078
2556+952989283+949340089+946025440+943428986+941333716+938907107+936370137
2542+934526218+932044007+928903844+927124725+925388890+921766274+918008491
2529+915199075+912265461+909408374+907062850+904400331+901571509+899696710
2515+898552930+896965256+894305268+890695815+887468324+885899213+884369252
2502+880500094+875660630+872553036+870238055+866950827+863882214+861529855
2488+858310127+854235686+850969299+848891241+846835627+844067471+840751641
2475+838038412+836822577+835561264+832608412+828264732+823757957+820328136
2461+817784669+815394848+813317297+811232152+808565920+805355642+801497200
2448+797680776+794891357+792422393+789967519+788052726+785472978+781196545
2434+776820128+773876641+771880596+769740017+766587282+762954794+759723507
2421+756142910+752443682+750053270+748797104+747242420+744612385+741172440
2407+737367997+733835915+730620237+727491296+724886658+722449755+720174177
2394+718440789+715666221+711065536+706374909+702667624+699416002+695897293
2380+692237932+689237747+686529834+683934983+682545125+680590760+676256151
2367+672203774+671315775+674586592+679639607+680158848+675029600+672262920
2353+672390326+667458430+657872145+649489125+646368030+646647225+645200246
2340+641712418+637210916+633204650+630232687+625942585+620313461+617847745
2326+617897611+615175776+609580233+604534305+600708220+597754778+595727387
2313+592987286+588987052+585698770+582690315+578471847+574009875+570537319
2299+568025534+566102177+564134650+561173783+557717089+555099837+552748237
2286+549637943+546326458+543349180+540265041+536812229+533347014+530269457
2272+527449663+524098058+520239531+516875439+513997132+511152744+508638217
2259+506236119+502943492+498938069+495283222+491980301+489243237+487478377
2245+485334718+481572125+477260171+474074572+471426439+468281973+465503017
2232+463054386+459969742+456598309+453711396+451421642+449193483+446852050
2218+444482774+441594132+438336351+435527568+432933899+429990370+427222678
2205+425064001+423217804+421220493+418199424+414339969+411285615+408943297
2191+406126541+403409010+401146974+398537821+395730642+393486535+391972647
2178+390192220+386819015+383072285+381006968+379461987+376854269+373986087
2164+371656467+369905951+368592368+366853580+364013874+360758793+357833574
2151+355275722+353184417+351412892+349906344+348931356+348014311+346310348
2137+344033019+342423134+341412624+339587458+337327826+335855598+334365018
2124+332081277+330220547+329478811+328929745+327812859+326213015+324713576
2110+323698151+322572111+320632364+318793191+318288210+318208076+317353257
2097+316345405+315766048+315393957+315542983+316100192+315547940+313586635
2083+312145942+312194078+312635314+312622552+312733842+313538141+314057402
2070+313093910+311511299+311334113+312813723+314181602+314439260+314153421
2056+313896311+314109525+315111218+316181655+316642825+317093679+318138804
2043+319337238+319926298+320456970+322097188+324178199+325630578+326670493
2029+327639997+328929386+330816483+333156123+335653184+337664438+338932206
2016+339968113+341329600+343274409+345583146+347949343+350271960+352329852
2002+354174171+356254254+358593366+360614766+362221424+364226835+367019038
1989+370202190+373691789+377171475+379790541+381949978+384657005+387450769
1975+389903365+392435357+395027086+397571734+400222567+402874877+405344728
1962+408113685+411327971+414071617+416366896+418900280+421605535+424741142
1948+428349288+431027669+432611377+435088104+438391194+440890829+442848779
1935+444975141+446996710+448509881+450253436+453091581+456153698+458624729
1921+460784714+462817632+464857721+466729525+468040324+468978104+469995448
1908+471477696+473466190+475383472+477064759+478885348+480384555+480798834
1894+480453532+480499052+481401942+481988893+481513823+481268799+482173462
1881+483401363+484079607+484264429+483983251+483005183+481670928+480728002
1867+480537315+480877597+481116799+480458299+479096031+478204995+478123447
1854+477699128+476012484+473951892+471940321+469482747+468020960+467754253
1840+466538881+464376702+462035945+459512222+456901930+454323490+452013402
1827+450320387+448732798+445861705+441663234+437724889+435082999+433239123
1813+431059689+428166280+424684738+420502719+415894526+411346702+407263444
1800+403676730+399584781+394672544+390090971+386483374+382855906+378538341
1786+373873490+368946023+363716834+358529241+353544443+348267076+342337811
1773+336247285+330415009+324788606+319310744+313472034+307126297+300936990
1759+295092880+289023785+282333885+274954920+266993919+259176734+251795259
1746+244077762+236151713+228675738+221263741+213313434+204758036+196057304
1732+187791880+179343300+170586722+161959448+153764729+146591026+139721113
1719+131184341+121019944+111623523+103696303+96731100+90174933+83718444
1705+77469811+71090788+63503513+55562646+49412584+44032280+38873575+34405849
1690+30671068+27712181+25091192+22634333+20192176+17137748+13763476+11312809
1674+10505508+9885777+7798024+5102835+3873277+3770843+3733017+3817176+4070870
1657+3862020+3002576+2482827+2369502+1920684+1449025+1298683+1605693+2012707
1639+2353156+2500530+2081351+1779009+2301116+3005247+3193346+3084353+3235739
1622+3937460+5077096+6395748+8460517+11048362+13155570+15055838+17801895
1607+21997075+27508206+34361278+42191301+50209817+58651198+68374929+79275846
1591+90822918+102898037+114751821+125512629+135906018+146889153+157148587
1578+167173682+179606675+191145404+199979428+209753804+220521583+229304286
1564+235819320+240716812+246741800+257217813+266433483+272275947+277165213
1551+281653996+285919524+289511912+292417768+294704336+297753395+303483389
1537+308070193+310437487+313155609+315897482+317199274+318344741+320023391
1524+321166728+322363875+324278119+325999210+327400437+328328429+328358509
1510+327408263+326927286+329824767+333278318+333931439+333100541+332156855
1497+332771439+334247422+334020159+332560165+331678326+331681827+331905272
1483+332219567+332604356+332235556+330779591+329279582+328772977+329540679
1470+330232654+329403760+327911113+327249280+326363391+324008184+321927933
1456+322652203+324054548+324273247+323936065+323541130+323042372+322302893
1443+321840395+321545822+320920545+320725872+320866840+319918008+318416734
1429+317789262+317568391+316458087+314543188+312786660+311999827+311781023
1416+311077150+310544537+310762497+310466680+309183050+308223080+308108837
1402+308077618+307301015+306001670+305518859+305790966+305417187+304334685
1389+303579470+303529141+303035909+301564546+300219533+299360412+298266328
1375+297043258+296397456+296282686+296306838+296197636+295475708+294249157
1362+293569183+293647609+293449477+292722676+291830015+290528097+289039479
1348+288087335+287476422+286760547+285925346+284813333+283603193+283074671
1335+283152148+283111691+283040668+283393016+283569844+282400688+280219483
1321+278492001+277594025+276794282+275961232+275828659+276333303+276551706
1308+276043519+274914947+273658781+272860958+272508483+272034130+271187053
1294+270301101+269776482+269657704+269444954+268861800+268375740+268450242
1281+268754602+268355806+267331163+266658425+266316181+265870452+265565122
1267+265414366+264952142+264309736+264236710+264788413+264993422+264149319
1254+262872587+262136800+261840076+261539998+261205707+260606290+259626007
1240+258825082+258753554+259205611+259574686+259516932+258924391+258046517
1227+257638567+257888653+258076808+257905612+257265442+256000290+255114548
1213+255150872+255107545+254713390+254453179+254283313+253899135+253029888
1200+251955865+251406503+251343961+251133404+250579740+249963848+249834608
1186+250253949+250284429+249452328+248444497+247801796+247492965+247180062
1173+246395380+245320302+244318609+243271375+242430098+242258565+242631374
1159+242732581+242000253+241013452+240187025+239427951+239088808+239311219
1146+239550399+239175882+238290309+237548004+237051271+236598159+236152473
1132+235474250+234592790+233611706+232037005+230306802+229656633+229773049
1119+229755162+229524334+229031313+228420527+227973954+227409173+226663619
1105+226310091+226160431+225427154+224584402+224315163+223950370+223084034
1092+222449581+222338439+221880560+220611400+219167205+218200443+217784604
1078+217416921+216837543+216112260+215047603+214055549+213828624+213912450
1065+213488870+212557967+211131111+209109289+207088015+205516626+204218314
1051+203030871+201679003+199854448+198286075+197912550+198038521+197853044
1038+197877555+198508022+199168568+199296269+199071221+198445269+196984600
1024+195066600+193631602+192914251+192264420+191120303+189645290+188437239
1011+187626780+186736588+185591099+184355309+182854563+180983370+179287549
997+178054502+176952361+175670059+174293048+173291323+172432339+171106131
984+169599309+168171873+166419817+164170943+161846892+159729273+157794694
970+156307226+155051197+152953100+150092333+147829305+146245017+144431220
957+142553003+140983470+138924460+136196319+134020819+132373060+130206251
943+127548963+124910775+122607206+120509690+118232466+116011668+114097328
930+112122323+110022634+107762507+104973004+102127519+99805240+97961300
916+96571653+95046501+92638455+89535069+86502025+83987176+81656633+79168279
901+76850086+74849210+72587274+69984197+67856400+66308536+64573961+62318722
885+59426873+56092871+53419203+51953593+51074623+50024783+48476423+46665590
870+44822731+43172784+41813718+40359438+38820198+37543122+36342954+34849935
854+33245358+31794511+30340328+29035095+28301773+27808457+26542198+24539499
839+23160919+22575231+21677386+20429922+19403332+18732630+18351361+17647623
824+16557726+15987111+15759823+15290264+14830922+14063513+12404137+10818771
808+10389630+10292848+9825275+9575104+9620932+9597580+9513822+9172076+8349546
791+7608599+7269022+6752683+5998012+5715574+6283749+7292261+7994828+7911044
773+7041290+5744192+4238478+2972948+2724208+3313714+3585419+3124241+2926070
756+3742964+4868348+5263736+4789710+4219578+3958190+3440603+2746607+2910221
739+3575982+3362934+2920690+3545619+4115270+3192086+1795137+1635761+2555264
721+3455405+3883293+3539266+2713461+2457646+2697610+2894638+3091099+2778023
704+1841504+1418749+1863313+2315540+2293969+2308860+2586392+2694544+2434343
687+2100638+1808417+1062353-192448-720029+354316+2155121+2973028+2746019
669+2452559+2493299+2573220+2604141+2681296+2486298+2014214+1921686+1820313
652+1572630+1861496+2343943+1846533+978245+1228120+1660448+2117279+2812695
635+2553471+1527102+1522010+2373580+2466777+1366129-50197-659878+34907+1208385
615+2021456+2540780+2521361+2201933+2320290+2493597+2339224+2100459+1732637
598+2017640+3043583+3205881+2021182+1389553+1401470+835039+329849+857341
581+1349280+1207202+1217661+1935225+2967200+3470494+2968716+1859394+1184292
563+1164445+1665149+2100485+2092055+1889538+1723564+1987206+2447734+2850796
546+3666498+4111773+2704873+636404-167470+89723+1232972+3220611+3597874+1913866
527+749575+701921+1170501+1807260+1641773+1140918+1848383+3420869+4124673
509+2820263+718514+205613+1077664+1954543+1018644-692768-565066+1118150+2694261
490+3058392+2003826+2226126+2615030+2856070+3507523+3397932+2260261+2582373
473+3502271+3734659+2267797+1184115+933974+555367+552690+2148914+3378433
455+2555471+1473800+1377737+2263102+3421086+2672288-120820-149928+1868182
438+3005252+3580077+4714358+4588703+1549028-1739549-1126701+2300216+4208673
420+4318777+4413778+5351561+6860906+6599634+3442415+956498+2347451+6032608
403+10443219+13654992+12610556
##END=
