##TITLE=павел 12-многокр
##JCAMP-DX=4.24
##DATA TYPE=INFRARED SPECTRUM
##DATE=3/2/2015
##SAMPLING PROCEDURE=Instrument type and / or accessory
##ORIGIN=Default
##XUNITS=1/CM
##YUNITS=TRANSMITTANCE
##RESOLUTION=4
##FIRSTX=3996.3347
##LASTX=399.24773
##DELTAX=-1.928733
##MAXY=0.35615516
##MINY=-0.00067478576
##XFACTOR=1
##YFACTOR=3.3169534e-010
##NPOINTS=1866
##FIRSTY=0.13131386
##XYDATA=(X++(Y..Y))
3996+395886964+395408027+390969512+386046354+384153561+384047135+384351362
3983+383218732+378050154+371361810+368767390+368551911+366225914+364896269
3969+366660601+367727237+366437485+364619895+364235927+364135117+362255846
3956+359026445+354415578+350009431+349626407+351174721+349769311+347605243
3942+348421561+349833530+348764625+346527084+345500789+345538166+344259128
3929+341155492+339061461+337754525+333629626+330059587+332420355+334956441
3915+332526961+331557203+333875856+333581669+330053185+326929647+325320102
3902+326058926+330033620+332978854+331645435+329485904+327762812+324797925
3888+323130921+323162031+320744231+317789406+319871645+322908231+320989405
3875+318219870+317452811+315876802+313463629+310647126+307825636+308390177
3861+311980230+313994611+311682517+306257578+303978953+307451125+310539937
3848+311069728+308377351+302264083+295919298+293122112+294364717+297849243
3834+299736937+296381927+290355812+287754564+288569287+287891493+283209781
3821+276402568+271017881+267938998+266726380+267004529+267565026+266686151
3807+264693334+262335328+259240295+256372129+254541107+254953062+255576431
3794+251200855+245379190+242593011+237690653+229169872+224174162+223554724
3780+222189005+219994927+218144094+214844947+210806932+208923303+208168419
3767+205135381+199733735+193475542+188560336+188010710+190235897+188367240
3753+180213389+172188336+169955040+169308692+166882480+162659018+157288572
3740+152808760+150667693+148840871+143671203+135814616+128989119+123665114
3726+117114036+109504319+104215826+102859024+103467007+102381828+97892245
3713+89760800+79343571+71517740+68293847+66288879+63018209+58989206+55062243
3697+52136316+49806259+45742213+40125529+35626318+31658840+26403355+21538756
3682+18551573+16963009+15712267+14906891+16385600+18169022+14280320+6975767
3667+4347481+5155398+6264972+5686937+2108189-63484+1922306+5116342+6057180
3649+3009849+1049109+3431837+4974225+3770302+4494104+8810310+11305388+10214146
3632+8124264+5896971+5324306+8375640+10958446+9587843+6250509+5142757+6910841
3614+9109721+8767395+5434668+2221794+2947141+5785835+5815779+3069905+1635194
3597+1443969+708455+1144465+2371678+4561422+6073919+4300580+3250660+4849909
3580+5498271+4777958+3071705+2989022+5262975+5126199+2044913+1262791+3019783
3562+2497166+729814+421443+1187928+883223+516202+944028+3390384+6270795+6234336
3543+4175992+2348368+1535539+1915098+3391400+5060713+4059005+598004-548043
3526+2048310+4278300+3832273+1913418+1338353+2551315+3095951+2910043+3296246
3508+2196641+1814766+4747478+8212735+6810497+2275032-1178497-808061+859462
3491+2147876+4885004+7504233+7891572+7158697+6491587+5357449+4873376+6777133
3474+9156586+8904587+6696223+4501356+720055-817772+1904447+6221115+7204825
3456+5203897+4089845+4839112+5503697+5715235+5197804+4506584+4007237+2770145
3439-438770-2034354+1313148+4855197+6847821+8167033+7241534+5260469+3436462
3422+3739721+5844139+5595728+2840651+2303711+4091809+6424821+6116380+3449215
3404+916588-176171+2332082+6437877+4935108+865506-1997588-1744198+2961838
3387+6705210+7669560+6659523+4494474+3349899+3006344+2875003+2598285+2074302
3369+1415560+1515135+2103798+2815378+2331700+2376452+3385478+2839061+1585170
3352+2810354+5461207+6422275+5703914+3992383+2838248+4579467+6288288+5069349
3335+2039084+903572+1752683+2289375+2371492+2343405+2245506+2132648+1488949
3317+1532410+2498317+3226332+2212226+1211051+1912064+3114476+2899240+2102547
3300+1846373+1330228+881741+970765+1397697+3133494+5052573+5465720+4867478
3283+4029519+3459449+3241500+2969841+2853882+1477207+413350+1437200+2887429
3265+4114569+4574234+4319037+5718586+8441471+9366428+7028852+3982277+2663373
3248+2270702+1466560+790863+1235540+2395995+3099641+2485847+1064851+1228885
3231+3359946+5163288+4979956+3429963+2330107+2475522+2645416+2460188+3140669
3213+3895940+2941171+2170289+3089437+3271399+1584889-26738+190263+1716851
3196+2308175+3044143+5914270+8557564+8611064+6789342+5180803+5130251+5540463
3179+4303230+2750177+4061539+7961245+11088649+11060282+8812022+6974361+7784204
3161+10410859+12481286+14464095+16111565+15723908+15404174+17009702+19175841
3146+20736440+21987477+24376811+28366505+31964557+33732557+34337709+34650373
3130+35682398+38295383+42113081+46627919+51068512+54018367+55755924+58174056
3115+61102465+63074476+65067602+68404395+72283665+76991416+83090696+88073805
3099+91288865+95671539+101897039+108349620+114072081+118996587+123697964
3086+129018376+135273481+141960454+148309957+153621485+158491733+165011779
3072+173439667+181265492+187579448+194281280+202543724+211434546+218718720
3059+223694843+228502995+235456324+244644162+253396505+260477486+267796970
3045+276282553+285773382+295857841+305675270+315073197+323709208+331190195
3032+338956810+347880202+356855324+366084762+375347691+382853678+389884457
3018+399153540+410069367+420525035+430556258+440767179+449795424+457661389
3005+466403197+475475423+483511201+491440375+500393192+510632190+520471767
2991+527823978+533956047+540553801+548245370+557876273+567990472+577182196
2978+586588119+596182185+605583346+615764707+625494219+632738298+639743155
2964+649639067+661001126+670976374+679239739+687229021+695698633+704031360
2951+712353935+720487829+727466225+733835360+739719941+745179314+751783402
2937+759513292+766892817+773606565+780475032+787247002+792655701+798365213
2924+806124797+813383836+819016347+824401506+829591873+835466795+842101836
2910+847552135+852145638+857343014+862701577+867895269+874312966+881810822
2897+888274611+893663364+898906652+902916320+904947974+907755739+914045851
2883+921958987+928216035+931849597+934344061+937579055+941814602+946707302
2870+950962615+953655734+956418305+960165706+964798922+970302591+975040391
2856+977809611+979108101+980598059+984095501+988458004+991892732+994995290
2843+998628043+1002875720+1006472175+1008268336+1009341756+1010451924
2831+1011428128+1012974600+1015607789+1018337745+1019634528+1020086826
2820+1022259721+1026747743+1031116356+1033427977+1034374711+1035275981
2808+1036726046+1039093643+1041938695+1043969810+1044288682+1043676095
2797+1044282213+1046733190+1049258112+1050705481+1051627955+1051982497
2785+1051459220+1051137922+1051794265+1053978841+1057913396+1060649192
2774+1060531401+1060805169+1063080941+1065391036+1066004970+1064565328
2762+1062952907+1063741957+1066292036+1067401036+1066323303+1066090506
2750+1068113355+1070407007+1072206762+1073306777+1072078817+1069420740
2739+1068660802+1070688053+1073075417+1073741823+1073077753+1071744042
2727+1070015357+1068913815+1069572314+1071527238+1072496343+1072054558
2716+1071910621+1071752488+1070773768+1070389037+1070948254+1070581133
2704+1069275455+1068813185+1068996565+1068453611+1067242453+1066079814
2693+1065228230+1064767577+1064394436+1063604758+1062446431+1061264924
2681+1060013155+1059215660+1059944600+1060943536+1060617655+1060193481
2669+1060208126+1059572089+1058196868+1056943032+1056828655+1058114746
2658+1059502456+1058700289+1055278140+1052092202+1051204499+1051490128
2646+1051314923+1049946980+1047309478+1043912936+1040815140+1039183042
2635+1038717537+1038067663+1036572495+1034291511+1031981956+1030356867
2623+1029519119+1029261793+1028455763+1026413866+1024580867+1023911676
2612+1022974286+1021112985+1019558786+1018091650+1015153875+1011465864
2600+1009658921+1009538524+1008445338+1005665246+1001542459+997351296+995274179
2586+994353682+992803885+991264062+989285329+985292462+980584582+978217433
2573+978161997+977534405+975170851+972383661+969947600+967265443+964280946
2559+961831586+960138392+958694616+957305469+955725573+953246833+950192704
2546+947582246+945143579+942153511+938531090+934560056+931014186+928302828
2532+925954459+923783270+921872103+920111073+918087326+914773983+910681115
2519+908137056+906870911+904518588+900964721+897383091+894102094+891201066
2505+888620708+886336939+884393247+882059432+878936030+875976511+873642606
2492+870911033+867336591+863854064+860872981+858514368+856823510+854864723
2478+852347528+849590707+846372514+842650451+839002513+836143714+833597498
2465+830573737+827237124+823702035+820185186+817057920+814256085+811565392
2451+808649899+805342576+802357899+800563625+799234047+796913441+793584195
2438+790077319+786797850+783634195+780258677+776755575+773718876+771570958
2424+769503365+766479155+763259345+760313303+757219999+754523916+751824643
2411+748756048+746425064+744137476+740310515+735519524+731847731+730106243
2397+728220683+724711201+720780375+717474221+714384781+710800949+707671617
2384+705921144+703196084+697981548+693028156+690772555+690108619+688275351
2370+686426404+689187762+694370447+695079127+688695752+677547937+670660736
2357+674527725+679757266+675197500+664107143+654198023+648748893+648849613
2343+651030280+649738753+644775344+637721609+632819566+632231373+632123914
2330+629752543+626658071+625435997+624542948+619970200+614200040+611339130
2316+609128722+604969277+600024600+595855990+592632317+590336239+588088814
2303+584642585+579737622+573801917+568625072+566004506+564578431+561745284
2289+557898691+554909252+552661827+550373835+547863424+544906061+541556555
2276+538204847+535272821+532279924+528548786+525008801+522156471+519046455
2262+515663660+512743584+510115651+507585698+505372640+502778040+499273186
2249+495660782+492433155+489290031+486424044+484327430+482615008+480821452
2235+478734182+475177575+469958052+465406148+462507097+459720042+457012863
2222+455017238+452377534+448495990+444419610+440952491+438567688+436743539
2208+434336543+431514582+428629952+425369665+422610778+421225134+419996366
2195+417589460+414387755+411303930+408700930+406378122+403640394+400398256
2181+397266587+394527601+392108925+389436742+386477312+384099158+382441229
2168+380941163+378857352+375991253+373238184+371037525+368786730+366526996
2154+365217140+364797772+363746433+361174565+358312576+356497862+354861586
2141+352243244+349586829+348294448+347141445+344414049+341693774+340324147
2127+339076600+337693428+336557743+334943795+332821102+331391613+330841178
2114+329961360+328622393+327441087+326217373+325154107+324282127+322917688
2100+321770884+321701948+321566816+320851824+320448023+319877126+318859636
2087+318386247+318414954+318512170+318036310+316395295+314950913+315213900
2073+316503562+317124483+316592467+315912696+316007307+316545903+316629597
2060+316761966+317963038+319518293+320184205+320085552+320434905+321938789
2046+323532656+323572054+322488998+322466446+324092569+325913169+327357798
2033+329222895+331289477+332390660+332798775+333824418+335612110+337482441
2019+339639097+342134751+343956406+345269811+347172465+349894560+353068031
2006+355750479+357556187+359305222+361335483+363512737+365673638+367506906
1992+369639999+372638692+375465415+377479751+379578252+382716659+386499101
1979+389925113+393264422+396827273+399679873+401416779+402906332+405120737
1965+408102180+411275673+414308508+417015149+419211450+421295441+424162730
1952+427546604+430410614+433065412+436053413+439018683+441731029+444027241
1938+446016397+448077701+450201225+452542137+455121866+457521899+459579923
1925+461516697+463840449+466222197+468028736+469885859+471882831+473282491
1911+474348049+475625290+477028364+478408212+479949473+481851924+483642650
1898+484729861+485671294+486737615+487350786+488176763+489594258+490264303
1884+490010077+489949923+490468843+491479998+492530327+492388680+490797194
1871+489526512+490003967+490636680+489323679+486891705+485028697+484072889
1857+483757431+483946113+484011298+483386492+482107543+479961557+477469789
1844+476047578+475221915+473405493+470573110+467856002+465738767+463628271
1830+461295086+458852016+456495605+454662965+452977408+450581014+447515519
1817+444372888+441025583+436884691+432695551+429533199+426472465+422575782
1803+418492213+414507657+410108856+405604931+401376886+397076064+392938002
1790+389054032+384843552+380453421+375835950+370418940+364469668+358701575
1776+352982854+347142950+341712598+336377709+330460693+324258362+317863913
1763+311422002+305506602+299633746+293130850+286590959+279960276+272310508
1749+263946850+255625668+247417425+239708515+232442087+224972511+217143721
1736+208605554+199445254+191306217+183958577+175994891+167110055+158095276
1722+149842266+141898403+133098103+123329563+114138311+106191156+98771244
1709+91544708+84660467+77925038+70611893+62099491+54145261+48222736+43411088
1693+39917209+36434008+31913119+27315589+23196761+20594069+19624690+18112023
1678+15626459+13199462+11612200+10196993+8342526+6490494+5244649+4516440
1663+3953037+3380088+2832786+2377991+2346901+2936506+3103938+2747711+2483854
1645+2224944+1944984+1927832+2050449+1584232+1053620+1875459+3508113+4296755
1628+3610117+2652974+2618992+3592240+5230585+7098815+8810908+10390106+12548942
1610+15276131+18565194+23187665+29078728+35674202+42915268+51046555+60373356
1595+70946983+82082158+93247219+104613776+116302188+128548154+141115216
1582+153296592+164327841+175107873+187202467+197778341+206375448+216072749
1568+226280166+235394867+243105978+248077767+253178532+263870726+273781508
1555+279517615+284542660+290129843+295595798+299067611+300694677+302880960
1541+307600094+313421939+316686224+318481150+321156411+324292482+326691549
1528+329125724+331125841+331723423+332734443+334766659+336318454+337578085
1514+338590340+338297322+336534068+335842976+339379075+343322323+344223009
1501+343455546+342359080+342548458+343388317+342953091+342036075+342124171
1487+343164616+344224604+344733371+344573688+343616240+342118758+340632035
1474+339580673+339636828+340120370+339652776+338770464+338464148+337230821
1460+334045422+332204674+335026972+337451196+336828591+335355593+334297874
1447+333894162+334086101+334360723+333522212+331413626+330207994+330532145
1433+330285870+329651068+329408544+328676167+327121159+325094425+322979347
1420+322241825+323224139+323429802+322296543+321399136+321045425+320397348
1406+319901295+320000622+319707626+318801325+317915127+317312715+317052604
1393+316482313+315058731+313552399+312802703+312636236+312405348+311538198
1379+310047881+308631510+307945899+307861508+307608315+307371655+307337894
1366+306367733+304655131+304111974+304594191+304413798+303558957+302581113
1352+301263710+299930695+299294478+299427971+299630736+298808578+296811470
1339+294898057+294368221+294999990+295367291+294592235+293246957+292418441
1325+292155590+291484377+290199251+289182413+288637370+288075368+287448428
1312+286874588+286499448+286239067+285577311+284553891+283838450+283614031
1298+283533168+283343161+282756810+281768633+281046252+280866689+280744788
1285+280444536+280213716+280222656+280172026+279630577+278834968+278280154
1271+277771634+277003474+276348793+276037648+275628096+275144891+275020361
1258+274962476+274649916+274505844+274660675+274378281+273581999+273139765
1244+272961528+272206958+271168669+270913185+271236662+271122127+270708824
1231+270398016+269791000+268941145+268515960+268599317+268678968+268371169
1217+267844792+267512959+267265179+266832514+266171813+265202887+264231782
1204+263816480+263851588+263791031+263462185+263044771+262909639+263044727
1190+262759121+261994443+261314155+260656284+259724893+258931261+258836561
1177+258973422+258655718+257867882+256723616+255833690+255935129+256348274
1163+255920393+254916516+254207926+253901992+253789659+253662995+253066716
1150+251788644+250159691+249164821+249740615+250681778+250150391+248810324
1136+247931044+247213267+246082075+244838616+243999791+243469303+242989490
1123+242448130+241697154+240779240+240067123+239875858+239972984+239828980
1109+239277624+238474783+237349117+236210152+235909722+236214016+236161544
1096+235565175+234508220+232937421+231449486+231117967+231645176+231450811
1082+230274784+229168772+228458317+227708869+226730194+226090428+226591693
1069+227601388+227266253+225331882+223454386+222244936+220987731+219653503
1055+218238367+216004082+213286862+211322864+210150319+209268119+208659980
1042+208169587+207963609+208343983+208611125+208335784+207955186+207535975
1028+207235005+206947198+206038987+205029989+204428745+203463593+201629089
1015+199357720+197412725+196254016+195748371+195072172+193810340+192530762
1001+191482433+190585520+189605341+188028275+185910378+184033500+182788065
988+181419830+179480978+177544710+175972080+174493219+172598944+170430013
974+168594633+166903303+164900951+163076072+161879178+160588774+158632941
961+156530015+154703934+152662341+150013495+147165579+144436151+141817517
947+139145176+136369644+134083854+132330730+130304321+128202889+126502877
934+124274208+121079555+118136265+116031542+114226081+112532022+110689533
920+108128323+105174734+102472811+99912466+97470586+95201002+92442171+89264331
905+86721681+84543569+82033938+79643159+77352955+74659551+71890544+69480431
889+67229901+65167109+63371015+61237850+58613376+56095406+54245285+52987670
874+51594070+49888717+48112565+46184910+44083149+42097060+40493273+39051634
858+37615207+36524539+35968231+35327415+33906938+32305148+30981528+29074794
843+26697763+25423692+25600747+25739043+24785251+23067514+21399461+20372269
827+19645067+18575501+17563576+17123199+17062019+16814090+15377190+13217908
812+12478780+12952939+12797352+11998556+11121390+10468257+10199155+9947057
797+9657499+9409452+9069233+8976356+9109810+8790062+8236867+8019640+7603411
779+6822684+6171524+5663587+5329174+5379073+5836601+6203481+6054056+6009402
762+6388782+6309013+5283685+4061606+3411440+3343294+3582803+3818294+3807134
744+3540283+2973844+2362472+2489814+3209484+3564748+3444034+2845203+1847706
727+1277872+1367396+1877075+2562759+2926483+3177923+3504340+3389084+3123882
710+3287159+3254443+2657898+2172908+2033999+1389319+575049+879331+2166837
692+3274803+3504484+2559053+1306743+402086-725207-1372671-369619+1553257
675+3243558+3899934+4417916+5696113+5205541+2997329+1358558+525410+400774
658+293488+259632+669698+838812+563081+1174614+2159338+2606474+2493709+1742270
638+422463-270021+161843+1277671+2924124+3831308+3468867+3060726+2739456
621+2074229+1475025+1369833+1178494+870113+1034465+904248+211234+511669+1823563
602+2666411+2321874+2706367+3577396+3165798+1668561+228628-689287-448607+462609
582+825346+206372-99530+207885+504767+1109556+2052796+2927613+3588712+3630995
563+3059346+2291280+1227312+541586+1167614+1957828+1724565+1611529+2139043
546+1491020+58779-13271+975838+2021628+2178878+1288033+1789921+3178536+3330900
527+1952453+1215655+1085925+858352+649294+2167237+4607603+5039039+3642181
509+2988247+2738724+2666210+4195311+5558179+4406723+1777888+528484+1196940
492+2290303+4108210+4653948+3365316+1432319-112488+510325+2791283+4095656
474+3704796+2629735+2055840+1593481+1635961+2551045+3032571+4078781+5627356
457+4128494+654184-507674+1608953+3198186+3501315+6493505+10136763+9963361
440+7272985+4426644+3366250+3704758+4611658+5448443+5753908+5951053+7470597
422+8837801+9204590+5780076+2299058+3290900+6632599+8060186+7914785+11471033
405+17388360+15608133+8536711+7802511
##END=
