##TITLE=павел 12-многокр
##JCAMP-DX=4.24
##DATA TYPE=INFRARED SPECTRUM
##DATE=3/2/2015
##SAMPLING PROCEDURE=Instrument type and / or accessory
##ORIGIN=Default
##XUNITS=1/CM
##YUNITS=TRANSMITTANCE
##RESOLUTION=4
##FIRSTX=3996.3347
##LASTX=399.24773
##DELTAX=-1.928733
##MAXY=0.33681998
##MINY=-0.0010663676
##XFACTOR=1
##YFACTOR=3.1368805e-010
##NPOINTS=1866
##FIRSTY=0.13188334
##XYDATA=(X++(Y..Y))
3996+420428317+414032402+411025549+411556919+410862709+407655583+404566407
3983+403289001+399958985+392785491+387780633+387484333+387871341+388891423
3969+391715744+392200585+388578662+384475438+382921682+383649905+383232495
3956+379148058+374772783+373533806+372629014+371103618+371183993+371071173
3942+368235498+363560479+361576701+364083013+366077408+365268073+363751180
3929+361383102+357523996+353498843+352593053+355779444+358404680+356875198
3915+353679758+351700018+350739054+349362770+347150074+346041256+347446921
3902+348850306+347780298+345997957+345493474+344640508+341457467+337939362
3888+337288688+339930693+342543863+342881349+344854367+346548994+342662906
3875+337924161+337812790+340938020+343997933+344290766+341246291+335283842
3861+329391246+325978432+322924362+320337223+323940453+330672358+331958838
3848+328709980+323207931+318194975+314498282+310252382+307678354+307591043
3834+306162387+304053082+304159489+306646467+307338493+303154180+298811374
3821+297788845+297442690+298318505+300030233+298822846+293704266+286534548
3807+282421135+280285014+274354060+269680703+271320653+272025670+267921900
3794+262652806+258499157+255328775+253081165+250061344+245268421+240178034
3780+236071651+233202106+231511470+230327265+227708014+223307111+218579031
3767+212895353+207440333+205987782+207432685+206876185+202994990+197553342
3753+191409359+188002447+189070044+186986736+177732522+167808693+163290552
3740+159093438+153372126+150497665+148734230+143657180+138785058+136063224
3726+132269102+123242904+112189854+107568275+107658983+105126282+100591955
3713+97580952+93846079+85681628+75601935+67355494+61717818+57504606+54511488
3697+51933802+46086622+37912113+34152654+36674119+38541853+35092316+29293479
3682+24487673+22717463+25115339+27935472+24514351+17669670+11714679+7680105
3667+6311289+5099441+1512062-260565+1476809+3759520+3209665+4177374+7410535
3649+7249500+3755500+4006074+4849092+4067503+4383477+5510699+4442107+2681122
3632+1994064+899851+1373535+3580400+3464334+1941876+1414755+1652462+3500584
3614+7413286+7887211+5336296+6410042+9640912+9884319+8717937+9157668+9637815
3597+6813205+2957461+614008-498680+925097+2071864+97458-140957+2869281+4984542
3578+3295925+1327362-549051+1193801+5202504+6829144+7433919+7374947+5477803
3560+4400236+3332384+273341-1346157+2461342+4817693+2157538+792386+477043
3543+163289+1894203+5610791+7399577+6016953+3079016+2055498+4266032+6185846
3526+5956046+2957241-552745+1310553+6487770+9016378+8668929+8075716+9028318
3508+7880509+1806309-2685742-274777+5134688+8256091+6562276+2526925+535255
3491+1522202+2615186+3561985+4298115+1729978-493848+1416388+2727696+4069180
3474+5644081+4673852+2380607+3021473+4509284+4899619+6639999+9670408+10489852
3456+8010407+3618512-944804-2255771+1544440+3270243+1611339+1280513+4495712
3439+5494081+6573906+6995622+5713468+4823180+4294377+2968385+2284175+1668703
3422+920210+2307266+2867345+1183169+1369483+2090957+865793+291371+2112174
3404+2374159+2269733+3950201+6278263+7413736+5247562+2919048+3129516+2411908
3387+1202499+651017+723583+3284799+6302053+6576095+4861518+4040490+4516367
3369+4302032+3170371+1162469-204003+2488829+5149385+3208658+296631+634261
3352+4245058+5761904+5096099+4696084+3823302+1689374-456977-1027392+1492283
3335+4910706+3821536+473069+287507+1150716+1005182+518215+359334+903957+2125722
3315+2062452-46904-874351+1663975+4552956+6300700+6077823+5378654+5913100
3298+6971193+7209201+6013018+2095956-721901-1008105-200424+2918112+6307565
3281+7208289+5634389+4826214+4717069+3154853+2641038+4864326+6261729+5433454
3263+3787694+1845078+838894+1710681+4619753+5778238+4463233+2843292+3023652
3246+3170611+2551158+1486770+1924532+4282244+5225671+4611560+4375791+4864829
3229+3942363+1789954+1177995+1497633+3363258+4421781+3042830+1776613+1971125
3211+2550679+2447995+1313452+1478888+3150483+3546399+3560463+4638121+5870290
3194+4692881+2312869+2104490+2904274+2899940+2637606+2174321+1571111+1917866
3177+3869271+6181277+6328572+5272839+6713027+9237789+9250424+8601674+9702680
3159+10867658+11347369+13166323+16170897+17462150+16906303+17968046+21412934
3144+23724392+23273988+23777920+27980956+32396490+33545216+33448464+34811258
3128+37127207+38885583+41109910+44359949+46988053+50193941+55252786+60097570
3113+64259371+68816607+73184056+76476105+79256647+83196734+88865667+94726620
3098+99104365+101508991+103079504+105770175+110743051+118046466+125886476
3084+132468984+138664257+145277689+151046088+155854532+161723674+168924684
3071+176434297+184340099+192141038+198805073+204483596+210887444+219209587
3057+228042198+236201168+244371206+252306389+258801514+265101045+273198641
3044+282003582+290497378+299330227+308265017+317062952+325886561+334395558
3030+342328508+350063844+358365324+367099129+375811462+385218600+395649217
3017+406025608+415332182+423603711+431697815+440725023+450861286+460098743
3003+467006409+473976305+483075100+492560761+501302997+510328638+518833217
2990+525411354+531032018+537251982+545637660+556370135+566927086+576511221
2976+586181051+595850454+605507933+614876783+623873067+633370556+642738931
2963+650966092+659270017+668519255+677069247+684069687+690791236+697233656
2949+702514531+708225736+716274807+725424716+733756193+740788080+747326220
2936+754525032+761423293+767797737+774677566+779993878+783959866+790815564
2922+800512329+810258924+818970806+825310953+829047738+832115585+836064044
2909+840760678+845449426+850762555+857287393+863905433+869253144+873372900
2895+878056613+883848478+889213576+893470900+897707514+903922157+911534247
2882+917308631+921301364+925723809+930037093+933522967+937457745+941706234
2868+944373059+946134190+949342646+953641583+957951921+962366766+965820433
2855+967742505+970305773+974277984+977591992+980507068+984776839+989490763
2841+992899302+994835624+996303566+997925417+999875610+1002599629+1006119991
2828+1009315051+1010946023+1011918317+1014180415+1017972969+1021619404
2816+1023802837+1025933732+1029225034+1032149421+1033586770+1034450662
2804+1035277976+1035767543+1036814227+1038123033+1038040093+1038308675
2793+1040644024+1042758958+1043630735+1045067514+1047417114+1049536038
2781+1050972817+1051937606+1052804158+1053691041+1054870828+1057125516
2770+1060053894+1061804099+1062135861+1062519211+1062977141+1063395833
2758+1064654381+1065834549+1065731657+1065475710+1066446104+1068072611
2747+1069136585+1069785193+1069794789+1068455106+1067076185+1067094046
2735+1068644928+1070873585+1071519057+1070077337+1068886719+1069025428
2723+1069401368+1069056115+1068357914+1068612531+1069881719+1071201546
2712+1072706540+1073741823+1072871566+1071143212+1070155147+1069455236
2700+1068436009+1067872432+1068692906+1069524401+1068139210+1065902858
2689+1065320090+1065441413+1064941490+1064270556+1063186535+1061732084
2677+1061764006+1063086493+1062976286+1061926372+1061815975+1061332298
2666+1059936656+1059019561+1058372378+1056955360+1054751025+1052852706
2654+1052173506+1052091706+1051937606+1051852575+1051531454+1049949315
2642+1046445200+1042680482+1040813135+1040572199+1041067752+1041075352
2631+1039571213+1037498557+1035616008+1033984561+1032893510+1032322712
2619+1031460055+1029033786+1025793123+1023734718+1022657347+1021512902
2608+1020273355+1018275849+1014942745+1012152127+1011289755+1010592219
2596+1008920680+1006885361+1004213785+1001203038+999196316+998068687+996921296
2583+995517674+993887557+991496820+988032512+985035636+983484374+982168632
2569+980353823+977948740+974537636+970442962+966781326+964383274+962657865
2556+960319382+957786230+956115261+954823746+952776456+949515367+945867222
2542+942892292+940556279+938150721+935265761+932287220+929464775+927336160
2529+926432081+924865428+921399885+918043220+916008851+914307194+912017164
2515+909467386+907418672+905140897+901678680+897875580+894795287+892511147
2502+890132951+887100637+884475424+882031959+878399395+874989241+872901574
2488+870281017+866950668+864259331+861837147+859364515+856568101+852637503
2475+848498746+845671550+843626446+841003609+838505609+837282689+835623215
2461+832305122+828771840+825282261+821413322+818135416+815467261+812488435
2448+809270004+806226669+803323088+800289064+797282971+794581849+791638651
2434+788223129+785286201+783226988+780586527+776291390+772286449+770232034
2421+768249587+765161741+762250465+759585967+756530519+753350233+750223767
2407+747409825+744759578+741288193+737343534+734280438+731751324+728652220
2394+725279926+722602983+720223409+716642814+712286493+709070864+706830712
2380+704050307+700411568+696019334+691866849+691023668+693938460+696538163
2367+696820949+696576688+695586391+691552521+686837171+684714019+682198681
2353+677203158+671339088+665047632+658126712+651976246+649063592+648147827
2340+645574915+642178205+641516106+642603310+641768015+638246276+633628023
2326+628953811+625572444+624029542+621733764+617844256+613835705+609712814
2313+605551541+601690535+597551113+593459336+590175968+587110164+583613650
2299+579914012+576492029+573277446+569632009+565861496+562542928+559092634
2286+555856816+554111742+552597200+549114223+544747689+541590109+539127025
2272+535914721+532031104+528504804+525607732+523024844+520752533+518730135
2259+516051624+512125538+508398396+505949373+503420734+499988254+496560476
2245+493341427+489875599+486243938+482638689+479435838+476464613+472891951
2232+469561365+467895098+466625102+463595875+459276892+455541151+452697852
2218+450006848+447435741+445182526+443124073+441150176+438939761+436198070
2205+432824066+428874324+425160103+422446392+420210753+417621500+414925555
2191+412554722+410416559+408700224+407330757+405891269+404088811+401253635
2178+397204350+393124782+390408530+388614194+386234811+383197152+380338153
2164+378462445+377586844+376380193+374057908+371011747+368028551+366188684
2151+365576511+364593220+362078643+358853608+356116835+353646577+350950680
2137+348598587+346765774+344976783+343440698+342260554+341008182+339692939
2124+338508805+337187696+335737996+334631814+333751938+332608205+330975238
2110+329154562+327942021+327413573+326561200+325058439+324191460+324336962
2097+323962281+323076870+323037300+323414024+323174180+321819130+319401340
2083+317555820+317372909+317783099+317747994+317468771+317789227+318675136
2070+318865671+318415057+319017681+320613406+321565155+321694815+321427301
2056+320976852+321058748+321966224+323545869+325126416+325699185+325559882
2043+325437870+325729421+327145655+329257905+330855910+332084555+333610735
2029+335363861+337077228+338718294+340282904+341713128+342952224+344219108
2016+345929007+348125551+350752378+353396592+355307595+356935670+359332677
2002+362281125+364828004+366888310+368685567+370178471+372377842+375764980
1989+378696232+380666281+383131147+386405299+389382890+391774672+394453373
1975+397843647+401071555+403325198+405192926+407693110+410675451+413379756
1962+416026298+419206774+422706282+425763725+428051000+430162751+432766730
1948+435677056+438176195+440559474+443620718+446625955+448967242+451475929
1935+454810743+458397181+460997170+462282319+463097093+464494539+466466774
1921+468189000+470447345+474058960+477086144+478261229+478761152+479971436
1908+482105656+484188621+485681264+486845660+487954763+489383277+490995675
1894+492072476+492289993+492462192+493442229+494636409+495621054+496529124
1881+496892475+496523281+496386804+496935180+496718329+495290765+494574085
1867+494788609+493993170+492578622+492109861+492098175+491596875+490895776
1854+489932888+488339728+486635031+484890242+483181602+482592753+481880159
1840+479466858+476574108+474453379+472819034+470644056+468053283+465497093
1827+462802526+460649922+458530998+455651073+452701842+449622642+446341744
1813+443182217+440097887+437213687+433769236+428825016+423562810+419836381
1800+417283610+414176051+409599601+403907919+398898050+395268432+391136563
1786+385606843+379488679+373477468+368080353+363053264+357021793+350483701
1773+345226222+340640199+335150358+328960583+322771069+316471656+309772861
1759+302980319+296214758+289014306+281287235+273863067+266901604+259601965
1746+252356599+245808698+238717408+229608851+220087706+211430832+202465141
1732+193373554+185235581+177907464+170286895+161712700+153292535+145112877
1719+135685919+125474054+116220933+107907507+100263032+92844499+85358037
1705+78316536+71757442+65088657+58735103+52804837+46541750+41229835+37123989
1690+33181277+29385626+25383450+21531646+19102620+17045892+14723830+12761899
1674+11469072+10552403+9726948+8594250+7234275+5616795+4102189+3416564+2714814
1657+1842648+1704680+2232631+2683447+2840570+2503451+1797159+1260134+1272838
1639+2198795+3447656+3814595+3409022+3311721+3663820+3880295+3424162+3022100
1622+3933123+5847408+7865803+9827442+11757488+13787376+16324044+20054511
1607+24907127+30469749+37265931+45062390+52957227+61557222+72053036+83726180
1591+95422464+107437547+119764286+132024307+144343291+156487357+167348851
1578+178032991+190440070+201011878+209118737+218645939+229339034+239092018
1564+247665595+253461688+258638056+269182822+279455633+285435113+290090228
1551+294786909+299803643+304108565+307146224+309165581+312594784+319777280
1537+325249758+327149812+328803870+331262513+333019155+334391710+335995368
1524+337373718+338806151+340234808+341870079+344323900+345870578+345174253
1510+343503331+343179716+346199086+349297287+349530432+348624429+348148566
1497+348885316+350202506+350602554+350405843+350851945+351742652+351973992
1483+351621448+351275364+350502773+348924767+347539624+347545467+348566760
1470+348976569+348384324+347722178+347347474+345953542+343170738+341204607
1456+342146974+343539243+343785998+343463286+342943293+342361498+341646862
1443+341124042+340667513+339853761+339521121+339649640+338872014+337773030
1429+337057110+335620972+333369300+331493806+329825591+328467786+328659152
1416+329406139+329526179+329353909+328935311+327980950+326697772+325575249
1402+324661456+324142223+324328198+324359478+324073937+324141439+323753457
1389+322354752+320884554+320266704+319955203+318948920+317500978+316521677
1375+316256942+316242763+315783194+315098222+314630839+313736498+312359881
1362+311837561+312213690+311971923+310864222+309944799+309350749+308337080
1348+307103257+306657369+307062120+307099552+306099659+305068580+304658509
1335+303887058+302546877+301620447+301222822+300750879+300143718+299573775
1321+298739905+297686832+297023855+296630030+296106285+295621278+295424425
1308+295252796+294485835+293308589+292471370+292129870+291971661+291398393
1294+290321830+289542161+289159595+288512388+287520642+286987823+287501332
1281+288024246+287629305+286819092+285854043+285096843+285007323+284915428
1267+284371969+283904704+283809389+283760556+283385590+282849541+282402965
1254+281737850+280980602+280638604+280322257+279771600+279566815+279860004
1240+279928194+279396492+279108956+279500951+279622464+278870561+277783666
1227+277021099+276734251+276742920+276790352+276744464+276562480+276239482
1213+275821763+275311437+274790970+274170009+273367348+272783321+272490417
1200+272286629+272206325+272103219+271937457+271452569+270179770+268903765
1186+268727481+269153632+269151969+268827784+268710119+268587299+267992085
1173+266870133+265738300+265275714+265273957+264937682+264017594+262800968
1159+261926222+261990660+262447569+262208937+261258637+260094027+258894929
1146+257943228+257437652+256980363+256233329+255760982+255758749+255275286
1132+254160744+253240419+252566468+251774900+251111851+250873956+250859800
1119+250576515+249383807+247539712+246380398+246311661+246628174+246920699
1105+247083064+246810515+245981728+244988699+243946552+242799803+242141505
1092+242433483+242778426+241712171+239476651+237851688+237495224+237246617
1078+236474097+235978165+235973676+236023031+235898455+235138927+233882208
1065+232725674+231428340+230076282+229136433+227858599+225997070+224278716
1051+222280782+219738605+217691126+216909462+217148118+217679963+217998044
1038+217891043+217440594+217101612+217006653+216820109+216789374+216830108
1024+215710460+213548498+211732976+210286126+208597604+207203933+206813173
1011+206716100+205551347+203107739+200565990+198912940+198067967+197713677
997+197528498+196709128+194487170+191525505+189434215+188591272+187958543
984+186778530+185245129+183341109+180769290+178072169+175819512+173821091
970+172108699+170780524+168946096+166201365+163624855+161669199+159917225
957+158310218+156566307+154203977+151485029+149107308+147113269+144961426
943+142786139+141084767+139158361+136217253+133001517+130191957+127526391
930+125044804+122765129+120274838+117697912+115291523+112843699+110292045
916+107652439+104988381+102449743+99778322+96813408+94136192+92248495+90354083
901+87602476+84670993+81742883+78340716+75416536+73549034+71906133+70096644
885+68020193+65544396+63300907+61849378+60433280+58036350+55209653+52996952
870+50904849+48317499+46042097+44740241+43651063+41958850+40266154+39083570
854+38009094+36914357+35245540+32858384+31215265+30573005+29662534+28341962
839+27420743+27156899+26556964+24768711+22965370+22277466+21917821+21107877
824+19691648+17807550+16555160+16339230+15919958+15017435+14289000+13611958
808+12957330+11965722+10385120+9740735+10380753+10671304+10184912+9485047
793+9082839+9280855+9580735+9391789+8770261+8231679+7929894+7582127+7346767
775+7206851+6796051+6498016+6610986+6419884+5637491+5231645+5530009+5762186
758+5678773+5721265+5849495+5662973+5445938+5736518+6034611+5622172+4887628
741+4558014+4461178+4305562+4255683+4092687+3680701+3349422+3163018+3139329
723+3118129+2852496+2597942+2381213+1957866+2027428+2932897+3827820+4055750
706+3720323+3312297+3037647+2572020+2523819+3766076+5031743+4513471+2770677
689+1673386+1629356+1438134+796938+632209+1116622+1406765+949462+524882+678428
669+703819+367395+646018+1900635+2968078+2969872+2556178+2246039+2387588
652+3319167+3680054+2846540+1773045+1317205+1519721+2344209+3201968+4134529
635+4636794+3787967+2584023+2206227+2110218+1832411+1688550+1525509+977371
617+869757+1351980+2056300+2129643+1447962+1720010+3150682+3510081+2644765
600+2704125+4080415+5338266+5646056+4804920+3094073+1679448+1636912+2804177
582+3900016+3702205+2860964+2328941+2469089+3034947+2823925+1893619+2035745
565+2211530+577859-1000321+442595+3045585+3712819+2027729+1257898+2846203
548+3799845+2836783+2318595+3038595+3741686+3882070+3810456+3377221+2353813
530+1171465+2065507+2782814+3733830+3751576+2682138+1414570+925791+826696
513+858481+1409108+2029706+2033985+2306664+3258124+3990363+4285973+4857935
496+5767897+6183055+5629941+4212069+2944515+2768443+2964028+3881313+5361667
478+4478665+1068888-338200+675283+966542+208177+442357+2439403+4618085+4749715
459+4205832+4822340+5995620+5547064+2757184+596117+2556885+6360264+6544982
442+2311261-1297890-2262332-1328619+1013455+2762075+2632839+3421147+5640719
424+8761974+12285368+11887983+3987149-3399452-2273699+5128481+9542949+6469235
407+2592070+1799299+7912155+13830257+15921628
##END=
