##TITLE=павел 12-многокр
##JCAMP-DX=4.24
##DATA TYPE=INFRARED SPECTRUM
##DATE=3/2/2015
##SAMPLING PROCEDURE=Instrument type and / or accessory
##ORIGIN=Default
##XUNITS=1/CM
##YUNITS=TRANSMITTANCE
##RESOLUTION=4
##FIRSTX=3996.3347
##LASTX=399.24773
##DELTAX=-1.928733
##MAXY=0.31741026
##MINY=-0.0012860198
##XFACTOR=1
##YFACTOR=2.9561134e-010
##NPOINTS=1866
##FIRSTY=0.13084655
##XYDATA=(X++(Y..Y))
3996+442630329+442709570+442388874+437196755+431059436+430290009+432772097
3983+432567339+427996851+423713133+424029241+426285703+426048483+423024056
3969+419972384+418035585+416039279+414149233+411996007+408841226+405705297
3956+401796841+398524256+399336807+400808341+400171285+398710891+394829202
3942+390071902+388458570+389661833+391409224+391363757+388891776+387290164
3929+388104278+386009046+379022908+372935266+370403905+371291387+375919492
3915+379810582+378669346+375561570+372761686+366224657+357849427+357767212
3902+365413241+371071382+372657543+371971642+371081010+371506301+371047816
3888+369548784+368809375+366712758+363360352+362723347+364767313+365031224
3875+360853010+354659083+352286456+354698956+356984250+357034053+355361190
3861+353827100+353767770+353722075+351101164+342419126+334728536+336995004
3848+343459042+347721740+346669020+339647319+333079844+330563857+327894302
3834+327952171+333363363+336763001+334131353+329139883+322442582+314051423
3821+310682609+312935517+313542277+311827953+308206848+302940478+298965282
3807+297554363+297107824+296849232+296610852+295400810+294403992+293698508
3794+290834429+285920486+280809801+276022810+269943838+262976502+257588598
3780+253418550+250851676+250398257+249050878+244725220+241036215+241767005
3767+240898047+233670530+224537644+218039152+215678573+215060092+209982059
3753+199588961+193989734+196740332+195322268+187934945+179476756+172149621
3740+166783896+162769924+160613598+160905964+158853806+152130470+144459640
3726+137549063+131046942+125997275+121805401+117246317+112718965+107781456
3713+102680902+98716928+93604391+85607497+76306456+67520350+61482663+58638388
3697+55416072+48576867+40456329+34636722+29244726+24361604+23613302+24737449
3682+23515176+19072367+14279724+11365436+9571279+9224244+9423382+8225842
3667+8529816+11031082+10607260+6897523+4545531+5072475+8208144+11529322
3651+10664150+5816391+2054376+725101-635156-1923051-1154488+1024811+3574254
3634+7354633+9631050+9225012+8257057+7075526+4550766+5519177+4638017+3263157
3616+3380002+3353628+3661792+5318881+8150038+10931922+10735752+8886976+6607327
3599+4436578+4865629+6607534+6338737+417863-4350374-3531670+725309+3839506
3582+5131879+4473326+4259369+3306544+3758861+5251923+5065538+4618058+5839661
3564+6234841+3347082-883758-1194629+2244252+3678101+3828957+3576483+3194158
3547+2799670+1756351+2126616+3542259+4289790+3172607-778087-4023514-1535062
3530+2668622+2223418+1721317+5114167+7851904+8017383+8551018+6837171+2213913
3512+391908+2298611+3217356+2812329+2649691+2930140+1782310+1182881+2157126
3495+4519917+8169419+11358911+11352153+9278897+5797791+2027092+983114+1911974
3478+2705639+2612509+2582235+6451702+10246029+7457849+2926312+2322668+3239126
3460+2452878+1161530+2958179+7625006+5875469+484947-1730724+607822+4847301
3443+6519652+7090306+7904922+6840448+3130938-444070+4615+4064451+6224577
3425+4464623+2763797+2991616+3830541+3769789+2937228+2844809+3287370+3376068
3408+2985582+2603469+3215665+4260677+4648676+3519779+1500017+594101+141325
3391+2434778+5357059+5419013+4933163+3707012+691305-459581+2122259+5352486
3373+5080703+1409963-870703+196438+2731194+3450257+1265503+592707+1142897
3356+541389+2353589+5677509+5423742+2086174+939532+2029207+2093236+835110+17961
3337+1579481+4800974+5944879+4120883+1297015+1291845+3221561+1789710+716833
3319+1434898+4037190+7095552+7555233+5797170+4548708+4475338+3743708+1728709
3302+42547+100852+1637590+3889128+5762043+4656745+5740771+6330932+4133556
3285+1046956+2335942+7276554+9182947+6161017+4356980+5525654+4855811+2280981
3267-433764-1231334+1839211+5801531+9385499+9772564+6834759+4328885+2860326
3250+283299-2973109-3890918-2092880+2193161+5497267+6321387+5586556+3765751
3233+2045801+738734+173373+466301+1743591+2318189+2835992+3991851+5808711
3215+6186574+4674952+1944022-994856-1958567+1316906+3639385+3837042+3494129
3198+3413735+3429621+3767967+4547272+5177337+5648819+5838086+5324564+4798438
3180+5972119+8942149+10684587+10560868+10691279+10674269+10079765+9507137
3165+9393724+10279010+12064985+14575261+17161276+17852764+16607606+16329552
3150+18004431+19531669+19525438+19255912+21138264+25057467+27770668+28334179
3134+27958904+28020729+30871459+36294082+41667021+46515283+50367115+52203038
3119+53276589+54638398+56405385+59248431+62177410+64335784+67850819+72527693
3103+76072191+80110038+85780378+91129505+95591075+100152421+105189372+109360397
3088+112891486+118568769+125457293+130979710+136853938+144178464+150935171
3074+157330856+164619555+171804326+178406318+184901370+191301402+197900508
3061+204589215+210635648+216383099+223802343+233152664+242002385+250053618
3047+258325814+266317289+273326035+279324908+286269687+295004528+303948410
3034+312752007+320791596+327956027+335991659+345333865+355069605+364300687
3020+373510194+383308340+391956277+399541766+409011504+419813650+428687641
3007+435557186+443135668+451832552+459657881+468351740+480215402+491467364
2993+499062027+505748792+514087023+522029753+527718340+534591615+544902511
2980+555526490+564653051+573775679+583711691+593299383+602046927+610919431
2966+619018728+626207658+634927275+644325888+652151470+659016024+665709847
2953+672528076+679678645+686883907+694090479+701125261+707828006+715001460
2939+723035580+731241087+738837716+745176717+751909354+760625442+768822279
2926+775818045+783017460+788246730+791659045+797026988+803690767+808781567
2912+812754318+817752367+824620097+831687291+837322698+842478625+848396820
2899+854691059+860792337+866318661+870654752+874953139+880771729+887144201
2885+892912785+897610403+901276875+905369093+910111675+914340297+918851304
2872+924871626+930775103+934583423+937092428+940213688+945361953+951564550
2858+955218925+956403108+959195507+963442578+966043427+968145741+972123230
2845+976659038+979636434+981094030+983326800+987597160+991472825+993871437
2831+996632180+999928557+1002355599+1003695745+1005668510+1009289011+1013042185
2818+1016158807+1019909864+1024222869+1026913444+1026803756+1025777148
2806+1026892273+1029730038+1031340875+1031747869+1032595630+1034148295
2795+1036355357+1038687934+1040431243+1041952151+1043398456+1044172319
2783+1044891842+1047652786+1052772822+1056261758+1055272149+1053388707
2772+1054543956+1057534357+1059332711+1059896978+1061156471+1062932544
2760+1063816800+1063158573+1061745135+1061421011+1062333597+1063174603
2748+1063411621+1063430978+1063936368+1065804184+1068727543+1070888733
2737+1072177765+1073470931+1073741823+1072301466+1070805661+1071027557
2725+1072483338+1073099021+1071790431+1070120012+1069499893+1069258036
2714+1069150970+1068785512+1067980900+1068494053+1070300573+1071243000
2702+1071531334+1072501586+1073038632+1071854146+1070223953+1069756772
2691+1069819984+1069561492+1069557157+1069205108+1068165897+1067950454
2679+1068460683+1068640035+1068096839+1066517658+1064600039+1063480277
2667+1063103730+1062561844+1061774875+1061521626+1061301141+1059985595
2656+1058574374+1058592319+1059394310+1059061919+1056879961+1055008717
2644+1054675722+1053782796+1052032027+1050694402+1049067737+1047133685
2633+1046088627+1045276656+1043482940+1041982698+1041844581+1040943992
2621+1037935545+1034650257+1032791716+1032007369+1031284519+1030947290
2610+1030965235+1029436664+1026307440+1023244753+1020342264+1017871972
2598+1016920068+1016675186+1014919377+1011666854+1009013783+1007483801
2586+1006230760+1004952112+1003145592+999832278+995585408+992362425+990181979
2573+987788912+985629637+984569860+983945306+982860728+981264006+978886364
2559+975819343+972620555+969059334+965986163+964445697+962599757+958958993
2546+955419649+953974453+952961657+949494195+944700097+941436585+939607079
2532+938005215+935829306+932610053+929424774+927425494+926045930+924090404
2519+921223099+918154868+915816846+914385361+912809105+910505058+908636033
2505+907282882+904450257+899168109+892717606+887721674+885512798+884209651
2492+881960247+878833644+875142169+871708178+869355941+867792589+866590259
2478+864658122+860770258+856554641+853996035+851951387+849086603+845667835
2465+841807695+837765431+834708290+832698525+830670865+828432904+825923445
2451+823407383+821066387+817781503+813718017+810112841+806855277+803816283
2438+801257021+798343643+794615572+791626431+790083192+787780355+783069481
2424+778333402+776361040+775523512+773076206+769125483+764882494+760714110
2411+756824028+754084910+752571664+751196585+749208546+746334487+743019005
2397+739705085+736026112+732508998+729733335+726643227+722909812+719243642
2384+715540977+712173171+709886112+707512301+704367601+702670971+703883534
2370+707905130+713606219+714664030+706067710+694100258+684530511+676570693
2357+672773664+673705908+675633256+673994695+668197832+663001528+662401119
2343+663000167+660089512+656052793+650869091+643652034+640116874+642979592
2330+644367978+640270115+634551030+629280980+625404357+623261112+620920822
2316+616983356+612499569+608973533+606284421+603201722+599211883+594827047
2303+590802930+587953066+585935438+582744967+577780742+572936790+569331463
2289+566491580+564000923+561306215+557822068+553498024+548937112+545427862
2276+543492600+542102198+540212354+537208897+532546565+527551137+524436228
2262+522587920+520126097+516823771+513685221+511153482+508058787+503897207
2249+500094886+497703986+495808042+492884432+489278550+486463266+484589854
2235+482580745+479535601+475693204+472224331+468983906+464911247+461187208
2222+458835425+456915840+455249253+453120071+449533395+445592804+442201609
2208+439270740+436980001+434764824+431495616+427968269+425589468+423246557
2195+420157936+417766381+416305004+414169421+410854267+407778928+405420870
2181+402479364+398958117+396696237+396196871+395066724+391382584+386601188
2168+382817013+380330465+378702565+377075750+374669299+372226530+370500209
2154+368810232+366958143+365237922+363333333+361157146+358441191+355097557
2141+352560651+351663263+351125738+349781938+348238169+347284854+346136258
2127+344102197+341921599+340279006+338851402+337263124+336002748+335017651
2114+333425062+331666984+330712460+329977638+328643490+327095261+325648200
2100+324248119+323437282+323608039+324225410+324323050+323450640+322135068
2087+321005098+320231941+320157388+320586939+320308461+319252414+318154201
2073+317002481+316389974+316945822+317989292+318517340+318468444+318598951
2060+319212617+320406050+321891169+322578658+322353688+322171312+322695731
2046+323975261+325460632+326634608+327822471+329486387+331285850+332827451
2033+334034242+335417588+337728641+340035838+341075376+341546539+342811526
2019+345004499+346792519+347527795+348598031+350913974+353443445+355453059
2006+357487775+359270100+360273621+361793799+364840203+368387889+371313088
1992+373700660+376368602+379464229+381862841+383626414+386555317+390667270
1979+394201900+396337433+397641764+399835190+403967331+408777812+412388962
1965+414478926+416337896+418867392+421399585+423280834+425481847+428706645
1952+432079895+435466502+439028479+441797993+444124118+447161146+450275299
1938+452656268+454739830+457452735+460647289+463093586+464994268+467005697
1925+468962080+471257204+473766159+476010270+478312300+480349487+481524446
1911+482717602+485165110+488078840+490016371+491175754+492742029+494826852
1898+495788131+495250631+494884720+495631615+497255255+498854548+499730839
1884+500144336+500523605+500911343+500776502+499874351+499114249+498886002
1871+498314225+497763165+498538137+499864168+500126794+499132547+497886513
1857+496797097+495488557+493944108+492806753+492407724+491316190+488868078
1844+486960187+486029757+484598928+482493136+480027380+477007541+474033875
1830+472196455+470403193+467473079+464785176+462684879+460179150+457642320
1817+455088703+451579201+447445044+443811588+440955676+438298622+434836252
1803+429916033+424757686+421066010+418028402+413729335+407902226+402575996
1790+398922000+395162399+390319178+385065233+380120818+375287099+370116781
1776+364513282+358217607+351435167+344941111+338683922+332457532+326258161
1763+320006845+313889034+307686613+301093152+294316257+286942961+278828037
1749+271060198+263719036+255847583+247239644+238373012+229904729+222163580
1736+214416887+205890320+197564451+189778112+181505613+172462541+162966616
1722+153525409+144693319+136464612+127921536+119152204+111229334+103657859
1709+95614351+87082484+78896567+71638995+64281791+57574629+52639077+47205928
1693+41540718+36823318+31935240+26747922+22423774+19986006+18739681+17107407
1678+14810058+12443675+10966245+10137142+8952632+7553335+6835853+6502499
1663+5837965+5189713+5172135+5443177+5525278+5382096+4653124+3527981+2457248
1645+1859328+1903791+2384872+3138191+3675332+3559261+3408971+3702752+4225212
1628+4708895+4746883+4042080+3800160+5358872+7880113+9934113+11296224+13160470
1610+16519367+21379422+26361927+30841164+36231589+43516596+52454533+62391247
1595+72928581+83965780+95217357+106763127+118607256+130468763+142799076
1582+155741292+167401973+178012846+190268871+201849555+211726186+223020037
1568+234461960+243499980+251049452+256929010+262659285+272006708+280934359
1555+287759570+294459668+300728703+306133947+309846644+311926904+313388558
1541+316938765+324206936+329513103+331936667+334591149+336790095+337149630
1528+337829406+339747857+341280536+343145580+345413660+346816337+348645692
1514+350652155+351297730+350474820+349872899+352673615+356116654+356772688
1501+356407281+356385051+357312129+358399353+358272778+357310491+356429360
1487+356283227+356759633+356984679+356569242+355790263+354606886+352986774
1474+352453332+354198833+355600124+354991347+353789798+353135503+352056042
1460+349813039+348322451+349536426+350540728+350276742+349984376+349704813
1447+349298777+349003588+348773275+347935444+346495491+345932157+346237477
1433+345384348+343744603+342898279+342305002+341186727+339891092+338397428
1420+337480911+337904111+338022166+336922618+335437499+334288475+333597634
1406+333287449+332844111+331819418+330652625+329951703+329858776+330164802
1393+330336038+329809149+328537684+327308688+326803777+326872584+327226901
1379+327030839+325729659+324281565+323718029+323871269+324050520+323414246
1366+321615312+319791199+319157950+319048413+318360244+317472157+317431578
1352+317920636+317278036+315212595+313434556+312897711+312931005+312707623
1339+311973355+311186008+310815308+310587011+309790842+308671861+308208864
1325+307768375+306253389+304311952+303011099+302463921+302207622+301995934
1312+301751909+301453947+301111375+300550334+299816647+299153455+298731187
1298+298479954+298193939+298113160+298307080+298264132+297888089+297532234
1285+297120200+296320251+295209663+294118683+293242745+292569521+292117387
1271+291992678+292059947+292132635+291935213+291128383+290252343+290099406
1258+290391293+290387235+289907225+289534156+289603240+289561402+289167514
1244+288781036+288556343+288433599+288283837+288069578+287931183+287905652
1231+287787798+287129017+285914462+285117412+285178758+285243633+284945647
1217+284663992+284284395+283777165+283615709+283631713+283378237+282877787
1204+282103949+281362347+280886748+280264991+279801541+280129444+280653813
1190+280340024+279468722+278967970+278468477+277395922+276345975+275873098
1177+275790404+275447126+274427045+273266251+272597993+272348952+272351624
1163+272352053+271780880+270596293+269516278+269111855+269176175+269200548
1150+269102000+268976585+268812910+268408210+267451871+266311845+265465999
1136+264657178+263779677+262693411+261192892+259953562+259397537+258854165
1123+257924693+257332878+257379859+257239346+256952651+256818415+256260878
1109+255652403+255474287+254898426+253765079+253017101+252795306+252268896
1096+251312632+250755800+250696899+250408263+249425182+247821604+246561809
1082+246279121+246384625+246510619+246125906+244671410+243327383+243155189
1069+243322770+242927597+241802568+240129477+238587574+237502744+236512027
1055+235500339+234399152+232685736+230087685+227268620+225357252+224817483
1042+225174145+225841672+226786065+228048179+228511075+227178844+225385354
1028+224057810+222563416+221641657+221328497+220056377+218512281+217908847
1015+216991801+215144803+214030510+214020428+213416340+211829598+210052038
1001+208119850+206234316+204609252+202741184+200877930+199639331+198373864
988+196515185+194758216+193533744+192409117+190960997+188898632+186196174
974+183319052+180671198+178453399+176806269+175479973+174199775+172726741
961+170603672+168090874+165613474+162898263+160027417+157152928+154234321
947+151762252+149900561+147927896+145263382+142324032+139816980+137635916
934+135513842+133669138+132003723+129818790+126659447+123014574+119813329
920+117282812+114942648+112457562+109936698+107391374+104477366+101203187
907+98148749+95561530+92907450+90166694+88003910+85979735+83504289+81136211
891+79048094+76559144+73457134+70407629+67998848+66299596+64803412+62806798
876+60546272+58481216+56646260+55177718+53446678+50751850+48051188+46156447
860+44476984+42870864+41550768+39933202+37697480+35504057+34245024+33776230
845+32976571+31435036+29667428+27936249+26371583+25277322+24740114+24683572
829+24399896+22809918+20576624+19327683+19261006+19565234+19263807+18124131
814+17212054+16923796+16383328+15168323+14155713+13995225+13677653+12586890
798+11737973+11437956+11005574+10493120+10630998+11143104+10772742+9674424
783+8882995+8145995+7488796+7489182+7553329+6937432+6045945+5640625+5654695
766+5556558+5280047+5087160+5339209+5818824+5883029+5379999+4493613+3984655
748+4289835+4390249+3919830+3921092+4455514+4549193+4014145+3485387+3414999
731+3635459+3716897+3452558+3275529+3203465+2924507+2837716+2839974+2879677
714+3458814+4115490+4320345+4264866+4211678+4331464+4246424+3692801+3180928
696+2908346+2839975+3508009+4219443+3642252+2774824+2924487+3856182+4647054
679+4511565+3451973+1909032+626836+187065+494415+906254+654637+348663+276598
660+961027+1507025+1511385+1829367+2963925+4444648+5059628+4359561+3261792
642+2853286+3136002+3173149+2882088+2717788+2777210+2909908+2535597+2099481
625+2894591+3940070+3691268+2595786+1853997+2029975+2952469+4113645+4854166
608+4947552+4001956+2291359+2127937+3030417+2963663+1845400+2043081+3198484
590+3474434+2519641+1810368+430586-161070+122092+733876+882015+868549+765576
571+1014965+2226933+3378770+4421051+5103372+4493660+3352629+2047850+790213
554+1625398+4585720+5529497+2369814-928695-1536812-582830+49472+867164+2141586
534+3513584+3178996+2660119+3018124+3502981+3776314+2492138+1606911+2181784
517+2558974+2827320+3232516+2980220+2838007+3715421+4727966+4177170+2961702
500+2607873+2727798+2086843+1175485+1956023+4019927+4237343+2425452+560604
482+1317035+2345069+3925944+3805982+2954154+3306738+3458980+1768071+1401767
465+3994513+5435086+2570705-1634283-1738943+2775790+7061554+9377140+9021593
447+4786089+182924+2198710+5169734+7664581+5568728+2792697+3016748+2978655
430+1530293+733503+3432100+8828771+14620372+19251758+18300311+13018123+10952706
413+12225539+12777567+11794527+10262178+10363454+13002110+15544077+14746902
##END=
