##TITLE=павел 12-многокр
##JCAMP-DX=4.24
##DATA TYPE=INFRARED SPECTRUM
##DATE=3/2/2015
##SAMPLING PROCEDURE=Instrument type and / or accessory
##ORIGIN=Default
##XUNITS=1/CM
##YUNITS=TRANSMITTANCE
##RESOLUTION=4
##FIRSTX=3996.3347
##LASTX=399.24773
##DELTAX=-1.928733
##MAXY=0.39727592
##MINY=-0.0010450868
##XFACTOR=1
##YFACTOR=3.6999204e-010
##NPOINTS=1866
##FIRSTY=0.12999961
##XYDATA=(X++(Y..Y))
3996+351357853+351662447+354084180+353642733+348492338+342267224+338450068
3983+338066577+339329457+338888655+336612112+334132505+331804068+330582650
3969+330126664+328334580+326477211+326808366+326864146+322998682+317148400
3956+314628237+316408199+318325275+317250173+315124779+314668934+314539271
3942+313631348+313503055+314192389+312881925+308917828+306065946+307865461
3929+312908324+314975059+310493781+303201257+296179216+289466038+286024702
3915+288647443+294359604+298370237+298661944+296757857+296088357+296931056
3902+296926263+297247068+298668408+299700698+300008595+298583268+294604331
3888+290944567+289699347+289160316+289203953+291312895+292252776+289945040
3875+286856446+284595025+282696114+280582882+279876209+280846960+280497883
3861+277878001+274442968+271327411+271190599+275688913+276970662+272490552
3848+269352018+269987083+271061500+270968466+272194556+273998884+271971759
3834+266970439+262142983+258420250+255811988+253409768+250259977+248078582
3821+248978651+250020486+248701021+244908795+239778819+236400814+235757895
3807+235846942+233110788+228171209+226695922+230469360+234295839+232819082
3794+225782622+218878846+214119293+209427823+205317370+203744357+203888720
3780+203862784+203484729+202775660+200323682+195140040+188902522+184080644
3767+180475875+177566864+175953557+174077601+169338648+163633505+160417433
3753+159316556+158889689+157107592+153323099+150598816+148318829+141573653
3740+133291389+129188578+128893720+127318150+123098162+116806857+109246147
3726+103091281+99957499+97658040+94203705+91132832+89392218+86495098+80831895
3711+74690587+70780327+67522023+61964500+55107261+51005059+49534051+46409407
3695+40303474+33936798+29726785+27574674+26414994+25719062+24314227+21221943
3680+17277279+13064239+10209553+11960837+15122179+15047910+11574313+7612532
3665+5069093+3463612+3154457+4652883+6505246+4629660+1840657+2576236+6356488
3647+8262933+7849967+7011191+5856843+3758524+1907473+1890981+3427808+5628522
3630+8377663+8727256+6616512+5198671+5100853+5885961+6043594+4952359+3389177
3613+570740-1154670+1341048+3708869+3152043+2227826+1188176-1048856-1302417
3595+1686407+3510278+3667640+3888599+5526942+5304878+1227727+916731+4055062
3578+3764182+1800743+996002+2272682+2669182+654579-302123+1589883+3965011
3560+4126792+2951235+2520011+2242449+1970848+2256110+2621151+1934868+1930911
3543+2074415+987616-43487-186384-583417+1904137+4662763+4649586+5593797+7542713
3524+5456679+1216118-722527+1099563+4756446+7031765+6221776+2780642+1010721
3506+2984789+4821579+3741854+1832521+2730617+5864585+7341664+5679023+4128103
3489+3552425+3543969+2726854+857767+1968951+5617720+5960667+4829585+5005396
3472+5437898+5208034+5707675+6276996+4232331+81992-797476+2788205+6337940
3454+6076866+4955876+4362607+3285069+2107168+1036839-992024+300569+3561689
3437+5716582+6042922+6334078+6291837+5075563+2389078+66755-577574+620181
3420+4511100+6974598+5734769+3980133+4108542+5769008+7658847+8075411+5874529
3402+2882017+1315849+1278979+2915404+3532942+1719009-101970-1861353-2824620
3385-622017+2863625+4629095+5173606+5931713+6373531+7130839+7056928+3908760
3368+1003823+465600+950774+1154844+612649+296935+2222668+4151312+4307121
3350+3518666+2394641-782867-2142601+239698+5213287+8331279+7287627+5429760
3333+5416095+5520531+5516690+4622143+1785685-521502+895609+2612719+1929119
3315+2078572+1983631+1510973+2443187+4285896+4728937+3910637+3906939+4470372
3298+4665454+3191269+775771-256623+173317+1146447+3034784+4205876+2706537
3281+1642959+2098617+1747502+1650416+2480380+3859310+4806451+4326865+3322041
3263+2939600+2508026+2898794+4247500+3429288+422117-1024622+29167+494332-2149
3244+569273+1271899+2210961+4525181+6336212+5469175+2597545+584649+1756489
3227+2606648+2034961+2830145+4622988+5036985+4213004+2481364+1994510+2595911
3209+3764971+3896555+2818253+2590987+3291258+1871196+1417834+2975207+1584172
3192+1596316+3230250+5073344+5925789+6124664+6143832+5483467+4905621+5558571
3175+6078493+6190558+7056300+8081888+9533580+10839379+10653826+10375923
3159+11130062+12236862+13169866+13274869+13646669+15837807+18259045+19665466
3144+21487673+24575471+27652355+28971111+29091428+30222964+33046181+36112956
3128+37715401+38828041+41624324+45943589+50449742+53504319+54805279+57091735
3113+61083430+64778010+68496187+72779608+76527109+80138433+84552126+88808372
3098+92156161+96217439+102915907+110927638+117786881+123878828+130050679
3084+135360823+139587084+143930433+149147704+155644126+163474019+171211684
3071+178479459+186557391+195172622+203144351+210028816+217124579+225827649
3057+234397994+241825618+249280930+256372887+263079158+270162860+277127349
3044+284839712+294699499+305365436+315485898+325268278+334698338+343745169
3030+352355286+360700276+369151350+377564082+386404245+396470519+407395198
3017+418133689+428613015+439107565+448442377+456005080+462867212+470665963
3003+480656440+491604761+501601400+510721066+519538031+527914356+535402914
2990+542789176+551270858+560300673+569053199+577570564+586097715+594938764
2976+604109298+613488371+623010619+632453285+642249721+652743022+662853678
2963+672029608+680757124+689314843+698442524+707891514+715734446+722265725
2949+729158909+736037272+743271337+751580242+759286242+765890417+772535431
2936+778714794+784006350+790135773+797686152+804760248+811161441+818192202
2922+825224816+831248236+836774753+842511501+848636896+855147072+861113303
2909+865420878+868975647+873215481+878074895+883883251+891176600+898437810
2895+903968112+908042097+912048018+916489787+920974569+926060647+931546567
2882+936035779+939884630+944546781+950212082+955234446+958598717+961502975
2868+964862253+968599544+972578321+976825404+981011512+983991567+986511689
2855+990177776+993164114+994361548+996054115+998584065+1000555007+1002280115
2841+1004926619+1008547518+1011509610+1013262346+1015793021+1019856937
2829+1023330835+1024983449+1026195624+1028231167+1030985363+1033674799
2818+1035737084+1036984861+1037598883+1039161686+1041809719+1042953992
2806+1042691484+1043951264+1047420731+1051071031+1052739030+1052518569
2795+1052532020+1053406697+1054441665+1056466011+1059818120+1062490238
2783+1063040867+1062559348+1062637480+1063520292+1064330691+1064175877
2772+1064235725+1066075454+1067937736+1067765121+1066711868+1066741993
2760+1068072977+1068728320+1067356417+1066111217+1067024154+1069594298
2748+1072463598+1073741823+1073343108+1073163726+1073407547+1073333120
2737+1073342544+1073662322+1073534733+1072565573+1071462621+1071233541
2725+1071534793+1070922865+1069747743+1069772229+1070373524+1069384388
2714+1067884332+1068800089+1071201563+1071443048+1069068154+1066965837
2702+1066481338+1066903332+1067231809+1066709129+1065920156+1065190306
2691+1064194323+1063346308+1062331315+1061074597+1060735165+1061279351
2679+1061464532+1060321387+1057925229+1055681388+1054329783+1053400334
2667+1052988328+1052909793+1052156745+1050906712+1050166390+1049582171
2656+1048461741+1047354923+1046399940+1044889815+1043163499+1042296555
2644+1042013668+1040867221+1038332036+1035505668+1033575563+1032359038
2633+1031577959+1031396403+1030670096+1028368824+1025643545+1023667205
2621+1022028606+1020179373+1018131265+1016120451+1014213464+1012039539
2610+1009596018+1007554837+1006383742+1005648656+1004282955+1001732063
2598+998921885+996999755+995269733+993043291+990644152+987642833+984633942
2585+983092081+981885222+979011492+975269206+972912678+972048633+970571453
2571+967392283+963849194+961714254+960752424+959137828+956105659+952725680
2557+950344987+948643319+945945426+942404833+939879314+938918370+938456666
2544+936888063+933400633+928836752+924573801+921460277+919636094+918128709
2530+915944635+913400186+910986871+908565582+905777958+902541758+899124728
2517+895773103+892804889+890484124+888731790+886937893+884694777+881843439
2503+877881336+873456724+869902761+867738663+866379245+864190096+860948984
2490+857854711+855059757+852165164+849455994+847354000+845191835+841897641
2476+837873032+834550082+832172934+830009077+827723029+824748935+821053126
2463+817934447+815740143+813351234+810141455+806504688+803412107+800901811
2449+797487681+793423040+790669810+788891378+786348380+782972993+779474769
2436+775635584+771739209+768890529+766738513+764034337+760494470+756818798
2422+754079744+752152862+749492504+746157553+743561151+741310463+738713095
2409+735883585+732310935+728188540+724490798+721560361+719595943+718127463
2395+715599446+711450310+707407498+705138123+703416559+700546694+697332002
2382+694307404+691145712+689041220+687320864+683717524+681022048+680988459
2368+677655843+668867191+662141709+663902782+667938386+664715638+659549214
2355+659694684+660574838+656420748+649185716+642798700+639112033+638261480
2341+637089620+632602945+627081060+622457331+618605660+616580670+616296978
2328+614555317+609317486+604859285+605600614+608342970+607681142+602803122
2314+596941443+592436564+588528872+584697862+580775228+575941389+571312304
2301+567869498+563856529+559430426+556769827+555260790+553225248+550567105
2287+547628452+544301193+540634663+537148482+534092148+531194977+528402480
2274+526205075+524190878+521449972+518370480+515351601+512153179+508529300
2260+504823422+502007928+499682451+496738885+493189674+489264946+485622863
2247+483018084+480620435+477601556+474414935+471432544+468678186+465656407
2233+461904295+458210056+455258717+452772022+450501923+448195294+445626883
2220+443369187+441699295+439365119+435545788+431326051+428054572+425486160
2206+422627935+419816106+417456074+414836837+411982196+409427397+406996442
2193+404479179+402266228+400479259+398314154+395568294+392849458+390334652
2179+387679369+384466408+381286593+378786205+376362459+373553288+370863208
2166+369240839+368372606+366654506+364029872+361466736+358661351+355588102
2152+353361699+351777873+349663232+347595108+346769687+346300169+344637768
2139+341845874+338775485+336497189+335703967+335532378+334608164+332539557
2125+330008500+327979824+326886861+326033529+324300970+322100203+320483090
2112+319187144+317884553+316943263+316232281+315695385+315612984+315438656
2098+314595092+313370834+312427530+311848748+311099305+310196516+309427378
2085+308961486+308879386+308748717+308277669+307785759+307633321+307666366
2071+307775529+308181333+308596500+308898396+309409658+309713306+309729073
2058+310165948+310748918+311029268+311522768+312499702+313605553+314597568
2044+315632094+316715109+317737411+318854881+319772692+320157472+320825764
2031+322314099+323647097+324522620+326008821+328462330+330973995+332720227
2017+334060474+335507731+336952006+338729089+341284169+343943480+345992635
2004+347922457+350122480+352390727+354432673+356192498+358443548+361256223
1990+363895074+366657446+369771171+372605513+374772269+376641197+379048391
1977+382271501+385771174+389118087+391979413+394244318+396483930+398760594
1963+400621387+402386850+404802501+408043130+411490205+414923869+418599259
1950+421921887+424188322+425748547+427589283+429923177+431797985+433513387
1936+436339957+439673257+442132445+443611397+444721477+446097930+448102784
1923+450313721+452194489+454518516+457411901+459395328+460577217+461874049
1909+463048608+463873546+464766265+466256091+468316362+470269624+471624773
1896+472694820+473655966+474114448+474472970+475170198+475815311+476422768
1882+476972311+477134737+476940051+476506821+475936416+475289772+474578931
1869+474280257+474821665+475300969+474737491+473514643+472424983+471507736
1855+470430077+469087655+467582041+465830795+463667905+462067486+462141470
1842+461989112+459912611+456954707+454063981+451450986+449204366+446988878
1828+444189494+441250841+439035152+436823490+433981294+431237730+429157241
1815+427314653+424737462+421368317+417711252+413598161+408947368+404497383
1801+401062189+397747737+393202583+388009699+383298736+379187458+374801428
1788+370179109+365925703+361629807+356889605+351761965+346251196+340473367
1774+334831364+330059507+325624363+320476404+314791872+308423381+301618277
1761+295398741+289388772+282843940+276006637+268900261+261518188+254167347
1747+246846491+239501993+232107979+224245333+216069816+208388787+200181836
1734+190659064+182411215+175435730+167785319+159889145+152118506+143833221
1720+135323015+127162279+119036128+110847885+103056534+95502278+87975912
1707+80472760+73141553+66416459+59649378+52790418+47127678+42206967+38236858
1691+35076981+31620126+27974743+24407019+20648318+17453644+15292287+13540498
1676+11642415+9689616+8147636+7389919+6794882+5807984+4848527+4055171+3500340
1659+3382939+3275930+2828891+2740687+3002312+2697341+2380409+2341997+2203575
1641+2024891+1933575+1613130+1341387+1693471+1920240+1818662+2389657+3863767
1624+4918577+5059393+5012875+5460316+6967810+9069265+11395787+14154389+17704858
1607+22523383+28103744+33938178+40542162+48325481+57141117+67179560+77951414
1591+88409797+98804759+109384348+120150145+131609113+143337888+153742666
1578+163588075+175003567+185427536+194029598+203635295+213382092+221598548
1564+229110586+235024521+240568215+249435442+256869912+261600408+266776659
1551+272101180+276596715+279755749+281790506+283337904+286644442+292915892
1537+297191631+299350151+302458137+305455590+306585364+307526090+309434608
1524+311276370+312869580+314561684+316512127+318823226+320233933+319907470
1510+318229946+317074537+319698386+322742436+322436936+321251986+321198864
1497+322188826+322638327+321695527+320426827+320177710+321368681+322705062
1483+322844773+322271550+321587068+320271831+318310534+317291696+318252197
1470+319170732+318660236+317496793+316667586+315815563+314287134+313124899
1456+313707346+314360695+313921504+313238332+313275324+313646310+313297595
1443+312522557+311738719+310927615+310587559+310357251+309392561+308345974
1429+307692302+306680753+305029226+303249345+301808271+301355407+301580117
1416+301242518+300674147+300273519+299593448+298730632+298306463+298264779
1402+297824420+296872699+295764633+294780390+294471546+294479440+293814391
1389+292574668+291333979+290393716+289997155+289863585+289161726+288052451
1375+287379508+287135366+286911481+286455153+285573187+284494662+283634262
1362+282937377+282087287+281216779+280494903+279873652+279493825+279291971
1348+279079987+278717096+277901078+276848329+275969101+275178638+274525107
1335+274190287+273850352+273077006+271891049+270540733+269703592+269792759
1321+269866884+269022514+267526888+266245321+265731521+265561967+265067600
1308+264372768+263846806+263275234+262581529+262110179+261914688+261969461
1294+261947935+261202156+260005466+259269957+259217580+259297827+258961557
1281+258419022+257973186+257299901+256622467+256420713+256296950+255999907
1267+255808101+255543902+254714352+253650024+253218828+253192166+252653236
1254+251855664+251579202+251602923+251408358+250976135+250831812+251319674
1240+251556346+250884954+249948456+249211396+248626735+248315898+248190685
1227+247797850+247053642+246511429+246683279+247058072+246667049+245686451
1213+244961151+244625304+244378624+244295740+244405910+244331282+243940400
1200+243382541+242831568+242365595+241751191+240952653+240492499+240643125
1186+240646045+239788223+238752670+238395619+238274997+237710412+236948242
1173+236517206+236421978+236125720+235259038+234144629+233270234+232839722
1159+232545398+231925758+231235034+230928486+230825384+230365432+229516229
1146+228941454+228726772+228523951+228468372+228250992+227352553+226254214
1132+225420999+224663561+224033732+223522067+222811468+222290621+222389776
1119+222179967+221028888+219850423+219174016+218637966+217874708+216830879
1105+216127146+216015446+215959766+215606259+214712895+213362680+212137617
1092+211210302+210139630+208990565+208507334+208696704+208950452+209021173
1078+208759532+207993213+206727775+205280499+204178756+203673897+203574923
1065+203348743+202429543+201018554+199754083+198480771+196997309+195804727
1051+194866840+193403373+191280154+189272119+188060427+187899390+188435662
1038+188912308+188924974+188516332+188400301+188928498+189243161+188796419
1024+187586036+185780399+184028992+182801593+181963969+181231762+180421222
1011+179211866+177602386+176310568+175540020+174549394+173101473+171691552
997+170401748+169008963+167559733+166096639+164507366+162950624+161709039
984+160214581+157935772+155728168+154144473+152583915+150910197+149469868
970+148101831+146304632+144003028+141980786+140739492+139511570+137682927
957+135526360+133386225+131542791+129859226+127985797+126032193+123877710
943+121496041+119615917+118316508+116685853+114171127+111062849+108173603
930+106038240+104117631+101471228+98333771+95997279+94683140+93021333+90503405
914+88264760+86801041+85189960+82589575+79513688+77146482+75445639+73516587
899+70987070+68029106+65358675+63414374+61802089+60266406+58599443+56394890
883+54032199+52512314+51603379+49767964+46960183+44828531+43607188+42274341
868+40882638+39448106+37256315+35154776+34539294+34250563+32386564+29887298
852+28758858+28619499+28151618+27119758+25491683+23414467+21911187+21380936
837+20634838+19240422+17989595+17078819+16462801+16057138+15587972+15080078
822+14507705+13598716+12480078+11805683+11744368+11899958+11758078+11015277
806+10367000+10160381+9850583+9443997+9139287+8904704+8676818+8367651+8114271
789+7958274+7635319+7195366+6766017+6122312+5451786+4876136+4037733+3432294
771+3701219+4228071+4263994+4002885+4052377+4366247+4424494+4255921+4308946
754+4734154+4907883+3946831+2474295+2033667+2453577+2400519+2040098+2175496
737+2464316+2783770+3422158+3712525+3049197+2057026+1485086+943633+280627
719+424705+1563402+2542194+2299432+1495372+1797697+2666220+2442749+1692395
702+1986957+3135477+3737268+3112747+2144719+2001306+2384561+2475311+2139546
685+1472272+1067576+1502892+2047991+1826877+1123016+618285+804209+1780134
667+2381834+2295058+2307064+2152950+2219570+3117737+4032706+3853518+2884305
650+2158962+2116945+2297402+2096298+1428733+795135+435618+271622+270634+673374
631+1353048+2040806+2191064+1627106+1392687+1850948+1847518+1466514+1868477
613+2759430+2650117+2022955+1875726+1935279+1998640+2066808+1656391+1133086
596+1116563+1415381+1407066+977671+353415+260072+1029536+2015894+2644033
579+3451397+4389915+4687400+4884133+5057158+4350959+3142473+1807919+1381343
561+2403986+2164165+721758+287842+364698+591145-260704-747312-15419+266458
542+469007+835472+2492747+4593919+4780884+3221828+2097743+1702539+606511
525-202106+988198+3352050+5021474+5058288+4145651+2581077+633878-457568-540461
505+719321+2472693+2968444+2134107+2328131+3768856+4575304+4624728+3871159
488+1860412+1041505+3282015+5092969+3258792+1281279+2932733+5551391+5415125
471+4166875+4043839+3826019+3066416+2661901+3236586+4724154+5916141+6419850
453+6103738+4140227+1982133+2063505+3934858+4681589+2852865+1177575+1652584
436+2176526+1238508+776367+925547+2014086+3730637+2883903-339219-821405+4595670
417+9751949+10159845+7156807+5415014+8551295+11960135+9953534+4444935+948713
399+2181257
##END=
