##TITLE=7
##JCAMP-DX=4.24
##DATA TYPE=INFRARED SPECTRUM
##DATE=16/11/2015
##SAMPLING PROCEDURE=Instrument type and / or accessory
##ORIGIN=Default
##XUNITS=1/CM
##YUNITS=TRANSMITTANCE
##RESOLUTION=4
##FIRSTX=3996.3359
##LASTX=399.24785
##DELTAX=-1.9287336
##MAXY=0.57928789
##MINY=0.11244092
##XFACTOR=1
##YFACTOR=5.3950389e-010
##NPOINTS=1866
##FIRSTY=0.21978778
##XYDATA=(X++(Y..Y))
3996+407388681+407437679+407585529+407750145+407843363+407938349+408063191
3983+408168065+408213832+408229354+408278242+408330941+408381182+408502462
3969+408660090+408803935+408981422+409142613+409209233+409286707+409423427
3956+409543630+409706506+409954369+410085039+410011487+410029965+410150278
3942+410138346+410179196+410308541+410373918+410450730+410440704+410355275
3929+410510859+410782917+410825397+410854177+411102924+411246300+411093422
3915+410979185+411111652+411198793+411180508+411343633+411438674+411196445
3902+411029537+411053042+411077568+411362359+411781274+411637704+411373076
3888+411832730+412082609+411725812+411745064+411739650+411554236+411782682
3875+411994639+412094154+412010963+411616050+411735894+412099568+411891920
3861+411479413+411457511+412221538+413017163+412304261+411177084+411424035
3848+412229272+412517875+412343840+412329008+412584301+412439323+412072417
3834+412151908+412299289+412244933+412248578+412314149+412682629+412951234
3821+412524393+412577203+412987693+412563917+412258743+412786701+413264916
3807+412922730+412686495+413171919+413055583+412587173+412749165+412819818
3794+412660698+412662715+412688318+412711050+412696522+412671802+412865916
3780+412990344+412771262+412609684+412773941+413089556+413146122+412914693
3767+412705526+412538314+412659041+412914638+412636144+412268244+412611866
3753+413128003+412664897+411877585+412424408+413021914+412044880+411401773
3740+412078604+412521189+412126553+411675931+411525069+411645024+411842811
3726+411699573+411372082+411212161+411056605+410886106+411006695+411437182
3713+411394371+410526851+409779478+409634030+409677422+409249945+408253080
3699+407299606+406442747+405444528+404583360+403907634+402815065+401475931
3686+400870554+400765680+400363890+400045071+400141935+399607845+398823792
3672+399152416+399351447+398830946+398880193+399347939+399499463+399567961
3659+399704073+399359098+398969047+399519792+400088656+399541418+398788273
3645+398791062+399095381+399068534+398769464+398435315+398001403+397662643
3632+397725368+397277618+395901197+395133855+395230387+395170314+394416036
3618+393244501+392489118+392025266+391343988+390555627+389568788+388480500
3605+387681201+386889167+385766685+384636028+383640185+382395981+381032404
3591+380127651+379271013+377739229+376178002+375206685+374303093+373130094
3578+371861309+370528196+369110953+367861142+366757553+365224443+363386241
3564+362079313+361110565+359817556+358304996+356891398+355462140+353791233
3551+352122564+350687036+349126361+347345333+345710194+344255194+342717941
3537+340964561+339173507+337558586+335960983+334107424+332107175+330252650
3524+328513964+326738322+324964917+323215072+321438435+319660142+317910158
3510+316091042+314194534+312367353+310495980+308485428+306582568+304827696
3497+303042194+301218133+299398106+297530212+295582966+293643482+291810141
3483+289987241+288023975+286028477+284107553+282156412+280171520+278216596
3470+276249187+274307880+272497519+270741183+268901794+267027272+265186032
3456+263334241+261487063+259712884+257992151+256220044+254377036+252618740
3443+250991887+249355229+247606075+245802039+244146904+242689003+241263529
3429+239804607+238374741+237005197+235631290+234198524+232795063+231510769
3416+230243102+228908802+227610587+226409139+225245725+224038808+222727764
3402+221383106+220198079+219252836+218396032+217459986+216434727+215464930
3389+214664637+213958073+213255569+212545511+211855712+211229371+210698802
3375+210255762+209806880+209296584+208848282+208596262+208520514+208502740
3362+208450207+208415406+208480506+208603526+208690502+208738271+208917664
3348+209325710+209799616+210205742+210564140+210898938+211288961+211865863
3335+212609203+213359517+214028256+214660604+215350665+216189723+217167448
3321+218121999+218998496+219906742+220871817+221861294+222868213+223866569
3308+224895750+226054318+227352684+228723250+230061513+231293688+232508532
3294+233822807+235235632+236705878+238180571+239665595+241205389+242745127
3281+244244541+245753207+247311424+248892068+250433740+252024161+253781878
3267+255608756+257418398+259291595+261259362+263210392+265076794+266953995
3254+268934745+270958913+272943308+274955489+277091656+279307121+281514410
3240+283693665+285849084+287978209+290142162+292442034+294864567+297291464
3227+299648151+301990005+304386741+306768286+309084564+311417497+313809344
3213+316226077+318635131+321034712+323439237+325829123+328197824+330568210
3200+332929813+335280672+337633961+339973496+342303225+344629391+346907444
3186+349121306+351302909+353487688+355711743+357943752+360124582+362264561
3173+364366783+366406446+368404016+370399652+372404376+374406972+376372696
3159+378281191+380143422+381922324+383621320+385342910+387082618+388746509
3146+390371788+392041948+393681921+395196221+396654232+398138427+399605386
3132+401010422+402397918+403773290+405097398+406400902+407681426+408894032
3119+410088519+411305020+412469981+413539902+414570270+415630800+416720193
3105+417737580+418630538+419477399+420355221+421240308+422061620+422830481
3092+423589399+424320283+425005786+425663780+426328459+426993579+427613788
3078+428164313+428645566+429081190+429505932+429923990+430280262+430546686
3065+430772204+430991508+431215231+431424868+431560814+431612132+431635637
3051+431639835+431554599+431368384+431137729+430855147+430480508+430024666
3038+429490382+428870255+428193148+427441163+426548674+425497038+424297330
3024+422958777+421495711+419906284+418123571+416063497+413724736+411094914
3011+408093739+404712015+400942311+396662104+391792207+386340714+380277932
2997+373415438+365609357+356622323+346228154+334430525+321292711+306644741
2984+290282445+272564304+254775595+238775481+226007750+217065267+212066288
2970+210300161+210222880+211102028+213872906+220045713+230098690+242759932
2957+255632509+266349225+273552497+277092623+277236496+274098795+267996351
2943+260103129+252642990+247993447+247292117+250021620+254758111+260259873
2930+266038057+272119814+278573890+285294942+292091673+298746298+304914451
2916+310167991+314123993+316583702+317702952+317888780+317505358+316773480
2903+315846936+314936135+314127915+313043770+311111522+308070657+303956917
2889+298704095+292040023+284042038+275653532+268781425+265825879+268242529
2876+275382993+285185787+295857952+306624661+317247607+327482573+337069295
2862+345848102+353808938+361122994+368082435+374997297+382011399+388958328
2849+395500705+401394148+406617472+411281847+415474608+419240418+422655618
2835+425836130+428892462+431887753+434829765+437685796+440368124+442850869
2822+445241252+447579516+449774127+451768079+453612744+455385845+457140082
2808+458945940+460829549+462700509+464476979+466168380+467776921+469264485
2795+470618257+471863262+473010270+474034645+474908767+475638159+476274029
2781+476881009+477468378+477989404+478411053+478762602+479101280+479416038
2768+479636558+479782060+479948278+480162721+480394122+480583486+480703412
2754+480824388+481005079+481202784+481341050+481419436+481492795+481577589
2741+481712430+481985317+482425913+483000356+483679204+484423069+485131911
2727+485706576+486185729+486705430+487352127+488165042+489151854+490247434
2714+491315117+492242600+493029884+493730054+494388905+495031128+495655784
2700+496267017+496858640+497401983+497863736+498242740+498582412+498905125
2687+499180222+499374667+499498737+499587619+499667164+499800735+500104170
2673+500618401+501263939+501948310+502615281+503255128+503874150+504452792
2660+504992158+505501859+505980129+506440280+506888223+507327604+507757208
2646+508176426+508607576+509041598+509444631+509819657+510164025+510456356
2633+510729464+511034832+511332687+511551825+511745884+512002365+512263099
2619+512452352+512604317+512741258+512847761+512937803+513024696+513104131
2606+513162686+513209529+513280016+513356579+513403644+513422591+513426182
2592+513446234+513470098+513455017+513447228+513494017+513568370+513654987
2579+513755524+513859652+513978860+514146514+514360294+514577112+514770177
2565+514941477+515089520+515206243+515311531+515430021+515517964+515550500
2552+515596350+515674901+515743068+515808693+515899342+516039155+516254868
2538+516520243+516784733+517054858+517350835+517675758+518042056+518418518
2525+518759627+519079412+519393453+519682415+519957401+520278733+520654643
2511+521021769+521369341+521725033+522083100+522450337+522814702+523156805
2498+523515369+523888738+524232829+524546704+524854945+525166555+525447562
2484+525679405+525894953+526140109+526459508+526836246+527188569+527506255
2471+527844602+528178253+528453404+528710603+529039945+529458224+529874736
2457+530227444+530561537+530906955+531212820+531466649+531729150+532014190
2444+532296081+532574050+532853123+533134130+533402543+533624664+533820325
2430+534048412+534303677+534527013+534664451+534735048+534817798+534927339
2417+535035278+535149460+535292311+535462120+535662366+535902716+536161848
2403+536449870+536762364+537013431+537234779+537480211+537766466+538061504
2390+538351681+538627054+538823875+538861935+538729083+538500333+538259043
2376+538026869+537815961+537696035+537688080+537730781+537790164+537785690
2363+537931911+538426918+538987054+539269111+539476428+539989389+541160979
2349+542520496+542576344+541157720+540238301+540836774+541856453+542496356
2336+542769022+542948332+543096762+543239558+543586688+544130418+544559248
2322+544746015+544946924+545358408+545810494+546050071+546120944+546290532
2309+546656057+547088919+547492504+547839026+548142074+548440095+548722539
2295+548953553+549158550+549357691+549553794+549747797+549942022+550125917
2282+550272138+550377923+550459126+550509229+550522210+550527679+550539059
2268+550539224+550538285+550568170+550621643+550676054+550747701+550873317
2255+551056660+551256961+551443065+551674632+551848142+552050818+552262057
2241+552445620+552609904+552760213+552903285+553084915+553308749+553527169
2228+553736861+553950198+554142269+554304620+554457248+554611921+554760904
2214+554882764+554962918+555017495+555083397+555154546+555198131+555246411
2201+555366558+555554651+555776441+556072583+556468490+556872959+557189707
2187+557425196+557647427+557879381+558097746+558307051+558533702+558779576
2174+559007276+559189182+559357941+559553878+559763294+559963706+560169476
2160+560376571+560557373+560733202+560941071+561167004+561382441+561562137
2147+561685599+561778348+561881702+562004170+562141884+562307162+562518732
2133+562751681+562965184+563182610+563437930+563706618+563951167+564176934
2120+564414854+564663766+564906547+565160818+565436080+565707807+565979423
2106+566261866+566533593+566785102+567036113+567302979+567595144+567842400
2093+568044469+568234384+568423693+568612504+568805513+568969080+569049620
2079+569068346+569095911+569152698+569209761+569238928+569244728+569271796
2066+569357971+569534132+569811051+570143929+570510393+570914088+571328390
2052+571733909+572126446+572501527+572843685+573123090+573330793+573501154
2039+573670852+573852096+574059965+574312026+574629547+575020648+575451466
2025+575877700+576280235+576696526+577144911+577576448+578001411+578454270
2012+578883045+579249288+579575592+579885710+580184063+580464904+580720059
1998+580935883+581151761+581385207+581569101+581769292+582047758+582287390
1985+582465043+582659875+582891553+583118645+583301049+583465057+583636799
1971+583822682+584009726+584172187+584358899+584580247+584748122+584863408
1958+584990185+585098732+585124363+585069896+584968088+584799606+584573065
1944+584280127+583901897+583620006+583497041+583391698+583293481+583219569
1931+583175929+583247852+583562998+584085957+584729230+585627436+586618667
1917+587410315+588182242+588972619+589597276+590098912+590584032+591073460
1904+591513559+591886210+592242951+592577983+592810545+593009962+593295720
1890+593509776+593670083+593972468+594263584+594430741+594564146+594721526
1877+594884208+595002091+595178528+595407941+595514775+595671492+596048507
1863+596394752+596596490+596784804+597012725+597230316+597374493+597425425
1850+597396865+597492707+597672017+597617274+597665002+597997382+598197020
1836+598229888+598398537+598698049+598841729+599001650+599377228+599652656
1823+599870744+600164678+600357687+600465903+600638528+600850209+600988365
1809+601121162+601322402+601519168+601673288+601788796+601884030+602042017
1796+602338270+602543985+602477421+602554370+602894098+603070590+603088212
1782+603174110+603207199+603197753+603401148+603690275+603709223+603686464
1769+603843401+604014756+604268088+604436681+604446680+604612953+604780441
1755+604937876+605270754+605503149+605643736+605963577+606320208+606590167
1742+606714181+606652257+606880067+607347842+607342318+607339059+607798326
1728+608164237+608240137+608115681+608053039+608280628+608402985+608290130
1715+608418618+608759561+608987814+609056754+608897938+608779171+609143149
1701+609413606+609418909+609763055+609896516+609773772+609728364+609529113
1688+609563307+609696104+609306219+609058963+609298595+609480225+609204411
1674+608846344+608988808+609125528+608895066+608947654+609177951+608987427
1661+608579644+608408123+608713933+609007590+608509765+608267094+608835627
1647+608911085+608432208+608306149+608395583+608599033+608990963+609249874
1634+609585955+610266404+610809858+611150856+611720659+612305377+612703051
1620+613409740+614347608+615076724+615959960+617108184+618089969+618884986
1607+619699503+620541862+621344226+622115656+622876922+623570684+624159434
1593+624695154+625217782+625701466+626129467+626479027+626680599+626803564
1580+627105893+627372372+627186544+627125614+627421094+627347404+626970886
1566+626662259+626394896+626424505+626361697+625795761+625652965+625797860
1553+625500833+624901863+624262181+623621836+623003256+622636074+622291265
1539+621507406+620924511+620481981+619443631+618238620+617315114+616220197
1526+615026290+614047433+612855735+611495334+610291704+608970745+607471469
1512+605929935+604495015+602913597+600635214+598278997+596264993+593856408
1499+590568233+586459851+582004284+577311073+571474445+564264158+556685198
1485+549367634+542260039+535359207+529033261+523493660+518227718+512046557
1472+504569404+497411374+491844760+487356823+482902913+478151148+473935102
1458+472575971+476778649+485883897+496434174+505963170+513551190+518973241
1445+522300968+523940664+524773189+525715367+527015004+528519251+529912741
1431+530793436+531250770+531673800+532115500+532632825+533394809+534234958
1418+535136534+536262606+537348187+538245399+539133607+540074459+540963882
1404+541844742+542844756+543651430+543715950+542553254+539996404+536596368
1391+532490803+526991527+520640115+515702466+514119060+516787605+523417925
1377+532200515+540952834+548496551+554782172+560159588+564767342+568491031
1364+571098756+572564611+573218987+573362501+573130824+572649184+571984368
1350+571124333+570320201+570196352+571196753+572998800+574863544+576534893
1337+578228945+580074577+582094326+584351276+586880947+589640639+592562350
1323+595567475+598584475+601584186+604547935+607398442+610029976+612396578
1310+614463613+616155732+617410790+618278504+618926527+619521519+620129162
1296+620747908+621447857+622283642+623175219+624039950+624799448+625273299
1283+625245347+624638367+623612169+622563544+622067155+622638118+624410612
1269+627069159+630094114+633024498+635591236+637705887+639350555+640489664
1256+641060737+641006878+640282513+638896204+636878278+634122619+630561557
1242+626657619+623214329+620668528+619300227+619667575+622123003+626364127
1229+631637692+637168952+642373190+646899851+650714521+653936518+656637269
1215+658911067+660885022+662632105+664198000+665636235+666975424+668222417
1202+669396603+670469093+671453805+672341018+673169180+673930225+674600178
1188+675196939+675706475+676054322+676287933+676563472+676858952+677053784
1175+677117918+677047376+676844037+676503260+675996928+675285157+674356127
1161+673328106+672336820+671364702+670336571+669228342+667986928+666486879
1148+664647545+662433516+659790768+656808845+653779802+650944983+648370733
1134+646080859+644083262+642318005+640728246+639263275+637780296+636066246
1121+633863763+630813729+626477812+620365811+611900908+600423091+585258210
1107+566090179+543741084+520716346+500398545+484933157+474180866+467099675
1094+463414710+463688314+468304354+476481898+486166672+494702503+499364835
1080+497503570+486512641+464503384+433049704+400054434+377074606+370470664
1067+375202294+378463594+369436787+346379678+316345617+289467679+273354516
1053+271663253+285509964+314212653+355154977+403816018+454577459+502187390
1040+542925518+575183882+599102739+615597750+625682021+629869397+627856719
1026+617895799+596265822+561144853+520037609+490198933+486273893+507616511
1013+541071821+574297940+602824384+627021818+647537268+664220869+676813157
999+685472948+690771923+693332640+693562384+691632290+687654717+681649164
986+673303414+661989109+646600725+624933571+593678369+550359859+497325807
972+445468759+412001268+410241121+440454879+490853198+546406813+596713654
959+637668710+669078088+692291803+709046167+721038546+729682538+735994619
945+740668938+744179952+746843084+748839466+750289688+751315333+752005008
932+752400693+752499960+752265576+751651691+750651898+749286525+747425702
918+744837753+741500745+737521239+732962925+728042014+723315770+719729353
905+718154288+718449657+719175680+718339398+714263663+705863832+692727759
891+675613063+657058255+640879715+630076934+626080248+630883718+646604426
878+670842130+696328981+716843934+730632836+738648360+742211798+742092810
864+738644825+732808749+727352892+726227483+731184300+739792330+748133496
851+754279248+758348078+760954865+762562743+763498567+763991200+764143221
837+764040088+763830451+763554471+763141660+762594174+761941511+761185824
824+760321867+759256007+757992607+756684740+755288487+753625259+751604295
810+749226424+746642285+744277506+742781545+742558596+743361071+744482724
797+745276360+745507817+745245978+744598176+743760955+742957430+742105460
783+740952154+739469562+737833125+736102724+734188650+732113882+730098276
770+728555085+727724438+727188607+726142523+723971527+720652196+716933755
756+714251731+714040989+716329537+719542751+722127939+723645664+724397153
743+724649821+724526746+724268609+723965616+723472321+722846062+722254384
729+721686901+721075612+720411404+719855356+719073761+718383203+717830690
716+717199571+716577124+716090015+715604122+715004103+714375524+713893940
702+713580065+713274862+712868570+712352571+711814421+711432490+711258207
689+711172474+711053155+710884562+710760051+710775297+710938753+711281739
675+711866568+712219663+710975322+708917126+710006684+713528747+714978085
662+714238915+713666019+713916146+714592453+715441108+716325284+717139193
648+717914324+718754473+719727585+720842609+721982215+723045700+724159509
635+725528638+727160380+728825541+730353652+731881321+733586863+735360075
621+737136490+738893682+740665899+742520590+744362687+746191138+748191222
608+750374426+752648170+754968702+757369000+759882542+762459941+765080040
594+767717320+770384318+773101475+775807584+778520432+781331221+784277680
581+787305673+790353001+793230189+795671034+797942512+800621885+803670372
567+806764599+809864350+812804511+815553818+818299368+820996638+823658500
554+826269761+828830367+831536917+834335609+837110105+839928130+842822608
540+845767521+848650785+851357391+853866899+856219139+858585134+861112761
527+863754957+866269051+868573507+871098594+873960701+876727022+879219406
513+881365544+883280558+885318204+887365960+889106027+890592597+892021717
500+893375048+894411410+894877417+894523161+893393830+891948800+890439140
486+889227224+888971241+889991086+892535783+896075136+898789806+899434957
473+898250607+896352718+894927022+895013142+897806641+903739884+912228209
459+922695627+933750137+942954376+949654243+954841522+958970951+962103514
446+964677046+966946978+968720190+970282494+972091170+974317131+977717388
432+982884670+989090027+995497563+1002042095+1008467529+1014176828+1019522536
419+1025165768+1030221244+1034222958+1038730230+1044965747+1051472163
407+1056053126+1059830232+1064624532+1069299956+1073741823
##END=
