##TITLE=7
##JCAMP-DX=4.24
##DATA TYPE=INFRARED SPECTRUM
##DATE=16/11/2015
##SAMPLING PROCEDURE=Instrument type and / or accessory
##ORIGIN=Default
##XUNITS=1/CM
##YUNITS=TRANSMITTANCE
##RESOLUTION=4
##FIRSTX=3996.3359
##LASTX=399.24785
##DELTAX=-1.9287336
##MAXY=0.56965184
##MINY=0.10995854
##XFACTOR=1
##YFACTOR=5.3052962e-010
##NPOINTS=1866
##FIRSTY=0.22103179
##XYDATA=(X++(Y..Y))
3996+416624777+416720527+416874417+416989519+417049738+417185709+417401251
3983+417599913+417734199+417797760+417833600+417918957+418073353+418218171
3969+418318331+418465565+418682202+418833144+418876791+418971193+419150418
3956+419280799+419354725+419433932+419445981+419389188+419512885+419729523
3942+419736544+419736264+419859061+420006520+420164820+420106904+419886784
3929+419981466+420300089+420372526+420356572+420589753+420784708+420678762
3915+420605932+420778360+420860234+420840208+421066199+421231605+420998986
3902+420746396+420595258+420490605+420792179+421254665+421039460+420677161
3888+421134816+421399455+421048532+421126867+421170122+421020950+421337803
3875+421611570+421668166+421470713+420976067+421070300+421424537+421176442
3861+420781112+420959326+422035745+422839492+421597246+419984471+420235825
3848+421250592+421703500+421640529+421671930+421884495+421635304+421195232
3834+421280758+421462483+421445715+421498575+421614407+421997434+422163852
3821+421578680+421594830+422005945+421537588+421310334+422006394+422472953
3807+421943282+421663026+422236766+422079505+421536718+421756108+421955050
3794+421951118+422096807+422205842+422251007+422198652+422075152+422105009
3780+422036925+421759731+421772567+422172671+422528369+422404111+422005467
3767+421785263+421672295+421812732+422023555+421695299+421413667+421947383
3753+422461184+421679036+420655000+421311851+422021758+421020978+420512457
3740+421478914+422055575+421470825+420659129+420272816+420402551+420742970
3726+420739038+420501419+420364914+420151816+419889003+419969613+420383171
3713+420219506+419138593+418243815+418087397+418174720+417663952+416378760
3699+415123509+414142250+413144813+412229026+411334922+409937324+408397577
3686+407767437+407716487+407382950+407117553+407099324+406243475+405268283
3672+405672094+405946058+405428521+405537415+406128794+406427475+406616952
3659+406778567+406424217+406159072+406936474+407594054+406940097+406101100
3645+406144636+406549908+406631642+406416043+406110678+405713551+405560054
3632+405871992+405397232+403738871+402894454+403174850+403261274+402474576
3618+401212107+400453103+400029602+399338176+398509347+397462476+396267922
3605+395368313+394531732+393376079+392201017+391194676+389976753+388656705
3591+387786110+386888944+385237634+383566213+382525971+381559373+380310301
3578+378971631+377617007+376221769+375002273+373942173+372406330+370389013
3564+368801855+367690411+366424318+364909596+363406053+361936384+360310212
3551+358646431+357123114+355469248+353607788+351828231+350209811+348616753
3537+346880058+345020592+343272212+341654999+339927263+338024993+336100983
3524+334232585+332435417+330648979+328725221+326711388+324799680+323010769
3510+321174532+319245719+317382995+315513193+313506466+311551475+309711221
3497+307835212+305921173+304035951+302145562+300184167+298156711+296157652
3483+294200021+292214977+290297202+288468492+286541729+284489556+282431064
3470+280415208+278457971+276572187+274679438+272704112+270759261+268936955
3456+267126727+265244033+263346818+261513895+259731248+257967588+256253784
3443+254537816+252779016+251027742+249275065+247569237+245991965+244506594
3429+243045604+241588573+240159069+238737316+237268770+235819099+234478588
3416+233162655+231783932+230403426+229095090+227873656+226671954+225394008
3402+224084169+222899333+221876393+220903560+219901235+218874292+217902906
3389+217090719+216393100+215679962+214908867+214166673+213498181+212889655
3375+212387832+211952788+211467958+211002340+210690571+210533001+210507708
3362+210583418+210661515+210649479+210589204+210584878+210658565+210879346
3348+211259901+211624362+211924405+212271705+212689841+213166048+213741122
3335+214428307+215160543+215835819+216435933+217072617+217856941+218767195
3321+219720774+220715122+221736672+222717159+223663688+224616087+225586491
3308+226624654+227807538+229142557+230537262+231871930+233107786+234321117
3294+235595186+236970398+238461555+239997735+241481196+242921317+244390341
3281+245933627+247559856+249237315+250907866+252547604+254213604+255969793
3267+257804317+259679174+261563160+263433242+265300235+267208461+269189151
3254+271218629+273257713+275273878+277280746+279366877+281548195+283749174
3240+285955238+288197899+290465305+292725970+295002448+297358834+299804707
3227+302271899+304716760+307156707+309582329+311987924+314418462+316862621
3213+319278946+321693417+324120107+326537639+328942224+331342961+333774312
3200+336245969+338710015+341148613+343539182+345826783+348066438+350375442
3186+352738850+355074256+357389270+359696307+361940232+364121915+366281326
3173+368411890+370531079+372659144+374756987+376806716+378829734+380817222
3159+382752607+384653165+386526562+388376365+390216535+392022634+393745652
3146+395367358+396951764+398583133+400243263+401875698+403472182+405016143
3132+406484268+407906132+409301876+410653495+411979947+413280334+414517553
3119+415732358+416975616+418194381+419338856+420429206+421480487+422509803
3105+423530132+424503554+425427319+426367598+427310265+428169625+428984130
3092+429829137+430650916+431396382+432091235+432760191+433379207+433921770
3078+434443942+435007851+435569485+436057587+436462719+436799093+437080078
3065+437337611+437613962+437902784+438116641+438193011+438193179+438209470
3051+438210846+438102289+437880006+437593346+437275004+436918071+436459517
3038+435878615+435225303+434486494+433586576+432507377+431281280+429938818
3024+428481142+426849830+424994549+422930018+420654158+418093773+415161736
3011+411809963+408040474+403863944+399219535+393982287+388063894+381453315
2997+374037277+365733257+356271787+345264783+332771370+319129971+304219137
2984+287699573+269890239+252076130+236052897+223179828+214052400+208949100
2970+207261824+207325007+208327977+211235002+217519346+227657524+240424016
2957+253400167+264179635+271418302+275017722+275251380+272176688+266080586
2943+258167570+250727208+246171274+245587844+248411857+253227205+258782486
2930+264571959+270655085+277137557+283933568+290829906+297546037+303750135
2916+309048641+313023729+315473366+316559812+316638512+316066991+315105787
2903+313948167+312947612+312276634+311362504+309455908+306360262+302251732
2889+297094645+290480781+282424604+274007589+267218095+264406637+266990896
2876+274292198+284265616+295203244+306283303+317156471+327621417+337482626
2862+346572108+354866775+362547733+369913186+377185108+384463772+391676486
2849+398475193+404557364+409968810+414855949+419274143+423264004+426895640
2835+430250110+433427798+436541532+439611421+442570449+445394125+448109805
2822+450685919+453058877+455249913+457317703+459293506+461198192+463071533
2808+464953721+466839926+468708211+470534477+472291958+473974164+475564750
2795+477002203+478267369+479429117+480503851+481436856+482234030+482956100
2781+483615815+484183628+484675381+485129329+485548673+485915100+486226588
2768+486490834+486684300+486813164+486961802+487196107+487489507+487748922
2754+487927445+488090969+488258370+488347968+488359091+488369596+488434196
2741+488595755+488899098+489378155+490039275+490859818+491726200+492473829
2727+493077875+493619736+494145025+494723512+495500070+496498799+497569826
2714+498618213+499626829+500543544+501338190+502036835+502687337+503340761
2700+503999521+504618398+505159191+505606622+506010350+506430929+506814546
2687+507072444+507200747+507265741+507326410+507398145+507552007+507895740
2673+508431253+509093777+509810116+510503424+511151174+511778532+512389600
2660+512963986+513508993+514030968+514499015+514925325+515387642+515898775
2646+516368508+516745552+517085858+517456443+517859440+518259178+518627403
2633+518937544+519187802+519420983+519673544+519930487+520154287+520363313
2619+520584922+520766759+520878603+520957641+521036229+521131558+521230425
2606+521303733+521371367+521454618+521522926+521558036+521570675+521567754
2592+521577641+521617412+521660273+521685046+521690664+521696001+521729761
2579+521811496+521942270+522089167+522232412+522387398+522561259+522762420
2565+522983243+523177214+523308831+523382364+523428764+523469322+523512184
2552+523564257+523622174+523688572+523770643+523874960+524011801+524199424
2538+524457940+524758531+525056369+525343871+525635810+525964769+526319625
2525+526643809+526939849+527257910+527601530+527951499+528312084+528664243
2511+528987921+529314914+529665725+530020636+530387850+530786128+531177778
2498+531542632+531908217+532266668+532583380+532859142+533124623+533391846
2484+533656597+533939886+534264463+534608252+534943278+535257294+535549740
2471+535861060+536196479+536521168+536862092+537239249+537597025+537917052
2457+538247415+538616876+538993190+539312880+539574486+539838731+540131851
2444+540432329+540708764+540977055+541247367+541494760+541741255+542008702
2430+542269914+542497647+542671002+542791384+542903733+543019678+543104670
2417+543188876+543315999+543463851+543612152+543803033+544067335+544354725
2403+544631610+544909787+545162853+545403337+545651742+545925593+546191243
2390+546406055+546566265+546710185+546861013+546976677+546984429+546894887
2376+546776021+546583117+546204332+545678424+545144035+544667337+544459097
2363+544707670+545273967+546059289+547007011+547665491+546996170+545605959
2349+545806166+547748180+549023289+548629055+547975968+547868169+548136515
2336+548679443+549383087+549998818+550358897+550617469+551023893+551639961
2322+552321865+552833167+553124095+553414630+553812291+554177482+554479983
2309+554807987+555187615+555598533+556001923+556348465+556631079+556909369
2295+557190298+557425052+557608406+557772773+557928096+558073982+558215205
2282+558346653+558468440+558573262+558637020+558653142+558651064+558659041
2268+558663479+558633931+558569779+558530850+558581913+558711059+558879245
2255+559064734+559245167+559435656+559724786+559923926+560092225+560232156
2241+560370795+560543701+560753120+560967595+561165217+561363851+561564731
2228+561748535+561926889+562104795+562278037+562441168+562581100+562696426
2214+562790856+562881859+562972805+563032631+563046113+563049989+563110658
2201+563251881+563446133+563675494+563960525+564307965+564659506+564948525
2187+565180975+565411348+565660426+565910291+566149764+566377552+566598543
2174+566821556+567020864+567168997+567297749+567445825+567618787+567815511
2160+568024368+568222047+568396469+568574093+568777165+568980573+569164489
2147+569330654+569468450+569579451+569696182+569849764+570029186+570205012
2133+570408702+570667948+570917082+571131613+571360975+571618423+571892892
2120+572170676+572430428+572671249+572915159+573170248+573411743+573634869
2106+573880184+574174539+574477770+574740836+574963062+575197760+575448580
2093+575726476+575988194+576199692+576371024+576521067+576650830+576752169
2079+576814748+576836937+576845475+576867496+576903392+576950691+577014056
2066+577093711+577219318+577439410+577759325+578147211+578558409+578963373
2052+579371987+579793353+580207810+580562609+580829663+581045599+581242154
2039+581421126+581590324+581780307+582042137+582395869+582802686+583225625
2025+583650025+584080997+584558594+585063716+585499969+585874204+586281751
2012+586706432+587070275+587373562+587667075+587972553+588267470+588541209
1998+588790568+589045882+589317205+589514322+589661893+589856932+590075732
1985+590292903+590501086+590702079+590903129+591090246+591264107+591431283
1971+591636376+591872479+592054372+592213122+592401588+592552585+592646790
1958+592730209+592781665+592765768+592684652+592523655+592260308+591961122
1944+591642331+591265905+590996772+590874536+590720898+590536533+590407893
1931+590364638+590448900+590767523+591300620+591952078+592837110+593822526
1917+594657674+595505462+596359823+597028975+597570218+598080340+598549062
1904+598932342+599264221+599628627+600012861+600298397+600524500+600831101
1890+601057429+601193540+601459977+601730064+601901566+602068011+602239737
1877+602378489+602503927+602747837+603014386+603065055+603146396+603496252
1863+603835659+604033563+604211580+604388025+604541775+604681594+604791415
1850+604835681+604952693+605035045+604822648+604812481+605190985+605418324
1836+605437367+605609711+605917998+606039728+606201848+606620855+606898583
1823+607065871+607331128+607537120+607656941+607819566+608017077+608148244
1809+608269076+608453104+608666680+608871212+608974012+608976821+609086867
1796+609387177+609555701+609442958+609537275+609944261+610181936+610191935
1782+610207551+610188733+610177498+610354897+610512917+610373604+610331697
1769+610595774+610854290+611091291+611168644+611128198+611343010+611584617
1755+611803361+612206133+612468638+612564472+612837761+613191943+613457986
1742+613540282+613451132+613698919+614127363+613979399+613885587+614365431
1728+614756969+614837242+614748486+614753261+615001778+615015709+614721298
1715+614763766+615147551+615452467+615550323+615363149+615199232+615473027
1701+615561952+615407527+615726319+615925795+615921076+616024381+615933716
1688+615920739+615828725+615249789+615041887+615415673+615629754+615284280
1674+614841680+614896844+614962961+614779495+614978241+615278101+615028348
1661+614592152+614538168+614957007+615117554+614372509+614165169+614953917
1647+615148562+614736353+614773203+615069187+615379552+615710983+615871980
1634+616295817+617227755+617998078+618443319+618999785+619520075+619878132
1620+620523354+621296374+621893566+622845783+624131677+625139057+625872193
1607+626644875+627489742+628285906+629010671+629720157+630397231+630989817
1593+631518533+632019386+632463335+632827459+633108950+633270733+633387520
1580+633633060+633694009+633290731+633211525+633565819+633439313+632965536
1566+632664159+632498837+632538553+632217683+631294621+631076214+631402476
1553+631304283+630817417+630224156+629620110+628969158+628319386+627478845
1539+626405740+625938535+625708444+624750160+623566504+622696583+621621400
1526+620299891+619072812+617696083+616342667+615256193+614014845+612525262
1512+610973774+609452002+607532458+604759733+602155644+600172004+597757505
1499+594252037+589821092+585156292+580389479+574437155+566962948+559059847
1485+551464864+544120589+536995675+530480650+524789146+519335766+512897869
1472+505180987+497852777+492130096+487479508+482916272+478119068+473843165
1458+472390039+476551008+485701299+496347690+506028550+513819358+519418792
1445+522859827+524612364+525588118+526645269+527994697+529515233+530920779
1431+531785756+532192517+532575404+532990141+533438415+534085379+534806156
1418+535556537+536443029+537232227+537832341+538430095+539141435+539948834
1404+540890265+542039205+543017824+543089110+541606323+538668725+535258530
1391+531418093+526037291+519522547+514340715+512636881+515358712+522181630
1377+531262265+540382390+548275660+554838209+560484380+565399158+569428173
1364+572277071+573867657+574554897+574725612+574561189+574162349+573551337
1350+572708829+571913789+571814641+572853535+574705333+576619878+578313151
1337+580025074+581934113+584055437+586406684+588988303+591758107+594682841
1323+597735203+600868233+603997105+607035986+609923532+612594019+615009642
1310+617130067+618883784+620228100+621181777+621852390+622416215+622995713
1296+623634307+624379520+625235959+626156549+627063658+627791063+628158277
1283+628052500+627413794+626311591+625123441+624507373+625023281+626761382
1269+629366257+632348907+635264877+637789423+639795195+641301744+642342660
1256+642861658+642735827+641890735+640409185+638396278+635660965+631991636
1242+627919703+624424460+621893342+620448810+620679857+623036665+627243641
1229+632574504+638240786+643599681+648296557+652311641+655759810+658728809
1215+661299193+663520845+665446232+667181130+668792781+670270343+671619097
1202+672885779+674054774+675156471+676155313+677050850+677849091+678569251
1188+679236212+679805430+680198316+680471044+680778095+681133399+681377366
1175+681396241+681262208+681051160+680689170+680125008+679387884+678479708
1161+677449409+676411020+675386563+674320817+673177663+671884185+670300340
1148+668326981+665953489+663190594+660139692+657044468+654093838+651367513
1134+648917736+646752034+644842882+643164215+641643960+640054329+638109506
1121+635624171+632333178+627758707+621347099+612486164+600436699+584530225
1107+564618611+541669126+518169131+497406975+481536397+470451788+463053248
1094+458991286+458762346+462838661+470624694+479973674+488050861+492237277
1080+490045061+478821476+456588022+425007160+392033167+368956616+361905151
1067+366158921+369450897+360940239+338393751+308637330+282004417+266186447
1053+264547102+278036183+306162752+346563345+394925235+445721876+493648834
1040+534945750+568035940+592999455+610521174+621353166+625866576+624021519
1026+614486375+593301955+558155323+516693984+486617564+482757634+504439257
1013+538433634+572339593+601580584+626415402+647492866+664673830+677682983
999+686706094+692281317+694964331+695222454+693319987+689307150+683100861
986+674442772+662779508+646982912+624873801+593197526+549398816+495724263
972+443176209+409279912+407511758+438008983+488901738+545122239+596140798
959+637772458+669775669+693501375+710723627+723122836+732112748+738726921
945+743653552+747358832+750156892+752246758+753794258+754957467+755760877
932+756142471+756145336+755875698+755295076+754280787+752819178+750867783
918+748229933+744766821+740518837+735668773+730529971+725603397+721750995
905+719857965+719860380+720348145+719313857+715071209+706434243+692860366
891+675190232+656129383+639495953+628207430+623690032+628129740+643972737
878+668906422+695323737+716645560+731092785+739657960+743571593+743596984
864+740190945+734400574+729024040+727977001+733083840+741976345+750615278
851+756950825+761095784+763734140+765422469+766475744+767033109+767190567
837+767071308+766808354+766441478+765944107+765294728+764475140+763605612
824+762781080+761786789+760494491+759015749+757395784+755623249+753566357
810+751045126+748227405+745744485+744304897+744190357+745027472+746029628
797+746703162+746974822+746776919+746164728+745352779+744372812+743158541
783+741820011+740467999+739036725+737385527+735419020+733154058+730826236
770+729043308+728139570+727521649+726383213+724336265+721264747+717588227
756+714794942+714589399+716963453+720210854+722845052+724395304+724990868
743+725017720+724798639+724471758+724068424+723542629+722869601+722129949
729+721546013+721122400+720546217+719889142+719163702+718334845+717484192
716+716816050+716291042+715771764+715225914+714671976+714143934+713700548
702+713304011+712749061+712012162+711346211+710852773+710430957+710086157
689+709909095+709870447+709844606+709782196+709699058+709639737+709555082
675+708923679+707885796+708706901+711780385+712784283+710919284+710091213
662+710874962+711705673+712280901+712931966+713738297+714699558+715822939
648+716960251+717937971+718817891+719803475+720908206+722062876+723322537
635+724725162+726254180+727933522+729785488+731670766+733398811+734813738
621+736312591+738272581+740474628+742538822+744369722+746175513+748150727
608+750228908+752421630+754818041+757379943+760010378+762694965+765485048
594+768278164+770969324+773591052+776248001+778922982+781473256+784125261
581+787193802+790373850+793139272+795644943+798501650+801738714+804779730
567+807467126+810159296+812962581+815939669+819008603+821812674+824445299
554+827106069+829892500+832901946+835872518+838676701+841411564+844089467
540+846951453+850009153+852728736+855003529+857285625+859762422+862422349
527+865380225+868427476+871120995+873538753+875940276+878453530+881133342
513+883590703+885535470+887230989+888932127+890539733+891783496+892780035
500+893864431+894778055+895064883+894782662+894214006+893319312+891785350
486+889952427+888954597+889672396+892241545+895704937+898476146+899615930
473+898793420+896675692+894889450+894478869+896427512+901866062+910537295
459+921123916+931784462+940527880+947115483+952208839+956073207+959099561
446+961459571+963046392+964126856+965212150+966638650+968890018+972486207
432+977206789+982863578+989677452+997111831+1004289942+1010904958+1017338417
419+1024230037+1031347142+1038000020+1043570412+1048026860+1051922124
407+1054765573+1057081205+1061013094+1066750437+1073741823
##END=
