##TITLE=7
##JCAMP-DX=4.24
##DATA TYPE=INFRARED SPECTRUM
##DATE=16/11/2015
##SAMPLING PROCEDURE=Instrument type and / or accessory
##ORIGIN=Default
##XUNITS=1/CM
##YUNITS=TRANSMITTANCE
##RESOLUTION=4
##FIRSTX=3996.3359
##LASTX=399.24785
##DELTAX=-1.9287336
##MAXY=0.57811689
##MINY=0.11198302
##XFACTOR=1
##YFACTOR=5.3841331e-010
##NPOINTS=1866
##FIRSTY=0.21993847
##XYDATA=(X++(Y..Y))
3996+408493746+408605143+408649203+408662764+408698964+408833027+409010126
3983+409067471+409018014+409057674+409216673+409369057+409504393+409668291
3969+409847742+410008900+410144430+410274480+410389667+410469070+410503582
3956+410529515+410628982+410799522+410896167+410865696+410936491+411080296
3942+411064161+411083589+411244277+411437594+411627064+411590947+411400204
3929+411499090+411779725+411801534+411740010+411944315+412161710+412136996
3915+412127254+412267765+412265662+412173030+412343293+412512615+412360397
3902+412191075+412086653+411981346+412250717+412750104+412657638+412310912
3888+412631235+412851868+412600597+412749273+412806978+412591880+412768923
3875+412999659+413160872+413089163+412643495+412716394+413074329+412867671
3861+412418102+412356799+413122181+413912886+413168455+412043229+412300976
3848+413070758+413328118+413162781+413167735+413451055+413319760+412943255
3834+413068434+413324603+413337002+413301771+413274620+413567350+413759809
3821+413258762+413309520+413767310+413364540+413040730+413532727+413993285
3807+413700029+413572387+414126517+414002307+413535495+413724522+413821361
3794+413751479+413922517+414097623+414161085+414071137+413897221+413915875
3780+413888060+413599039+413468768+413675868+413914159+413828584+413608892
3767+413585921+413578559+413706395+413852607+413467384+413097632+413517561
3753+414063001+413559296+412786165+413423158+414065602+413090824+412506084
3740+413285718+413778684+413304012+412674022+412361283+412419485+412675932
3726+412664612+412455077+412351208+412190549+411966290+411975506+412252184
3713+412102013+411228003+410511664+410381060+410449752+410056282+409038799
3699+408004295+407080607+406071261+405227362+404581375+403553652+402269012
3686+401606309+401364614+400895615+400615063+400744089+400202025+399448600
3672+399849266+400109587+399611307+399613383+399971124+400026338+400069844
3659+400230061+399939518+399634196+400232331+400750869+400128075+399365738
3645+399375286+399657803+399629878+399353367+399017102+398588732+398319527
3632+398457133+398000561+396579118+395846422+396030772+396023604+395273915
3618+394076704+393255887+392712108+391999698+391231355+390207645+388989539
3605+388112207+387383497+386348827+385200021+384145757+382923942+381625658
3591+380717163+379796879+378243836+376707261+375716569+374724797+373427786
3578+372056437+370712100+369335465+368080549+366993323+365579270+363822061
3564+362454365+361394400+360064537+358538479+357134057+355746933+354093316
3551+352375878+350875614+349317507+347581747+345929763+344384719+342774525
3537+341020416+339224434+337547402+335943298+334226939+332367550+330456297
3524+328529711+326671152+324957810+323238296+321389895+319532554+317738703
3510+315898411+314023357+312259147+310447361+308428696+306467238+304697437
3497+302938236+301105527+299249044+297356638+295378823+293404192+291571123
3483+289767031+287797021+285808994+283972300+282134332+280162690+278105528
3470+276073551+274141790+272291949+270453539+268581751+266710822+264862116
3456+263008816+261167389+259368168+257600526+255795244+253968319+252264027
3443+250648133+248998584+247323435+245639900+244023313+242536555+241097704
3429+239653263+238228970+236824188+235434213+234044625+232633617+231255058
3416+229922677+228611081+227345454+226109137+224916257+223784043+222603784
3402+221315947+220046778+218940663+217922267+216879709+215909926+215143465
3389+214486200+213716999+212827117+211987591+211289352+210695465+210193117
3375+209784978+209335270+208767398+208288409+208084754+208059957+208042147
3362+207993396+207987099+208061936+208161403+208222374+208274363+208447076
3348+208772989+209117791+209428510+209785767+210218828+210738073+211380946
3335+212074674+212734956+213415026+214133690+214837340+215606085+216537730
3321+217510198+218405435+219318745+220346579+221418169+222422533+223379018
3308+224379549+225479700+226733232+228130237+229519755+230789215+231988474
3294+233226604+234590038+236076076+237581820+239036751+240480113+241973901
3281+243522736+245104534+246699782+248275657+249824521+251430120+253167955
3267+254980710+256810153+258676378+260552455+262388762+264216544+266100205
3254+268079763+270153669+272269808+274379084+276473941+278578733+280741728
3240+282991737+285277890+287502216+289683255+291979760+294409857+296801401
3227+299090820+301360949+303662878+305998378+308396371+310871773+313347618
3213+315768970+318162866+320545858+322922125+325276251+327604472+329943127
3200+332290694+334655365+337067832+339466101+341772292+344038602+346350273
3186+348674868+350937553+353131849+355281228+357412727+359570713+361750369
3173+363898059+366013313+368109277+370159243+372152639+374103331+376021615
3159+377907655+379753095+381543432+383286720+385021621+386745619+388423120
3146+390080695+391754045+393383557+394912687+396390838+397879422+399349630
3132+400762023+402161546+403572527+404957576+406290095+407534743+408699490
3119+409856294+411039197+412226583+413379208+414464580+415497839+416522157
3105+417540747+418524548+419447407+420322247+421186958+422022858+422809384
3092+423574572+424317591+425009853+425681302+426377078+427040418+427612233
3078+428123936+428606246+429058252+429475136+429865535+430229641+430553922
3065+430853847+431136613+431368899+431544420+431671952+431722543+431708650
3051+431663815+431558673+431384951+431167998+430900426+430560149+430144205
3038+429636294+428998527+428230350+427357032+426405446+425388738+424256953
3024+422943862+421466652+419867169+418076749+416002595+413640249+410982959
3011+407977726+404576836+400745279+396434123+391558680+386044584+379887739
2997+372955273+365110271+356095292+345624413+333705716+320434573+305647916
2984+289237588+271600906+253909646+237947781+225169133+216185677+211136691
2970+209339463+209249391+210120786+212890219+219045015+229049636+241670405
2957+254552229+265332360+272602115+276142963+276247772+273112461+267052317
2943+259180884+251720857+247104739+246457672+249205324+253923429+259389258
2930+265131736+271178375+277592026+284298822+291102456+297741889+303886639
2916+309142407+313119900+315630977+316819553+317011542+316572627+315801461
2903+314852006+313898040+313021982+311876608+309936820+306940388+302895116
2889+297726307+291130963+283150044+274756530+267897073+264960366+267378230
2876+274466707+284216707+294975832+305881779+316485835+326605034+336159835
2862+344997688+353028230+360425654+367476547+374419669+381415513+388359825
2849+394930593+400890772+406182657+410862070+415040049+418817748+422269728
2835+425476914+428547601+431571543+434520317+437329299+440031590+442658574
2822+445163202+447496986+449660673+451672696+453546171+455317439+457074648
2808+458901268+460770011+462608864+464395825+466108918+467720716+469229837
2795+470641814+471939600+473098010+474107300+474978653+475746886+476430927
2781+477027346+477553192+478039073+478484823+478866033+479177666+479438319
2768+479679211+479912078+480116825+480295447+480483755+480699628+480916885
2754+481116485+481311656+481482584+481583269+481614100+481632311+481685339
2741+481816136+482105406+482578390+483199828+483955329+484767290+485487919
2727+486053064+486524830+487019678+487640729+488456454+489467128+490567307
2714+491619330+492548581+493342054+494033125+494680745+495332682+496002222
2700+496663846+497274546+497812901+498291807+498715638+499078693+499382189
2687+499623856+499807847+499930452+500000583+500063850+500190330+500488844
2673+501012641+501685667+502401260+503076224+503685429+504281516+504880703
2660+505448173+505975457+506465877+506934599+507412454+507904590+508371651
2646+508795538+509224683+509657758+510034374+510359899+510676347+510990914
2633+511305757+511610857+511862156+512070612+512308516+512577804+512825947
2619+513035234+513189998+513271643+513316865+513371221+513441684+513527536
2606+513623129+513722763+513825884+513926735+513999745+514027089+514034672
2592+514040484+514046960+514087810+514155782+514187112+514192813+514257519
2579+514395180+514523320+514607843+514714894+514890637+515119850+515358861
2565+515567483+515736196+515854982+515925002+515977199+516028954+516086686
2552+516151725+516213055+516272724+516356749+516469612+516603509+516782960
2538+517013502+517263361+517527612+517821034+518152427+518517308+518876710
2525+519189228+519486856+519825335+520166525+520481091+520827153+521202994
2511+521569812+521941170+522284408+522589786+522956272+523391229+523784395
2498+524108039+524421056+524750733+525068731+525359662+525651091+525961229
2484+526280721+526586099+526868173+527141945+527420753+527712847+528020438
2471+528340983+528668723+528992256+529314350+529654821+530010735+530371686
2457+530749022+531119659+531448562+531756873+532063579+532351355+532620366
2444+532888160+533159109+533439855+533713405+533958283+534177698+534381505
2430+534604353+534843252+535041026+535185107+535304059+535428767+535556022
2417+535653995+535755566+535917748+536107993+536302445+536541954+536822312
2403+537102339+537357733+537581190+537812894+538055613+538312115+538582953
2390+538841835+539043372+539172951+539236661+539233230+539157231+539021951
2376+538866577+538701517+538545424+538444296+538367633+538301598+538414627
2363+538812664+539346535+539934818+540595833+541039259+540743014+540334294
2349+540918314+541906627+542039638+541640328+541664295+542040745+542506312
2336+542947523+543326409+543629794+543889506+544261694+544769826+545194322
2322+545406652+545566399+545845650+546225975+546561907+546780492+546987564
2309+547289953+547682676+548104515+548469341+548749755+549009744+549271449
2295+549503761+549726831+549979845+550243709+550465948+550631450+550759867
2282+550863376+550963452+551072441+551155967+551179492+551159897+551142129
2268+551152037+551176890+551183754+551182758+551228478+551333094+551459352
2255+551600998+551786040+552025715+552344433+552546136+552739481+552932881
2241+553098827+553263776+553440903+553616037+553831855+554078615+554268860
2228+554410451+554578943+554777491+554968013+555134457+555271951+555393339
2214+555502382+555576277+555621611+555664010+555716595+555796690+555912375
2201+556056125+556217975+556415083+556691069+557033090+557370406+557676835
2187+557963227+558238327+558516527+558785538+559014918+559218115+559437863
2174+559672501+559882064+560070538+560249159+560401765+560550386+560731996
2160+560940175+561140882+561307658+561452625+561617519+561815680+562019044
2147+562203089+562359182+562500884+562646792+562782128+562915527+563089554
2133+563291035+563487369+563711435+563996775+564299939+564561920+564793901
2120+565044480+565315097+565567060+565793616+566019729+566245787+566471679
2106+566726355+567014739+567308548+567575235+567794927+568035045+568301123
2093+568586075+568857744+569098470+569312738+569483942+569574443+569610699
2079+569655091+569706458+569744208+569783729+569826516+569844893+569845059
2066+569896260+570075989+570373285+570712925+571072216+571455585+571845762
2052+572240091+572648257+573048508+573393740+573678028+573912002+574109553
2039+574316294+574536761+574746269+574976091+575282686+575658417+576059221
2025+576468827+576877326+577303039+577757867+578194319+578617265+579065894
2012+579487123+579843646+580174375+580483462+580757510+581019602+581285680
1998+581521037+581726394+581940662+582137826+582349991+582619556+582886297
1985+583129293+583341181+583519969+583708277+583916013+584106535+584247738
1971+584393259+584584058+584763177+584942352+585170514+585382014+585514582
1958+585602426+585676045+585699459+585631818+585479766+585251217+584991837
1944+584704836+584358332+584110520+583991679+583850753+583716690+583647002
1931+583631558+583703627+583992233+584505181+585155735+586064395+587078114
1917+587901864+588707791+589530213+590162722+590640688+591106420+591594737
1904+592024712+592361198+592673495+592994205+593258345+593519718+593871038
1890+594105675+594226398+594493472+594784127+594951899+595085021+595254952
1877+595427263+595548705+595750519+596032483+596173908+596304207+596614400
1863+596918394+597140633+597355177+597538116+597678655+597796611+597871834
1850+597886890+598021230+598191714+598086545+598109350+598458622+598673997
1836+598702393+598870442+599184676+599331691+599467525+599806225+600049055
1823+600253415+600556578+600765477+600886200+601069084+601284570+601423005
1809+601557068+601751243+601934348+602083135+602195832+602280520+602433071
1796+602723614+602907439+602832824+602935170+603298391+603472473+603480333
1782+603564524+603585170+603547918+603737887+604026548+604028817+603980495
1769+604144116+604359712+604645772+604812770+604820574+604998310+605166414
1755+605295163+605583161+605794993+605951806+606295487+606682786+606994584
1742+607139053+607058405+607239684+607648182+607607111+607606336+608063157
1728+608403019+608465844+608363387+608332833+608559721+608647067+608513336
1715+608651827+608999162+609229814+609325075+609203134+609078703+609355906
1701+609494729+609423380+609782284+609974522+609917620+609931015+609763409
1688+609764903+609813613+609374837+609144904+609413915+609596743+609307861
1674+608935562+609042779+609128796+608876446+608947020+609209278+609041008
1661+608635830+608455050+608727327+608958312+608439164+608251410+608877553
1647+608983110+608550699+608484719+608595091+608762476+609113685+609405004
1634+609836584+610590757+611155182+611486022+612031960+612604799+613019719
1620+613732931+614621886+615281241+616144180+617318476+618319076+619115704
1607+619946816+620816675+621615019+622345999+623082680+623812277+624473956
1593+625052054+625559633+626006822+626405302+626732544+626930760+627070690
1580+627362230+627562273+627322321+627267965+627567586+627459982+627055635
1566+626753523+626488331+626459381+626301462+625696574+625590464+625786853
1553+625512583+624902049+624243082+623625961+623067791+622700751+622232139
1539+621303663+620685712+620277434+619260727+618067778+617175114+616099733
1526+614857797+613781143+612539539+611228358+610111906+608834489+607316678
1512+605727796+604230631+602568850+600241736+597908090+595932130+593499072
1499+590121485+585946440+581500944+576821143+570937323+563646119+555990920
1485+548590783+541376409+534380453+528013077+522456664+517139262+510881150
1472+503362007+496188758+490579872+486028543+481531736+476763427+472546315
1458+471211886+475461103+484598300+495155611+504698539+512326560+517785498
1445+521123674+522760603+523584962+524509010+525793346+527309496+528743060
1431+529655042+530106605+530501598+530910816+531393044+532142456+533016964
1418+533952913+535064606+536117016+536993406+537854685+538757312+539633979
1404+540544355+541580824+542391733+542403080+541138505+538519741+535156711
1391+531105102+525607695+519244469+514304071+512714468+515388253+522037925
1377+530831053+539593129+547174489+553530241+558995323+563670751+567400543
1364+569983827+571468869+572175993+572341773+572104865+571617490+570932950
1350+570034862+569201702+569086957+570122706+571941134+573803622+575475699
1337+577169032+579027424+581074567+583348875+585902712+588705245+591657894
1323+594685987+597744856+600778485+603741761+606590680+609226050+611574973
1310+613626821+615323640+616575927+617427741+618060194+618648975+619284915
1296+619977758+620727835+621531658+622390668+623287483+624071657+624529917
1283+624507444+623920490+622859500+621736018+621193623+621765134+623550295
1269+626212123+629257819+632233328+634819601+636895693+638468745+639558075
1256+640120010+640072407+639367996+638026039+636045263+633280424+629685912
1242+625767258+622320039+619764043+618384779+618742575+621193291+625434703
1229+630700849+636218570+641424549+645975102+649825562+653105785+655876491
1215+658202277+660231984+662039009+663621361+665051881+666409890+667678672
1202+668835974+669877812+670878578+671822941+672710844+673515221+674185536
1188+674705901+675122260+675473358+675791245+676137584+676462501+676641122
1175+676656012+676556544+676352405+676013041+675508839+674803874+673888627
1161+672860018+671827480+670798262+669748177+668639252+667372962+665845575
1148+663992386+661752950+659088575+656108084+653068035+650178930+647541844
1134+645204103+643147384+641325468+639737471+638338280+636907040+635153872
1121+632845965+629715802+625378797+619297148+610770319+599109176+583743757
1107+564402451+541923343+518843056+498481942+482949194+472145787+465020142
1094+461263808+461460059+466049912+474242083+483893446+492335420+496942765
1080+495102584+484133508+462131176+430718207+397742038+374675866+367954485
1067+372659305+375989732+367112496+344263027+314365848+287519873+271433050
1053+269700197+283351332+311818710+352572488+401063028+451682742+499222941
1040+539988343+572389431+596536796+613279874+623567620+627857023+625879734
1026+615971205+594398322+559265109+518079196+488184177+484265357+505658290
1013+539203395+572555376+601220638+625530573+646118797+662867852+675572272
999+684359201+689675718+692148629+692358580+690538436+686632292+680555071
986+672125772+660783291+645341542+623632382+592355663+548901973+495710405
972+443843552+410402952+408588565+438735520+489138835+544727869+595057566
959+636114121+667711440+691055314+707839684+719843900+728510383+734860047
945+739625699+743235266+745916745+747894698+749396789+750513684+751226896
932+751605449+751739069+751554304+750925061+749850289+748370892+746417626
918+743861354+740618605+736616757+731931255+726947958+722209041+718552535
905+716909684+717174489+717839987+716937581+712885086+704550218+691348459
891+674012449+655221731+638879901+627873573+623558210+628172142+644012150
878+668533973+694290480+715005737+728985193+737201497+740887506+740782780
864+737263159+731327142+725838591+724785904+729913781+738723847+747181320
851+753320978+757300796+759800498+761355560+762274904+762744733+762935089
837+762919811+762710248+762358209+761932662+761401558+760602882+759587392
824+758603231+757573183+756326820+754977335+753590985+751983560+749944442
810+747505572+744906237+742565506+741112346+740944740+741812329+742969687
797+743717937+743857590+743558910+742989614+742217341+741293901+740327342
783+739275541+737912827+736297043+734570943+732559446+730216225+727949887
770+726313568+725438949+724908620+724004166+721998593+718766803+715078470
756+712360625+712052147+714295957+717566382+720248801+721836134+722516356
743+722630880+722485747+722181974+721675945+721059599+720510617+719989919
729+719445642+718851160+718142265+717619464+717056090+716415943+715682084
716+714929683+714261915+713695331+713185537+712680560+712146135+711608943
702+711097821+710574190+710038216+709577409+709257917+709040659+708881190
689+708788309+708688232+708490404+708297391+708280177+708401010+708403557
675+708037679+707452718+707274373+708026276+709431335+710409518+710539263
662+710375365+710550887+711079168+711635124+712190029+712996676+714071559
648+715182421+716250994+717336394+718416812+719408888+720388344+721575204
635+723013695+724583537+726244820+727967711+729661652+731410336+733137655
621+734774805+736507326+738500169+740570006+742417162+744144425+746075495
608+748267661+750593225+752880818+755164536+757602243+760111743+762564395
594+765011292+767678987+770641987+773722388+776735813+779464673+781961608
581+784555242+787351133+790271235+793169749+795939957+798689076+801521057
567+804435457+807275076+809908841+812681485+815770798+818757488+821429999
554+824018486+826697529+829367273+831942586+834561184+837379715+840263450
540+842944652+845534135+848308328+851179443+853854334+856331564+858919386
527+861817402+864690565+867148864+869509632+871990293+874443222+876959475
513+879403659+881627209+883722951+885464827+886806840+888233209+889787884
500+891028491+891814104+892021231+891573156+890924208+890215424+888954668
486+887507708+887022768+887866445+889930028+892872990+895475813+896511009
473+895781855+894118191+892686066+892540213+894912550+900623007+909125371
459+919129161+929323030+938269041+945403487+950953202+955073504+958189054
446+960795696+963048417+964973786+966573019+968084575+970165372+973388416
432+977984414+984000083+990815258+997368175+1003353069+1009051127+1015028161
419+1021874001+1028686630+1034709385+1040559662+1045939335+1050100265
407+1053173637+1055837513+1059615517+1065695616+1073741823
##END=
