##TITLE=7
##JCAMP-DX=4.24
##DATA TYPE=INFRARED SPECTRUM
##DATE=16/11/2015
##SAMPLING PROCEDURE=Instrument type and / or accessory
##ORIGIN=Default
##XUNITS=1/CM
##YUNITS=TRANSMITTANCE
##RESOLUTION=4
##FIRSTX=3996.3359
##LASTX=399.24785
##DELTAX=-1.9287336
##MAXY=0.57619852
##MINY=0.11111142
##XFACTOR=1
##YFACTOR=5.3662669e-010
##NPOINTS=1866
##FIRSTY=0.21994273
##XYDATA=(X++(Y..Y))
3996+409861713+410045400+410302589+410520181+410599570+410586963+410556057
3983+410571441+410713586+410973580+411189811+411254705+411264507+411368777
3969+411561488+411754172+411920392+412005724+412023301+412080587+412176582
3956+412281379+412402365+412538624+412584664+412596965+412809114+412937375
3942+412894584+413013599+413168601+413270538+413273315+413105540+413132530
3929+413492767+413724160+413641272+413674982+413847784+413813407+413647658
3915+413736322+413922314+413872525+413888492+414170617+414213713+413992845
3902+413949304+413908902+413971685+414412173+414729869+414354692+414252922
3888+414739060+414536158+414229791+414433499+414305515+414321176+414686411
3875+414761774+414823142+414609521+414435498+414887675+414994028+414582531
3861+414319927+414626987+415428378+415429350+414153928+413799106+414653451
3848+415269322+415192654+414876346+414916971+415078249+414894034+414986364
3834+415409968+415431155+415279068+415218867+415238749+415612426+415457812
3821+414878623+415294230+415498826+415069779+415248579+415839292+415850593
3807+415170300+415314584+415821326+415376340+415254965+415586879+415525622
3794+415467920+415548586+415571218+415544366+415386031+415279374+415426379
3780+415388086+415215729+415327663+415642832+415781589+415463866+415252411
3767+415294063+415310724+415503685+415508628+415123733+415103684+415694925
3753+415842818+414971147+414653228+415757709+415760874+414557039+414675665
3740+415479916+415445428+414818727+414479760+414399621+414588306+414647536
3726+414332728+414133796+414093838+413947333+413758065+413839009+413991068
3713+413515843+412678131+412291876+412230813+412006696+411228131+410176049
3699+409390764+408553886+407505553+406488015+405418883+404033000+403014656
3686+402893920+402695794+402014445+401656791+401556770+400681960+400332192
3672+400879531+400527819+400078779+400498385+400927848+400948674+401003016
3659+401012152+400561752+400619704+401452417+401537332+400746410+400409110
3645+400790978+401013124+400781232+400485250+400289484+399989171+399810150
3632+399799681+398837124+397573754+397450546+397674663+397299931+396210612
3618+395158419+394722042+394202499+393426683+392607521+391466386+390369153
3605+389628242+388746657+387553291+386486381+385490696+384168485+382904865
3591+382072541+380901056+379152269+377847053+377074708+376090047+374791245
3578+373427992+372038332+370649033+369462137+368254053+366485774+364657098
3564+363488585+362474684+361079915+359484687+357973180+356481527+354874609
3551+353362269+351910408+350189279+348406921+346891832+345479430+343894227
3537+342098151+340312378+338634095+336903747+335035530+333150874+331338415
3524+329532676+327772228+326049182+324223117+322277149+320322767+318424977
3510+316522966+314689375+312975188+311120050+309107410+307241664+305511844
3497+303710465+301844747+299992607+298113227+296157651+294228372+292382452
3483+290441316+288407406+286522777+284748944+282875868+280894384+278842619
3470+276747841+274724455+272866095+271085181+269260421+267422333+265621287
3456+263823878+261988789+260168833+258406857+256576876+254700801+252971369
3443+251317633+249615470+247898950+246200591+244553187+242991059+241510985
3429+240108413+238756685+237423727+236060392+234620499+233181412+231794098
3416+230380252+228983775+227736080+226585060+225404286+224141444+222766598
3402+221402846+220299407+219428776+218508066+217450153+216413330+215537784
3389+214803718+214089408+213336376+212557645+211813665+211184618+210683096
3375+210255508+209829363+209346904+208867444+208564326+208487603+208491518
3362+208443924+208374975+208388359+208497502+208604549+208663292+208804077
3348+209130159+209550556+209958596+210347934+210743520+211192226+211759475
3335+212430716+213135321+213846006+214537615+215208148+215957889+216859329
3321+217846919+218848685+219840648+220803872+221763833+222746855+223714411
3308+224668290+225737047+227044041+228511563+229932601+231207245+232376300
3294+233531236+234795494+236238858+237762388+239268730+240796731+242356250
3281+243914629+245480173+247036470+248565248+250122267+251792886+253584546
3267+255404725+257207353+259050718+260968501+262908555+264796515+266646489
3254+268563412+270571914+272593689+274633764+276749868+278921231+281113475
3240+283347539+285617090+287876644+290127646+292413719+294742306+297070948
3227+299409281+301800262+304227981+306643343+309042488+311437524+313820730
3213+316223652+318639486+321029524+323408426+325769584+328109167+330472186
3200+332865805+335261035+337636606+339951030+342200977+344459004+346789284
3186+349133560+351387033+353588858+355818395+358032659+360200940+362366360
3173+364546470+366704893+368799449+370821807+372780188+374696805+376595762
3159+378464840+380299568+382132326+383975663+385795202+387527522+389174399
3146+390817110+392474345+394079708+395624953+397191552+398783004+400285180
3132+401686586+403086992+404493869+405846875+407136347+408381223+409595472
3119+410791726+411981927+413170073+414342280+415476583+416540828+417523989
3105+418477660+419432276+420366315+421280750+422173470+423019567+423805213
3092+424537488+425258323+425997985+426719292+427377121+427993297+428592119
3078+429153342+429672274+430168548+430625807+431023642+431380102+431701131
3065+431959069+432161222+432347213+432516516+432635309+432682959+432675045
3051+432653025+432621119+432518654+432285651+431940742+431552210+431116138
3038+430575463+429938072+429246254+428475076+427574719+426511863+425278178
3024+423888656+422342273+420626336+418687338+416470408+413983126+411213386
3011+408095072+404581033+400623453+396134916+391038645+385300317+378919544
2997+371754763+363672938+354397440+343656753+331517048+318136410+303358697
2984+286984674+269333785+251623805+235709263+222965016+213906513+208792803
2970+207055347+207066968+208014585+210827366+216981675+226978758+239597145
2957+252420142+263070083+270231975+273768868+273917677+270800863+264751198
2943+256913344+249544911+245074563+244557074+247388598+252146375+257610020
2930+263352374+269424670+275876197+282634229+289458377+296052326+302159944
2916+307412800+311349138+313785132+314951868+315173320+314695679+313777440
2903+312678763+311683328+310878078+309820359+307900798+304866733+300805827
2889+295692145+289173975+281247068+272894530+266085571+263230694+265763182
2876+272990525+282849821+293621137+304522685+315231855+325517394+335181257
2862+344078746+352194283+359715357+366919485+374023259+381132670+388154778
2849+394812872+400851596+406199753+410947589+415205094+419031331+422515047
2835+425792250+428959492+432045984+435027679+437883194+440616197+443224215
2822+445706526+448063658+450279589+452330659+454242862+456102804+457954527
2808+459785035+461604074+463427030+465228909+466969670+468617824+470160403
2795+471594076+472900570+474044231+475005122+475827561+476567473+477258346
2781+477939556+478576614+479101488+479551111+479982129+480361943+480640902
2768+480834169+481007942+481203986+481409748+481626674+481856983+482045418
2754+482183426+482350869+482554576+482694528+482730627+482740901+482808822
2741+482957659+483220069+483683631+484352623+485116027+485898646+486626117
2727+487210416+487709188+488270773+488970643+489810131+490757971+491779897
2714+492815206+493770155+494610088+495357941+496045815+496715529+497370026
2700+497983314+498562670+499108871+499599313+500051879+500480231+500828278
2687+501058088+501192208+501271181+501339491+501424073+501567857+501861589
2673+502358195+503014525+503739664+504454528+505130295+505767742+506342100
2660+506872750+507427226+507967373+508423605+508849458+509322295+509824789
2646+510299181+510737307+511136614+511485494+511833707+512207356+512559901
2633+512868073+513154252+513424048+513655191+513872005+514100370+514310631
2619+514494624+514646182+514756533+514864996+514990952+515101525+515180387
2606+515234146+515262692+515288128+515343720+515424414+515492002+515523047
2592+515542596+515563477+515564810+515537264+515505664+515540374+515666553
2579+515819278+515943957+516059084+516220307+516433733+516654157+516863918
2565+517036636+517141156+517233291+517366300+517489258+517550293+517579671
2552+517630543+517698408+517748002+517787988+517876180+518045844+518275765
2538+518549504+518845069+519123195+519391713+519700274+520063760+520431688
2525+520755466+521066414+521413572+521756565+522055018+522366022+522714957
2511+523056006+523391057+523760763+524152684+524527332+524892595+525273797
2498+525661553+526018763+526345095+526680313+527022361+527346139+527629430
2484+527863905+528106488+528406551+528723164+529019173+529311350+529605138
2471+529894927+530191658+530507327+530842933+531213584+531612446+531987872
2457+532342361+532703570+533051561+533373895+533675291+533964746+534254980
2444+534551211+534844332+535119959+535376260+535619121+535846209+536068077
2430+536308661+536537915+536704413+536815042+536907510+537012030+537142707
2417+537286490+537414002+537526019+537648532+537829803+538111262+538450700
2403+538767702+539015617+539217603+539446968+539715764+540008108+540271517
2390+540464118+540605180+540719085+540764681+540677877+540451788+540174106
2376+539973453+539859937+539710433+539456576+539224545+539222046+539481290
2363+539855383+540315058+541029478+541977429+542671579+542486809+542011529
2349+542340027+542945929+542755883+542325809+542618486+543271650+543773699
2336+544135186+544557096+544980006+545265130+545523207+545880140+546309658
2322+546738788+547153423+547568447+547973030+548305026+548549664+548810019
2309+549141793+549498393+549849550+550180047+550472224+550744519+551008928
2295+551262451+551525305+551795101+552040350+552250278+552427328+552563503
2282+552652139+552716228+552780595+552825357+552832855+552838630+552862511
2268+552878617+552881949+552891057+552921269+552986024+553080325+553181679
2255+553295973+553457750+553684728+554006894+554211491+554401370+554586417
2241+554745584+554882593+555024821+555199261+555417797+555652772+555860644
2228+556044581+556231072+556423450+556607443+556754114+556874184+557006805
2214+557135649+557221342+557271269+557312311+557356573+557420884+557492749
2201+557567001+557718338+557979747+558307468+558666289+559006005+559301625
2187+559586583+559864376+560117011+560339490+560542364+560772341+561022643
2174+561221352+561373411+561544852+561757001+561981035+562187408+562374066
2160+562546673+562700287+562848680+563038893+563271479+563484628+563663899
2147+563836173+563981012+564081755+564186941+564323061+564471510+564657835
2133+564907971+565164771+565383918+565600954+565834263+566069959+566308433
2120+566559568+566843359+567149587+567426658+567660078+567871672+568080544
2106+568315685+568608862+568921421+569172168+569382262+569666942+569984388
2093+570259682+570457391+570630221+570822932+571007591+571136380+571206689
2079+571251118+571278942+571292604+571306043+571335144+571385238+571431556
2066+571482705+571647037+571922275+572233557+572603152+573037169+573477462
2052+573891097+574290404+574655222+574964449+575241409+575484603+575699807
2039+575893240+576061293+576260614+576509917+576805315+577177797+577626643
2025+578100979+578577037+579058094+579489778+579867815+580302554+580750677
2012+581128325+581475427+581805758+582114041+582410772+582711724+582999236
1998+583252259+583525165+583739925+583821341+584038322+584342661+584579691
1985+584803058+584995881+585181761+585386246+585582012+585757452+585940944
1971+586165922+586329754+586423889+586653643+586909721+587057004+587179739
1958+587286091+587341017+587354012+587288868+587117483+586880342+586653143
1944+586279050+585855362+585725685+585629884+585419013+585258179+585182205
1931+585159102+585226523+585514813+585942943+586617655+587722108+588595918
1917+589399308+590474437+591274994+591739279+592183015+592746210+593273250
1904+593653786+593985338+594356988+594699703+594926180+595260732+595625884
1890+595683919+595897235+596319811+596533404+596682020+596861402+597022180
1877+597132587+597253601+597521564+597565326+597457919+597899989+598505114
1863+598721428+598780741+598931245+599146226+599348045+599492107+599568692
1850+599609844+599803500+599618508+599299173+599874308+600420842+600345979
1836+600308770+600617941+600816373+600720073+601139372+601600380+601675132
1823+602028177+602369782+602400938+602464749+602734489+602876052+602856669
1809+603062821+603408146+603649841+603683773+603620739+603828112+604326496
1796+604663047+604367649+604119623+604762790+605322875+605163819+605057300
1782+605206526+605257398+605437558+605730568+605583674+605187977+605506312
1769+605943383+606235061+606463426+606175026+606133540+606523850+606665579
1755+607035118+607329517+607171793+607452252+608140126+608596636+608761523
1742+608679774+608739087+609468835+609351542+608595969+609304336+610243124
1728+610391073+610266838+610128830+610335425+610403180+609756458+609641331
1715+610435891+611073726+611174525+610969929+610621271+610834864+611324806
1701+610705742+610826923+611570944+611522238+611917824+612008960+611670243
1688+611596102+610755336+610025032+610948214+611748605+611449208+610502312
1674+610387463+610852192+610435058+610270170+610908228+610821980+610124720
1661+610052911+610533857+610826312+609601012+608506722+610457106+611681683
1647+610455328+609835653+610427116+610707519+610696134+610307490+610101339
1634+611408666+612838563+613067872+613146123+613675996+614058475+614820268
1620+615931719+616091664+616319641+617947246+619409187+620051188+620685358
1607+621574663+622435699+623152619+623876925+624642494+625315485+625865128
1593+626399333+626944534+627451248+627875991+628175110+628396478+628757632
1580+629146331+628692598+628221705+629157605+629536863+628593966+628264079
1566+628449293+628626232+628502608+626878224+626018187+627501787+628074756
1553+627404598+626548337+625917055+625393846+624698753+623953621+622763253
1539+622204279+622940525+622335345+620424892+619469444+618798009+617431757
1526+616191407+615016812+613368602+612396104+611531735+610111280+608732978
1512+607361339+605737732+602938197+600022813+598921914+597656462+594590963
1499+590386023+585951218+581993471+577449926+570935060+563351674+555916847
1485+548651574+541273672+534094813+527724953+522098947+516518537+509897597
1472+502581563+496027544+490319289+485188779+480788407+476644058+472294612
1458+470122305+474415215+484390888+495089200+504231938+511581239+517142766
1445+520708704+522509306+523527955+524210553+525140399+527199189+529058882
1431+529643347+529920973+530466341+530918463+531507093+532076120+532366797
1418+533441593+534960015+535847153+536397852+537125102+537943486+538602204
1404+539526607+540755406+541433228+541392575+540098466+537314536+534193779
1391+530295622+524440696+517933438+513223506+511709195+514362947+521109899
1377+530008665+538713554+546403848+553030342+558514341+563243989+567075501
1364+569520214+571034193+571992640+572207399+571858908+571330091+570675372
1350+569788011+568958575+568865607+569971503+571820144+573561933+575221194
1337+577056395+578976900+581021695+583322957+585870024+588594363+591538570
1323+594672435+597783807+600790604+603789404+606685294+609327495+611749049
1310+613854157+615529413+616811804+617731099+618385540+618949234+619542807
1296+620193472+620923276+621764097+622681004+623564421+624296225+624718968
1283+624646604+623988775+622887877+621792699+621311809+621915101+623716480
1269+626388448+629383749+632300299+634925284+637087705+638726918+639837702
1256+640343472+640206352+639425844+638013775+635983974+633199823+629548637
1242+625520803+622008902+619437177+617991898+618222207+620557847+624771283
1229+630101057+635708736+640990027+645590997+649478268+652812508+655660137
1215+658061199+660137205+661976349+663619839+665127263+666552828+667921634
1202+669205580+670326583+671375221+672368101+673250353+674014700+674715015
1188+675350296+675862897+676232936+676536720+676853111+677157617+677377652
1175+677438909+677333557+677122129+676802295+676313464+675610428+674696077
1161+673661933+672624902+671601532+670537732+669396070+668099683+666516840
1148+664568900+662231262+659486819+656471635+653447122+650556563+647871711
1134+645457931+643321223+641452090+639833981+638375706+636836014+634955662
1121+632562209+629380750+624963495+618746304+610075459+598287633+582786087
1107+563325794+540752240+517543406+497017536+481329276+470377773+463111971
1094+459249219+459306200+463672917+471643725+481124458+489436538+493960812
1080+492070130+481043819+458932245+427393088+394347754+371202704+364264345
1067+368663995+371853729+363159170+340664034+311106166+284560509+268675651
1053+266993925+280621645+308992672+349509708+397738114+448281749+495984059
1040+537040853+569747247+594166942+611107881+621459480+625733785+623812836
1026+614053699+592609146+557528514+516366312+486487387+482566850+503979137
1013+537579945+571028639+599883028+624470109+645354411+662341001+675163804
999+684003813+689394122+691895482+691976066+689905002+685742547+679432611
986+670764432+659190920+643511436+621543618+590142329+546815317+493787816
972+441917110+408482744+406830147+437086636+487446168+543040230+593551821
959+634867193+666697944+690342073+707534314+719915047+728911114+735547215
945+740426534+744006689+746678823+748688297+750193334+751320390+752119393
932+752590397+752728849+752507870+751883863+750841666+749324245+747228412
918+744544448+741265411+737277674+732577794+727476441+722609674+718915614
905+717203371+717338491+717941228+716989944+712802388+704330085+691012453
891+673490936+654461773+637955850+626965527+622712215+627253261+643082583
878+667849881+693966990+715006406+729179188+737418515+741060593+740957573
864+737520868+731641339+726112300+725059219+730265036+739171744+747738291
851+753944097+757965933+760585253+762322432+763376457+763881505+764008406
837+763833189+763437436+762967098+762502925+762045805+761497438+760741810
824+759788416+758663526+757400628+756060257+754625029+752965712+750853162
810+748273718+745554044+743158537+741668828+741454013+742254904+743285326
797+743862127+743929215+743717066+743325312+742736460+741858540+740661120
783+739243941+737729963+736180275+734473086+732456669+730255928+728150043
770+726496057+725522393+724886279+723880292+721883147+718672976+714850626
756+711985447+711696047+713965209+717167106+719852791+721500334+722221752
743+722382752+722216699+721904306+721606076+721178723+720504400+719857067
729+719367236+718762445+717993043+717411521+716746362+716018113+715270926
716+714588883+714014748+713462660+712874585+712275236+711676942+711107416
702+710614253+710166463+709692959+709177304+708697691+708353032+708131275
689+707975551+707853427+707701923+707550420+707514710+707552864+707551753
675+707428018+707170384+707108794+707760959+709040851+709968309+710163575
662+710160021+710407324+710852115+711365938+711952903+712671877+713565791
648+714627536+715765589+716822558+717777340+718753392+719861566+721103527
635+722403468+723795210+725331403+726948068+728638652+730588758+732572518
621+734418493+736164947+737886187+739757153+741745801+743727452+745789907
608+747991204+750261144+752504871+754794970+757327542+760046272+762705133
594+765236872+767877628+770873429+773929931+776659213+779161573+781691201
581+784403766+787325203+790387093+793505907+796306886+798951585+801912842
567+804987338+807763215+810155057+812556896+815374869+818429428+821417120
554+824350720+827200738+829827999+832326305+834933184+837728887+840615115
540+843455469+846208020+848985508+851631984+853948075+856422056+859239973
527+862066777+865032588+867864890+870324486+872640466+874904686+877282533
513+879717471+882128751+884240190+885843527+887450640+889281009+891230281
500+892737317+893267801+893136624+892658234+891968749+890987865+889331991
486+887365058+886424549+887485905+890240234+893397979+895670529+896336355
473+895831806+895291937+894619891+894019542+895392180+900834082+909853363
459+919675311+929505423+938716360+946090596+952388092+957338164+960430209
446+962351547+963623331+964577224+965358733+966364608+968766892+972987881
432+978649819+985228551+991290462+996782903+1003649869+1011694763+1018091781
419+1023882229+1029998344+1034309413+1038164307+1043637754+1050162838
407+1055565532+1059552047+1063858007+1068528620+1073741823
##END=
