##TITLE=7
##JCAMP-DX=4.24
##DATA TYPE=INFRARED SPECTRUM
##DATE=16/11/2015
##SAMPLING PROCEDURE=Instrument type and / or accessory
##ORIGIN=Default
##XUNITS=1/CM
##YUNITS=TRANSMITTANCE
##RESOLUTION=4
##FIRSTX=3996.3359
##LASTX=399.24785
##DELTAX=-1.9287336
##MAXY=0.57085019
##MINY=0.11093246
##XFACTOR=1
##YFACTOR=5.3164567e-010
##NPOINTS=1866
##FIRSTY=0.22002047
##XYDATA=(X++(Y..Y))
3996+413847953+413962084+414022793+414081821+414150547+414275890+414494062
3983+414687991+414746010+414760472+414856357+415016679+415165706+415273840
3969+415390017+415584955+415835080+416029541+416128285+416194572+416230392
3956+416240903+416326221+416473902+416514908+416457842+416559417+416711695
3942+416667691+416701353+416922272+417121638+417230556+417135624+416981776
3929+417159785+417487969+417497835+417376836+417508289+417658774+417583489
3915+417585227+417820385+417944355+417977849+418258889+418451724+418210905
3902+417910020+417696276+417588591+417986229+418576787+418388745+417873919
3888+418114319+418317132+418064120+418211717+418250116+418060981+418314021
3875+418549515+418614289+418452397+418019807+418196498+418658349+418506688
3861+418100249+418120401+418989505+419797787+418869992+417479196+417645769
3848+418505959+418852082+418697365+418689657+418960215+418847821+418549375
3834+418713846+418926020+418912679+418915257+418921704+419188422+419312167
3821+418770995+418848466+419330414+418927394+418675755+419293416+419765722
3807+419317268+419028324+419518904+419375651+418917416+419148650+419277860
3794+419190384+419289548+419400961+419466632+419409706+419276487+419366851
3780+419417834+419194000+419126395+419378650+419620732+419449114+419040909
3767+418855697+418851072+419124013+419413686+419082951+418709501+419107420
3753+419581548+418936615+418080797+418756421+419381537+418292187+417678001
3740+418515461+419039731+418573087+417991975+417802699+418032560+418402843
3726+418357885+417994413+417735263+417495901+417267245+417339811+417704404
3713+417550864+416548290+415712680+415558244+415615281+415122318+413940558
3699+412769757+411778254+410742521+409835411+409024270+407796347+406418277
3686+405797084+405637883+405210618+404931512+404997939+404278282+403360325
3672+403725199+403978911+403495422+403630911+404193749+404404494+404494633
3659+404607308+404249609+403954218+404644529+405232733+404595508+403817272
3645+403905365+404321895+404384146+404149885+403858586+403460415+403182654
3632+403281313+402749139+401264868+400539102+400764730+400780286+399978058
3618+398665097+397789827+397320100+396730523+396004112+394945368+393729189
3605+392893579+392166776+391115880+389984683+388914840+387618556+386293795
3591+385405268+384426657+382751570+381168668+380226746+379304025+378068898
3578+376741054+375372822+373914281+372612279+371505888+369994850+368058230
3564+366545875+365474211+364245503+362810394+361403510+359984574+358365403
3551+356720727+355229617+353562658+351695240+350038091+348573132+346990230
3537+345200142+343375327+341672043+339990845+338168777+336255701+334366392
3524+332474898+330606331+328840235+327067749+325205824+323343227+321488506
3510+319552558+317621992+315851440+314049945+312056147+310118574+308339557
3497+306540080+304648081+302732566+300836110+298914738+296940672+294985749
3483+293078502+291149534+289216950+287299137+285327649+283326256+281340418
3470+279335436+277336593+275444118+273639539+271801018+269931134+268087960
3456+266224382+264323526+262485622+260747358+258949086+257032562+255216969
3443+253564696+251928232+250241597+248532903+246906165+245375648+243872850
3429+242416188+241005016+239593255+238162855+236721664+235292161+233905514
3416+232572723+231259159+229928821+228610871+227383453+226232734+225008118
3402+223668853+222433236+221453056+220556863+219561477+218521989+217600669
3389+216828697+216074650+215274650+214474511+213724233+213060802+212530589
3375+212087068+211616486+211128498+210716285+210455116+210377758+210385298
3362+210326929+210258119+210317721+210459265+210563502+210610996+210727902
3348+211029502+211433839+211828296+212201886+212567965+212993590+213561304
3335+214228365+214892484+215541453+216226172+216960108+217758987+218673553
3321+219679155+220677245+221624870+222572593+223564265+224565508+225554041
3308+226588162+227729911+228984713+230331280+231691819+232972001+234208164
3294+235496797+236876857+238339013+239820845+241285832+242786135+244344260
3281+245908719+247460538+249027856+250610954+252189428+253826005+255599191
3267+257435358+259257314+261113885+263015386+264918596+266828337+268780205
3254+270803629+272859145+274871218+276895819+279030347+281229005+283424019
3240+285626011+287842383+290056119+292305480+294669225+297116774+299541284
3227+301903319+304230290+306562979+308915848+311293047+313718425+316197310
3213+318687323+321142047+323553832+325921501+328253097+330608349+333039025
3200+335519227+337990236+340410654+342755227+345043688+347335792+349654522
3186+351965546+354217233+356394476+358555408+360772171+363036191+365259878
3173+367377225+369425482+371486072+373565244+375593769+377560660+379528644
3159+381512324+383478962+385365860+387125873+388842947+390608651+392371018
3146+394053589+395678058+397284476+398879150+400480130+402058968+403541809
3132+404938855+406331837+407733760+409093781+410412151+411716507+412981231
3119+414155704+415259601+416384464+417552798+418684444+419752409+420809639
3105+421855938+422854953+423812458+424758472+425693106+426558061+427335232
3092+428077395+428808151+429526322+430233898+430895255+431467987+432016054
3078+432628614+433253282+433775983+434174490+434521958+434864184+435169806
3065+435424640+435669692+435913735+436077645+436126610+436153854+436229166
3051+436287745+436234323+436065789+435817653+435503259+435126053+434677543
3038+434154898+433556577+432834706+431929110+430858061+429682215+428393751
3024+426952617+425365006+423618922+421647463+419425710+416954084+414162066
3011+410964534+407345847+403292609+398737887+393604771+387827255+381392979
2997+374208663+366119956+356788639+345946650+333699541+320248755+305420795
2984+288945747+271185683+253414744+237411218+224551929+215450949+210358348
2970+208658638+208721057+209723141+212594690+218816918+228869447+241536770
2957+254459137+265242072+272475241+276030163+276217308+273135617+267066354
2943+259162690+251690916+247104634+246521615+249337710+254114865+259661399
2930+265487768+271581276+278027577+284784263+291685436+298440498+304632777
2916+309864188+313777425+316183969+317271834+317405838+316897936+316005989
2903+314961287+314065248+313362942+312300106+310326264+307297911+303224632
2889+298031255+291424857+283427606+275032857+268195281+265317860+267871161
2876+275151417+285049496+295859001+306831631+317636904+328038960+337852897
2862+346889159+355056907+362562876+369761570+376885905+384036699+391131071
2849+397858609+403935832+409328098+414133898+418447072+422353357+425928516
2835+429241217+432371790+435409112+438386818+441275730+444045942+446681141
2822+449174236+451517492+453716009+455780971+457716835+459565894+461411731
2808+463312559+465249851+467149979+468960920+470682198+472310534+473832138
2795+475248075+476539791+477690748+478710812+479602899+480374352+481059758
2781+481694208+482268509+482760519+483184981+483581134+483964169+484290307
2768+484529053+484716843+484876493+485013215+485192260+485456119+485746381
2754+486004971+486225386+486396023+486491768+486529942+486566940+486634488
2741+486755178+487007097+487480160+488158278+488937747+489707463+490390458
2727+490991610+491551393+492103159+492715803+493479072+494425926+495489491
2714+496563258+497568635+498454164+499216087+499901941+500551470+501196627
2700+501862918+502493556+503021218+503498261+503959552+504330199+504614351
2687+504887235+505105576+505224753+505299476+505355813+505459014+505757572
2673+506297006+506983252+507703021+508391734+509041319+509687990+510327541
2660+510890631+511381913+511868821+512351974+512796729+513207120+513609607
2646+514018990+514462511+514952390+515420576+515809330+516144157+516454038
2633+516763976+517106595+517430827+517666490+517851813+518049918+518272127
2619+518496410+518670242+518773162+518844466+518926309+519025193+519124862
2606+519213151+519270946+519303458+519353013+519389001+519362150+519341409
2592+519392252+519472750+519513055+519502348+519515241+519584695+519662838
2579+519748829+519850348+519954950+520105967+520315395+520535417+520748881
2565+520944912+521110896+521262585+521378623+521432325+521472294+521530593
2552+521585248+521627963+521655823+521676284+521733294+521880162+522129166
2538+522424025+522707168+522976072+523266446+523611699+523977637+524314594
2525+524643199+524979315+525292056+525582206+525897132+526246534+526601541
2511+526960080+527326243+527703841+528100947+528497941+528871335+529219671
2498+529543343+529849357+530167815+530498101+530816055+531134401+531453756
2484+531745812+532010400+532281714+532580161+532877766+533160292+533465184
2471+533796872+534113312+534412487+534717099+535056019+535454246+535898215
2457+536342745+536723090+537027982+537318356+537636366+537965812+538264874
2444+538528453+538772524+539013736+539264815+539509670+539725713+539924714
2430+540132349+540348111+540571889+540786755+540943377+541041813+541117546
2417+541214188+541370250+541560899+541724192+541862484+542050330+542329324
2403+542660620+542962878+543211545+543467108+543732929+543993256+544252799
2390+544518284+544773454+544993533+545146007+545192534+545122688+544985797
2376+544844702+544705569+544575350+544447540+544245288+543970273+543878228
2363+544256611+544996952+545805515+546519453+546865492+546495237+546152226
2349+546855514+547844747+547799061+547234401+547319775+547809711+548189944
2336+548500442+548916720+549302783+549548423+549870245+550380866+550898382
2322+551249801+551492863+551770288+552108534+552406140+552623360+552877297
2309+553245365+553661979+554035709+554339705+554606198+554879643+555176856
2295+555479618+555740675+555925662+556057732+556178142+556304549+556440599
2282+556572893+556686800+556782153+556857325+556902282+556919436+556936141
2268+556967420+556981771+556952677+556911083+556907103+556969214+557095398
2255+557264129+557459150+557678556+557958784+558140520+558342492+558545193
2241+558689820+558817349+558960742+559123979+559341591+559587624+559814542
2228+560021728+560211928+560401008+560596478+560759771+560889318+561015334
2214+561120496+561188941+561248193+561318376+561378133+561407843+561442878
2201+561539632+561733476+562028503+562379306+562725400+563043578+563324479
2187+563556834+563775119+564046041+564364948+564649660+564848605+565004219
2174+565189767+565401717+565579753+565715747+565870520+566065205+566251369
2160+566422959+566606993+566801734+567019571+567252991+567461298+567635578
2147+567779700+567893944+567999499+568114527+568245980+568422727+568656820
2133+568909524+569156005+569386791+569588539+569793931+570043720+570319295
2120+570594813+570871454+571131108+571372433+571641785+571918649+572150332
2106+572379996+572643968+572905136+573152458+573396866+573663752+573929517
2093+574194833+574430272+574633702+574836122+575027556+575165175+575246177
2079+575301505+575348257+575390467+575423541+575440246+575461547+575511942
2066+575587955+575721931+575964264+576290795+576665646+577084054+577519839
2052+577941666+578343985+578722985+579052206+579312421+579512992+579708518
2039+579948329+580188083+580390448+580614451+580914186+581278163+581698364
2025+582174062+582660690+583131118+583587028+584023710+584454842+584870503
2012+585227921+585549182+585891969+586238904+586545478+586812028+587048195
1998+587250896+587472657+587741505+587966292+588157838+588383915+588604050
1985+588819700+589031763+589211481+589385481+589587285+589817902+590029068
1971+590202564+590358570+590508073+590709653+590966337+591149026+591206596
1958+591244939+591308451+591317476+591240342+591110234+590909327+590636499
1944+590292815+589903501+589652367+589532181+589368608+589205595+589118651
1931+589097181+589156881+589414518+589902716+590553815+591469334+592487324
1917+593333669+594192346+595066102+595728301+596244135+596762491+597291891
1904+597741410+598078479+598373506+598671279+598942146+599237116+599588592
1890+599783277+599887094+600176963+600498561+600698123+600852111+601005874
1877+601139289+601243387+601438688+601663308+601717346+601836299+602238786
1863+602652485+602911355+603104414+603274098+603408971+603508191+603573778
1850+603594855+603709155+603819530+603674960+603712798+604077055+604277290
1836+604308289+604510261+604819414+604914206+605036578+605408515+605662115
1823+605853381+606159955+606372690+606467314+606616481+606823555+606975020
1809+607121833+607326272+607531103+607700114+607786610+607802362+607920978
1796+608230074+608407046+608279292+608358164+608773096+609040767+609114874
1782+609198735+609179620+609100355+609221606+609402501+609346556+609359393
1769+609615012+609829597+610019293+610087571+610077480+610317011+610568762
1755+610776452+611124508+611335113+611438482+611740403+612108360+612410898
1742+612571332+612525870+612722181+613102806+613018833+613017880+613527773
1728+613932278+614023090+613904137+613848978+614056107+614087611+613860974
1715+613953467+614331738+614598961+614680748+614529731+614413357+614700031
1701+614785462+614633996+614971794+615216202+615229991+615279153+615114571
1688+615084244+615031438+614475019+614229939+614562692+614794879+614524798
1674+614170015+614282128+614356796+614132569+614267946+614533991+614289640
1661+613842811+613710854+614019895+614172201+613553447+613407587+614140977
1647+614308194+613915573+613919161+614128420+614381012+614742354+614983510
1634+615416548+616254709+616915505+617297420+617827156+618348372+618747159
1620+619476402+620358735+621009778+621905060+623123509+624147161+624935151
1607+625727120+626557881+627342507+628065919+628769263+629438132+630038780
1593+630594807+631130710+631609098+632010464+632335985+632530334+632638860
1580+632871776+633002780+632704895+632614868+632875307+632726925+632327969
1566+632076947+631858270+631808548+631516772+630755466+630620481+630886863
1553+630702436+630179707+629586795+628952177+628234706+627615055+626983296
1539+626115369+625652901+625299688+624232367+623002987+622125251+621046551
1526+619752145+618618789+617347367+616020952+614885411+613587697+612063963
1512+610472288+608915985+607082537+604535151+602082724+600080826+597606370
1499+594142792+589873791+585349732+580597466+574608084+567154668+559322868
1485+551785311+544477587+537410009+530976826+525343740+519911338+513521991
1472+505930899+498734896+493070811+488417317+483826494+478995749+474708305
1458+473289453+477518429+486742173+497434043+507105568+514850199+520402170
1445+523795453+525472390+526341550+527321926+528677603+530247864+531687457
1431+532570239+532976426+533319997+533688683+534144480+534843339+535629311
1418+536485634+537517582+538437866+539135380+539815404+540596442+541447047
1404+542389753+543480281+544369509+544417998+543036536+540219629+536796917
1391+532831855+527364978+520892835+515824858+514196129+516923850+523707220
1377+532694404+541666846+549449931+555989006+561605443+566415952+570279887
1364+572968144+574500511+575207779+575370231+575173640+574766780+574164114
1350+573334138+572537123+572397486+573389298+575229304+577159730+578868003
1337+580569269+582431642+584484888+586785065+589363955+592167801+595135332
1323+598217444+601336889+604418889+607424988+610302716+612973484+615386334
1310+617489078+619222408+620556222+621506272+622176374+622737614+623318362
1296+623974506+624743997+625621846+626548183+627425864+628112727+628466893
1283+628380286+627782384+626735301+625602786+625019908+625549589+627317954
1269+629976501+632982376+635889310+638470050+640610577+642208194+643231790
1256+643703563+643584835+642790287+641358205+639362081+636604314+632915444
1242+628863327+625400534+622875234+621422019+621664801+624069915+628333422
1229+633669407+639289544+644594585+649230421+653174517+656555075+659442502
1215+661929347+664106142+665984771+667628972+669162740+670628231+671998258
1202+673257741+674387620+675455109+676438064+677324041+678121784+678836283
1188+679461540+679958035+680302447+680579872+680896032+681237530+681484684
1175+681529866+681410969+681199467+680827475+680245774+679508011+678625398
1161+677594346+676518057+675491714+674467894+673337734+672022250+670468806
1148+668604583+666310685+663541987+660466322+657369972+654431253+651712782
1134+649291916+647195674+645355387+643722398+642224338+640648919+638770514
1121+636407442+633216132+628701771+622372629+613630244+601724858+586011986
1107+566327438+543572158+520223125+499601981+483823187+472753438+465369673
1094+461405172+461381516+465670810+473565420+483021968+491338770+495814508
1080+493819953+482716010+460585258+429031985+395983735+372847157+365848726
1067+370198056+373431240+364673804+341943498+312178883+285511179+269558468
1053+267862696+281456932+309776880+350387268+398907262+449759553+497643415
1040+538800665+571635171+596261961+613475023+624110388+628573233+626754528
1026+617138499+595776341+560552193+519120713+489045152+485125889+506724831
1013+540585848+574292148+603358856+628089463+649058495+666098118+678986347
999+687928126+693437830+696048561+696218749+694236695+690180654+683971249
986+675344733+663717501+647943863+625901232+594370382+550764350+497325293
972+445020853+411274696+409548317+440016079+490776016+546756910+597497844
959+638910432+670823757+694526060+711713953+724076201+733020783+739596743
945+744489487+748106940+750806016+752868344+754438044+755626055+756459002
932+756866478+756872084+756584905+755983024+754965538+753486201+751487666
918+748886746+745591058+741478007+736611665+731419466+726550378+722852371
905+721110183+721246289+721903554+720991231+716757377+708138205+694613116
891+676922170+657804804+641215429+630107226+625773984+630279488+646074259
878+670891474+697190324+718406230+732676482+741027703+744826388+744841635
864+741428789+735546980+730092603+729104995+734245118+743024724+751545853
851+757836652+761958112+764588518+766280311+767286585+767748941+767859037
837+767798047+767637781+767306261+766755896+766072172+765320283+764507965
824+763638244+762645984+761528381+760299281+758788103+756900393+754727858
810+752291744+749560884+746952227+745379107+745297433+746230665+747330554
797+748030311+748251286+748059460+747473779+746636852+745678506+744584951
783+743341613+741946305+740398914+738601007+736411879+733978736+731731253
770+730142605+729287516+728683505+727692758+725701510+722433178+718543121
756+715655134+715391163+717755019+721043868+723735993+725394544+726155794
743+726286518+725940088+725379633+724969073+724727805+724464226+724032085
729+723415292+722673718+721891334+721342594+720731408+720012929+719243494
716+718521875+717902000+717362734+716845947+716331402+715835749+715359603
702+714882224+714346770+713735695+713116885+712558952+712132640+711880890
689+711704367+711516465+711413096+711486474+711700891+711957687+712077256
675+711827468+711289211+711012963+711520949+712693208+713613043+713830095
662+713813165+714063179+714569819+715195693+715901279+716643022+717376973
648+718151733+719085077+720176726+721330598+722499045+723691932+724937401
635+726270991+727741135+729362800+731082789+732831031+734648951+736432284
621+738126262+739866600+741817542+743944615+746075724+748130540+750173023
608+752297910+754526390+756779422+759063566+761490711+764154919+767017961
594+769787220+772363308+775032057+777933778+780806966+783289999+785666132
581+788599469+791867409+794838304+797580095+800301706+802995793+805738312
567+808615873+811600838+814527505+817390042+820288119+823178797+826108154
554+829075293+831925330+834608430+837166915+839698045+842443592+845516454
540+848658659+851585829+854176211+856486702+858824380+861353212+863900430
527+866461718+869101991+871682675+874356077+877187334+879766505+881992013
513+884150198+886412311+888612482+890473790+892156445+893939498+895571478
500+896577584+896825019+896617273+896310922+895860338+894998634+893594637
486+892104145+891502768+892306790+894551021+897672036+899945137+900050131
473+898579202+897077498+896310979+896462276+898601905+904098381+912866383
459+923454604+934019898+942946878+949694539+954617890+958426273+961848985
446+965077181+967676196+969342762+970482172+971542317+972827810+975331528
432+979766513+985337319+991319358+998245953+1006283368+1013965720+1020181740
419+1025818693+1031820128+1038057897+1044052605+1049580472+1054931312
407+1059459127+1062483836+1065055831+1068495137+1073741823
##END=
