##TITLE=павел 3-многокр
##JCAMP-DX=4.24
##DATA TYPE=INFRARED SPECTRUM
##DATE=3/2/2015
##SAMPLING PROCEDURE=Instrument type and / or accessory
##ORIGIN=Default
##XUNITS=1/CM
##YUNITS=TRANSMITTANCE
##RESOLUTION=4
##FIRSTX=3996.3347
##LASTX=399.24773
##DELTAX=-1.928733
##MAXY=1.6223654
##MINY=0.22602679
##XFACTOR=1
##YFACTOR=1.5109455e-009
##NPOINTS=1866
##FIRSTY=0.97347862
##XYDATA=(X++(Y..Y))
3996+644284408+646153363+647075908+647285103+647796120+648638545+648973897
3983+648978552+650167769+651732654+651165975+649039184+647992180+648365600
3969+649919795+652897176+654425453+652432353+650520123+651512886+653693051
3956+655212689+655132253+654170221+654772877+655961226+655035959+653328112
3942+652441703+651858456+651839915+652464938+653069842+653071341+651481130
3929+649407989+648926440+649501640+650257751+651192643+652688927+654779149
3915+655300620+654004971+653157221+652569477+651260376+650050133+649830207
3902+650580756+652433971+654603642+655130636+654245173+653524329+652801276
3888+651949266+653123887+655466698+655649779+655468907+654935208+652164221
3875+649848787+649532410+651030746+652847510+651780229+650351323+651465311
3861+651786659+648823677+644229851+642051658+648018571+656016888+655572815
3848+651632652+649054017+648491993+649645154+651080490+652333061+652468291
3834+650027489+647930798+648448876+649668665+650103310+648461697+646579802
3821+648391794+649979678+649664089+650336096+649514776+646942216+645415162
3807+645904956+645222416+642048739+641150811+642303774+642194502+642632539
3794+643386835+642462160+640750092+639530816+639212860+640161164+641205763
3780+642278843+644155372+644097106+641499378+639710622+640385469+641824158
3767+642108228+641825066+641020788+639254991+637847150+637570853+637456491
3753+636942989+637766557+639988025+639052936+636235992+635548837+634304313
3740+631802090+631772662+634301552+634706176+631950969+629338330+628245249
3726+628771454+629119745+627151814+623950680+620766786+617683722+614137019
3713+610760694+610014998+610587002+608305139+602995519+597685504+593477958
3699+588752177+583002902+575823893+566676242+558224227+553964807+551232717
3686+545522378+539461618+536608342+536102729+535711478+535515656+534756586
3672+532248091+529819755+528195144+526680240+525375715+523091209+518729143
3659+514236030+511414944+508691809+504784309+501348891+499112551+496222154
3645+492476867+488747517+485036432+481357892+477372087+472836329+468509965
3632+465377472+463086220+460363124+456705334+452250959+447983728+444702750
3618+441780755+439088942+436317443+432786401+429240566+425955013+422276749
3605+418887800+416320369+413853571+411031104+407851865+404087406+399912721
3591+396607483+394436272+391857046+388639975+385132090+380769945+376518059
3578+373061812+369553295+366005212+362587032+359441758+357497535+356189460
3564+353503209+349682772+346482112+344290389+341934441+338211561+333254887
3551+328669622+325357519+323036641+321132281+318674319+315426696+311931671
3537+308802176+306444768+304302119+301617782+298413966+295333012+292857614
3524+290502337+287523713+283800636+280511394+278822246+277531567+275513851
3510+273549668+271912887+269675877+265933746+261759534+259955354+260192558
3497+259210998+256796292+254794869+252698335+249684404+246231806+243223182
3483+241326849+240091813+238617857+236579036+234446032+232782229+230967516
3470+228270239+225965949+224989479+223805233+222063203+220572126+218821556
3456+216685672+214600105+213018612+212136897+210973243+208783314+206390068
3443+205040414+204546123+203340022+201319960+200178081+199470689+197625029
3429+195981621+195568890+194846665+193621965+192959051+192461033+191353869
3416+189729160+188062142+186847737+186030974+185151823+183896570+181783033
3402+179497383+179397519+181364957+182498986+182234207+181962623+181855145
3389+181662834+181532298+181452770+181393360+181471035+181704511+181624450
3375+181065602+180940826+181042584+180493854+180694371+182337463+183652620
3362+184086219+184384864+184754872+185169043+185448299+185828051+186943933
3348+188202460+188719829+189360138+191130117+193110514+194248901+195342889
3335+197013142+198694479+200171572+201418936+202490951+203921376+206082783
3321+208877596+211661502+213572608+214795316+216079959+217207794+218093296
3308+219283321+221018605+223699076+227262012+230442672+232286420+233298354
3294+234377667+236162281+239125836+242345333+244824833+247101904+249519450
3281+252123825+254780332+256822190+258596015+260978728+263701903+266303122
3267+268842664+271360627+273994825+276895321+280205569+283737794+286889440
3254+289663444+292442241+295603570+299130470+302461744+305683825+309092793
3240+312453772+315586522+318574515+321735272+325405489+329618557+334009459
3227+338156885+342028250+345965139+350074418+353821243+357002968+360636695
3213+365426225+370172086+374011142+378150875+383300532+388613150+393303428
3200+397119604+400323302+403629408+407673084+412533582+417802570+422992582
3186+427496544+431433749+435752224+440094762+443830621+447879268+452757833
3173+457799677+462207660+466135752+470427008+474628636+478171867+482069544
3159+486655954+491108909+495210298+498949628+502271514+505575371+509226455
3146+513194903+516828629+519877570+523618281+528190450+531936605+534926412
3132+538472247+542647840+546600547+549675682+552113052+554492787+557047476
3119+559344883+561222714+563910069+567581666+571069827+574121924+576405168
3105+577904529+579841060+582585300+585462916+588249878+590973250+593324622
3092+595030063+596455340+598300073+600503789+602599810+604611175+606288528
3078+607406698+608425457+609635227+611006420+611979064+612353786+613337436
3065+615068834+616452414+617436577+618103297+618457151+618881578+618874950
3051+617700330+616098718+615397914+615605729+615653264+614602315+612566847
3038+611120623+610714658+609623668+607626190+605776407+603371187+599896439
3024+596627375+594040890+590546298+584930360+578230887+571901640+565943445
3011+559570410+551886932+542440103+531521448+519031832+504611524+488287468
2997+469654959+448307285+424475849+398334028+369368794+336687426+300931554
2984+264731373+230662420+200757028+176758331+159492242+149690011+149592948
2970+162381574+189751310+230800984+281785031+336403081+388363559+433154693
2957+468347397+493535390+508966253+515505840+514594420+507214657+495195150
2943+481465863+468311420+457097768+448867533+444223411+442700419+443749870
2930+447743565+454135101+460916232+466948906+472250321+476450095+479234178
2916+481638134+484840254+487790495+488676352+487887656+486461906+484279295
2903+481328503+477950087+474373601+470989702+468087944+465566943+463375614
2889+461935544+461658221+462764201+466025809+472300657+481572058+492931354
2876+504889321+516549215+528262523+540585350+553397655+566100293+578404303
2862+590029956+600577755+611044132+622728011+634740023+645062216+652944593
2849+659916655+667650233+675018043+680791105+686173468+691588653+696217391
2835+700351128+704250383+707547574+710639553+713873784+717098231+720479132
2822+723468466+725135010+725897078+727015761+729225196+732146048+735363394
2808+739148643+743109280+746147688+748144575+749989663+752518711+755654715
2795+757771684+758247433+758919558+760418525+761773505+762977791+764498612
2781+766300781+768208751+770147885+771670758+772611212+773610365+774882266
2768+776555359+778604002+779860124+780263840+781270568+782883778+783918199
2754+783969324+783500123+783109818+783060587+783206704+783400002+783739260
2741+783583911+782345778+781205241+780766021+779852550+778178904+776687748
2727+776107302+776447349+776954657+777344173+778275790+779781148+781529587
2714+784061555+787088759+789048091+789870988+790742407+792170682+794200943
2700+796660009+799509380+802742190+805867859+808481563+810614469+812442910
2687+813889016+814936376+815697733+815888664+815224903+813925624+812489459
2673+810698179+808002500+804575918+800635479+796724074+794030209+793180960
2660+793938610+795854548+798435353+801503505+805599135+810740862+816055216
2646+820764981+824487980+827326068+829491322+831175066+832449570+833335506
2633+834201008+835166236+835927199+836059588+835776742+835867158+836035209
2619+835831023+835671098+835529084+835184145+834675811+834207556+834228780
2606+834551390+834795735+834987218+834996370+835143277+835647745+836052724
2592+836203654+836328075+836933058+837826726+838143183+837977262+837871698
2579+838314232+839650276+841783182+844450852+846695002+847901182+848870355
2565+850307861+852389246+854592528+855847308+856355406+856944847+857663915
2552+858190238+858097297+857684665+857315190+856277850+854743064+853810657
2538+853351397+852832964+852519427+852557613+852577495+852254885+851650690
2525+851454315+852425223+854306210+855934095+856751706+857560087+858837116
2511+860054657+861030457+861975565+863312399+865410905+867497577+868553931
2498+869132641+870086508+870890785+871502712+872663762+873939529+874784123
2484+875352025+875561497+875311077+875048744+875525677+876740693+878121709
2471+879517005+880969265+882578609+884290519+885761951+887181390+888900795
2457+890616098+892047214+893154298+893895774+894472354+895199312+896120594
2444+896522575+895820470+894662496+893672337+892761864+891875849+891077173
2430+890141137+888629626+886905329+885855050+885145843+883915442+882748475
2417+882568668+882686540+882214735+881773937+882116035+882899326+883688140
2403+884956885+887022806+888982217+890150684+890681977+890972950+891722552
2390+892777722+893254340+893268857+893529060+894264066+894807351+893793050
2376+890777522+887220602+885539540+887498477+891551897+894239529+896316417
2363+900275555+905246864+909017438+910738737+912962295+916512982+915582075
2349+908460897+901117072+900493705+906039544+909107144+909687827+911023477
2336+910947420+908531195+907791850+910938347+914015020+914114509+913674105
2322+914626946+915571108+915129758+913372876+911131645+909749603+910340859
2309+912011821+912713375+911998251+910876255+910732898+911763059+912557474
2295+912798031+913182182+913633947+914093523+914624343+914584105+913789374
2282+913397255+913706926+913588423+913191886+913462740+913835766+913415638
2268+912573806+912084091+912013873+911991545+911964088+912207960+912708483
2255+913154725+913546292+913950166+914098888+913892729+913526173+913295241
2241+913465343+913747637+913620455+912998982+912036832+911077363+910590331
2228+910407290+909804437+908880472+908341053+907978283+907338901+906855498
2214+906794511+906724371+906362154+905602217+904711705+904220649+903660637
2201+902375245+900869098+899780949+899448555+900337489+902107704+903655351
2187+904549492+904786263+904450003+904339784+905494601+907787431+909622500
2174+910291706+910934796+911818444+911981525+911587670+911478161+911773315
2160+912320467+912930894+913582742+914097941+913925156+913388734+912972394
2147+912781857+913270310+914125397+914613691+914792078+914914290+914995711
2133+915017566+915209523+915633121+915890011+915841726+915787523+916020664
2120+916533417+917128696+917857232+918627899+918835478+918705692+919348783
2106+920509202+921035130+920956391+920844988+920822581+920845304+921040811
2093+921461806+921848402+922178034+922361391+922297011+922538042+923179634
2079+923760317+924101073+924371454+925093915+926246208+927456885+928565626
2066+929356491+930147278+930898299+931136727+931435589+932126649+932931321
2052+934095528+935512915+936538262+937212123+938279601+939816912+940994531
2039+941644801+942373495+943375252+944354287+944959586+945387208+946141229
2025+947071505+947780553+948349007+949193838+950282461+950997742+951318144
2012+951679256+952029402+952388620+953256094+954494859+955006428+954536911
1998+954287122+954888634+955744511+956508787+956973334+956758970+956183494
1985+955765971+955697251+955824986+955982859+956335135+956673919+956985247
1971+957744395+958865129+959991465+960698384+960644181+960471633+960969553
1958+961554102+961478834+961427393+961968549+962221335+961684913+961329797
1944+961920421+962935591+963187115+962293211+960790220+959202178+957889645
1931+956746978+955731414+955208957+955318624+955710269+955842185+956289611
1917+956819800+955728337+954044435+953711331+954108894+953749202+952587678
1904+951676810+951550733+952064274+953059246+954595295+956010157+956675102
1890+958032765+960412302+961973598+962472859+962722253+963176306+963784919
1877+964337041+964694840+964499806+964745807+966688176+968387068+968026114
1863+967196274+966974809+966705376+966281146+966110886+966099840+965811550
1850+965078595+964061690+964365760+967236038+968595751+966291008+964121336
1836+963803696+963403057+962615111+963098750+963691268+963189167+963433905
1823+963759987+962909082+962129578+961548500+960314391+959274763+959761717
1809+960749667+960363307+958566898+956750765+956230438+956377187+955440678
1796+953291204+952336785+954077019+954533676+951806044+949257745+947768798
1782+945800472+943544171+940737721+936458260+932225586+930219153+928876008
1769+926574262+924600098+923541456+924726018+927473848+928710403+929620955
1755+930158560+929459847+930776088+934178212+935539503+934536326+932951282
1742+932394189+933247225+932228348+930253236+932786782+935090815+932325470
1728+928858414+926339228+924467787+922134799+919052208+918549476+920963018
1715+920724907+917087512+912813416+909141780+906862126+904572767+900380883
1701+897852781+897094027+893525273+889894189+885239810+878263487+871893489
1688+865988274+861863768+860997556+856921572+848977181+841905709+837810395
1674+834864217+830428225+826876591+825208153+822041222+818628841+817776752
1661+817246247+814398534+810147477+809485451+817490829+821822124+819218282
1647+820598193+825128230+826001148+825611633+826834381+831529235+842086147
1634+851614476+855147885+859004457+865835608+873008069+880890999+888637831
1620+892539374+896799268+905850980+912541142+914679413+917601526+921965091
1607+925355223+927604422+929934965+932120969+933688971+935326323+937452364
1593+939292404+940342762+941006918+941587522+942173649+942760249+942959070
1580+942318031+943329255+947658578+948487393+945419477+945234700+946628340
1566+945485830+942945736+939827958+940763678+948613707+950115593+945090871
1553+940570459+937216304+934395810+931709599+929795081+929095184+930897826
1539+933913749+930847884+925021251+922549482+920897928+917230158+914372582
1526+912571991+910435535+909417920+908040928+904103723+899241213+893557699
1512+886864697+880268895+876253819+876183048+872105565+862474038+853001252
1499+845579949+839170976+830845197+819796361+808013624+796250770+783594010
1485+769769810+755108747+739195350+721497773+701293555+677662912+649461245
1472+618902643+596254428+588602628+597342065+616890766+634876476+648253684
1458+663350022+681972037+697161632+710496276+725303535+739314248+749032641
1445+752878246+751861104+747152364+740431905+733677994+725969032+716352890
1431+706661085+697781448+689064102+680731695+672869200+665358034+658558875
1418+651579594+643965664+637469154+633690257+632750986+634348890+638774034
1404+645228452+651543774+657517906+662650757+664149803+659860914+647593867
1391+625871865+593028600+548503704+500500115+462023672+444677621+455148022
1377+487545125+526048314+554849994+569054360+578997807+598460905+633233600
1364+681331156+732702351+772928773+797373555+808900270+809733503+801262948
1350+784796639+762062426+736984257+715717926+705286303+710120015+726817965
1337+745431144+758687443+764707453+763802976+756964092+745472328+730710277
1323+714089804+697096857+681081999+666985761+655460899+647010344+641829642
1310+639783957+640817549+644981267+652162367+662109996+674643913+689738042
1296+706847835+724754411+742844501+761332075+780173819+798773348+816352501
1283+832493910+847351348+860870926+872810826+883649243+894049544+904201871
1269+914094785+923593449+932247835+939507004+945505396+950682706+954963902
1256+958268983+960986200+963810482+967109171+970394291+973013755+975042990
1242+976745669+977983881+978926781+979934534+980745912+981222609+981591926
1229+981488019+980709856+979807115+978960154+977909639+976482153+974884880
1215+973503548+971940990+969792937+967669657+965600106+962567930+958391668
1202+953479610+947790810+941503654+934534353+926261199+916833147+907232548
1188+898261311+889482819+879063899+864954091+845625473+819618132+784892342
1175+739264543+682028607+615686441+547032746+486600055+444839558+427368139
1161+433580895+458254243+493887272+532822817+568678415+597296265+616731986
1148+626596812+627020884+617263318+596183933+563599648+521097478+473906017
1134+431161909+402166615+392805153+404883478+436109904+479208615+522610568
1121+555040372+570934124+571610707+562610396+550886161+542329529+539967151
1107+544574113+556034200+572985923+592709106+612193151+629261602+643990516
1094+658991271+677718455+702240478+732200487+765832290+800715638+834036507
1080+863961407+889729373+910994758+928107076+941263649+950189441+954786857
1067+954508902+948262299+934123773+908483541+868469195+816096716+760120846
1053+714405945+692311509+699794982+733443353+784106368+841234057+896111048
1040+943287992+980058087+1006482635+1025178419+1038789676+1048541443+1055797140
1026+1061796558+1066326122+1069392460+1071496095+1072566887+1072714109
1015+1072301950+1071818626+1071570652+1071132300+1070006359+1067906669
1003+1065041440+1062185994+1059365264+1056047323+1052323772+1048222304
991+1043170993+1036773144+1029270341+1021295338+1013015161+1003928656+993631789
978+981617016+967121243+949454751+927519135+899941662+864889711+818517517
964+755083816+669426996+561959573+445599929+344106401+278283260+256641101
951+278106057+336708334+423481350+527236071+633985017+729271667+804685269
937+861500447+906624724+945028148+977271045+1002456119+1020621557+1032712702
924+1040623956+1046994822+1053327107+1059511460+1065018008+1069411001
912+1072399625+1073741823+1073615193+1072434339+1070090621+1066730944
901+1063097020+1059011962+1053333103+1045470687+1034872275+1019978782+999618347
887+975056876+949932789+929592078+921343460+930258444+952862950+979404266
874+1001816974+1017008856+1025232937+1028464959+1028930689+1027740210
862+1025402250+1022488579+1019187128+1015344600+1011205655+1006985841
851+1002389609+997608521+993128031+988314831+982197304+975180192+967941063
837+959950439+950585899+939833165+927120310+910748205+887473704+850977619
824+792140307+708073265+620040419+571246438+590810722+667160834+760830684
810+836375019+882286295+905397163+915847012+920370974+922102451+922196181
797+921250756+919283535+916069344+912252536+908408431+904407556+900263641
783+895918460+891341715+886817753+882503025+878516905+874895526+871137497
770+866932831+862851245+859293851+855750265+851845961+847969507+844172976
756+840137624+836195843+832828355+829924546+826925744+823158326+818780718
743+814947106+811972920+808994789+805712510+802496820+799313636+796224023
729+793647400+791065254+787821083+784267792+781037427+778498043+776037794
716+773161440+770415109+768086460+765944955+763738517+761345093+758827959
702+756407000+753956849+751430799+749418527+747787328+745900030+743729490
689+741693865+740017537+738251582+736511664+735415861+734605745+733383313
675+731844187+729487766+725996488+725661333+730574890+730269085+726675004
662+724067769+722800759+722821825+723409924+723273590+722696852+722661979
648+723039581+723077294+722846914+722862220+723296391+723594859+723435566
635+723555332+724404028+725567288+726608967+727535930+728271882+728803175
621+729496760+730432323+731759609+733471756+734991237+736206884+737488963
608+738794710+739744790+740513090+741340406+742208984+743420371+744871921
594+746397476+748443753+750820608+752497330+753275966+754363248+756420175
581+758647915+760468230+762032761+763432396+764834793+766684300+769074410
567+771453633+772909679+773326335+774070020+775732462+777706784+779912433
554+782039815+783544542+784611783+785949879+787845935+789562895+790437549
540+790757556+791534850+793086836+794484341+795481365+796672790+797928675
527+798689638+799242392+800376933+802037875+803345596+803774559+803725880
513+803766275+804083757+804116815+802958447+800616307+797549653+793654817
500+788663941+782511541+775208032+767639034+761075975+756049911+754034405
486+756888982+764228942+773910490+783832201+792759807+799563740+803932511
473+807103861+809656736+811343163+812046846+811740489+811178268+810763111
459+809658393+807786164+806118041+804768742+803179438+801175056+798400007
446+793818923+788160577+783223351+778328099+772765377+767740259+763410542
432+758590084+753645442+750466439+750511647+754747556+762920669+773737468
419+784727052+792356012+798407423+804726296+807957371+807731961+808997156
405+812398807+815390271+819403690+826340012
##END=
