##TITLE=павел 3-многокр
##JCAMP-DX=4.24
##DATA TYPE=INFRARED SPECTRUM
##DATE=3/2/2015
##SAMPLING PROCEDURE=Instrument type and / or accessory
##ORIGIN=Default
##XUNITS=1/CM
##YUNITS=TRANSMITTANCE
##RESOLUTION=4
##FIRSTX=3996.3347
##LASTX=399.24773
##DELTAX=-1.928733
##MAXY=1.6473955
##MINY=0.22731429
##XFACTOR=1
##YFACTOR=1.5342566e-009
##NPOINTS=1866
##FIRSTY=0.99734032
##XYDATA=(X++(Y..Y))
3996+650047921+651953708+652610803+652356574+652204130+651607911+650630116
3983+650504905+650982361+650635788+650038947+650835939+652252614+652730692
3969+653652661+655721925+656361305+655068481+654862969+657031920+659556264
3956+660106990+657851250+655368320+655885402+657671766+657722814+656668136
3942+655829848+654774859+653234721+652178489+652578558+654231825+654680300
3929+653389186+653218482+654217995+654216829+653620805+654686827+657340227
3915+658425752+657266414+656114613+655467074+654453654+653593222+653618396
3902+653991348+655060712+656592769+656447628+655249519+655273294+654758232
3888+652818258+654282795+658514173+659023097+657432844+656580415+655523949
3875+654956907+654202222+653212267+653224232+652287034+652046324+654732747
3861+655569636+651797146+646310978+643720785+649895710+658682079+658773452
3848+654526302+651512692+651310015+652987796+654633603+656062866+656408468
3834+654831501+653232002+652088048+651106718+650896116+649549059+647911643
3821+649887979+651448979+650382879+650182145+649478975+646975066+644689645
3807+645404781+647057154+645985266+645301637+645729289+644855182+643906640
3794+643465157+643261937+643448957+643349387+642898425+643271999+644237246
3780+645371526+646680239+646412530+644337322+642416617+642345834+643698330
3767+644286041+644462300+645032489+644750133+643348610+641745148+640258233
3753+639749153+641910801+643852290+641145433+638050511+638585387+637956651
3740+635164443+634078491+635124350+635736342+633801846+629926327+627929245
3726+629354234+629559707+626557946+624363044+623221382+620284771+615800136
3713+613030187+613127077+612357863+608936725+604480139+600274829+596005768
3699+591246041+585564928+576919660+565971023+557089279+552212112+548629361
3686+544128253+540109109+537675634+535967551+534692015+534850481+534851375
3672+532540002+529260159+526218849+523844580+522123599+519769765+515924393
3659+511822694+508749451+506777349+505132590+502627904+498857978+494907558
3645+491256043+487293153+483315966+479887524+476041531+471345478+466853927
3632+463076969+459757577+456409242+453315214+451004036+449159631+447301513
3618+444897563+441442276+436880797+432348028+429304309+426081884+421227249
3605+417595470+416027633+413912955+410175506+405871442+402095261+399087711
3591+396232217+392769082+389013841+385858275+382249068+377722204+374156702
3578+372147732+370009782+366322993+361457830+357302597+355150196+353911450
3564+351469584+347961811+344509710+341127615+338359726+336638590+334316845
3551+330423922+326126501+322430233+319394342+317068829+315375548+313082143
3537+309194912+304489458+300503024+298091130+296591667+294301196+290824698
3524+287353754+284203065+281316938+279291030+277971089+276622789+274536470
3510+271542498+268591163+266262698+264355066+262589680+260497515+258119866
3497+255956004+253974812+251483626+248455661+246008783+244408390+243168265
3483+242092395+240474403+237877917+234888859+232412378+230828982+229350925
3470+227204351+225146470+223906462+222467274+220423165+218584102+216676023
3456+214914620+214240431+213360749+210955148+208410040+207327429+207410100
3443+206839852+204535279+201686874+199325775+196799043+194170816+193403253
3429+194841703+195530150+193854429+191584353+190410253+189815588+188674159
3416+187397322+186646736+185923539+185204149+184866277+184526891+184083757
3402+183404498+182401723+182279872+182900741+182403801+181236849+180939924
3389+181057074+181057055+181175040+181026966+180406680+179801895+179821184
3375+180471248+180627810+179861937+179250275+179504349+180256120+180881515
3362+181514038+182534218+183516598+184000736+184335558+185435787+187665498
3348+189760344+190026597+189119138+189417422+191327502+193389054+194828378
3335+195913067+197520511+199856533+201871389+203130550+204488485+206464161
3321+208720930+210845846+212444821+213534152+214953566+217124965+219199182
3308+220489908+221683180+223930509+227224339+229942928+231268716+232227631
3294+233497397+235534844+238438860+241185421+243568179+246183429+249140922
3281+252153852+254849424+256988480+258484466+260187226+262981494+265922243
3267+268157159+270659048+274223657+278133906+281344871+283731474+286289772
3254+289992820+294206365+297468707+299697797+302181757+305530733+309030113
3240+312158406+315095348+318214628+322011302+326150471+329872574+333809008
3227+338573513+343188022+346604887+349358129+352934237+357304268+361686224
3213+366429828+371077203+374689557+377977365+381888742+386352437+390786180
3200+394791067+398784648+403371068+408581251+414092788+419208800+423446005
3186+427244913+431199917+435622355+440530680+445320592+449667546+453961742
3173+458292962+462559614+466744023+470999875+475797169+480676124+484587151
3159+487724612+491271661+495664534+499938218+503691673+507895351+512682932
3146+517022233+520663141+524268153+527896202+531187118+534490621+537997810
3132+541068218+543707244+546492305+549612051+553427897+557667899+561174894
3119+563446524+565192951+567760611+571285943+574615747+577012354+578450901
3105+579769793+581814232+584397549+587149626+589923265+592351340+594076400
3092+595812921+598660140+601775768+603597912+604488025+605552959+607028646
3078+608849392+610988934+612906880+613652824+613359668+613787630+615792327
3065+617662527+618257037+618575794+618842533+619078037+620160337+621022051
3051+620233723+618748285+617562374+616805669+616336721+615520460+614252500
3038+613157263+612427714+611457766+609823186+607763013+605045472+601551958
3024+598279029+595202366+590777209+584972284+579427221+574253750+567950933
3011+560262871+551863595+542484349+531862239+519949559+505980629+489469446
2997+470288974+448078730+423323436+396785934+367677354+335027863+299748670
2984+263851910+229522502+199194465+174857324+157514652+148159240+148703867
2970+161749128+189312879+230888945+282351725+337251242+389703103+435392795
2957+471080837+495841803+511199281+518454525+517866309+510773494+499458004
2943+485327500+470828784+459304129+451365100+446144583+443799684+444672976
2930+448660924+455098470+462297110+468551171+473686142+478030959+481615614
2916+484975021+488213491+490382752+490777188+489624999+487460282+484517844
2903+481438151+479095622+476901807+473863644+470611034+468045005+466034442
2889+464396172+463632629+464702575+468351253+474568680+483150158+494087684
2876+506577314+519375795+532076842+544642889+557076381+569449930+581585799
2862+593354310+604854451+616404901+627987130+638831496+648601682+657571225
2849+665817745+673492948+680359312+685769296+690205254+694874928+699782203
2835+704055616+707710082+711203325+714429363+717436912+720682919+724146480
2822+726875559+728373740+729551181+731420527+734243388+737563052+740998642
2808+744631431+748129647+751095705+753692075+755944785+757670234+759245491
2795+760843281+762238900+764053002+766350699+767998138+768697269+769338824
2781+770803439+773022117+775211736+776576897+777183721+777990697+779288960
2768+780797396+782404666+783983420+785425036+786598204+787430742+787705717
2754+787348848+786886465+787115986+788310677+789301254+789304750+789167690
2741+788952077+787980225+786653525+785527287+784221798+782581663+781274387
2727+780648526+780585668+780820240+781255506+782468378+784379448+786200077
2714+788326527+790823288+792529001+793621363+794839518+796021622+797634563
2700+800453072+804222144+807990284+811069549+813447820+815371865+817071129
2687+818497206+819493766+820198956+820392348+819729736+818550196+816901980
2673+814684856+812495626+809871673+805810533+801505575+798875173+798222351
2660+798959554+800693238+803144234+806194829+810241284+815216235+820045113
2646+824196695+828039347+831354427+833827645+836018817+837988938+839361869
2633+840375445+841188015+841777202+842106021+842021951+841507277+840762383
2619+840358506+840617242+841027490+840826251+839928213+839257287+839295437
2606+839560621+840034426+840449103+840179955+840007931+840652750+841492515
2592+841753581+841261673+840980171+841661897+842527147+842823333+843061245
2579+843902253+844948928+846320616+848658483+850887806+852251413+853649284
2565+855336738+857254879+859648223+861756958+862592915+862609698+862908759
2552+863389789+863094536+862124859+861288281+860680291+860197395+859946196
2538+859548458+858536281+857623713+857809801+858519576+858480494+857683308
2525+857400486+858306682+859657080+860623416+861093180+861752451+863346978
2511+865334114+866596014+867086446+867824426+869449410+871602822+873707438
2498+875340892+876501861+877440380+878035472+878363748+878927994+879757657
2484+880489421+881098033+881442159+881319007+881442159+882280680+883312981
2471+884455614+885948822+887722210+889600491+891266578+892723268+894211814
2457+895707197+897191237+898594470+899628092+900077733+900547031+901779638
2444+902785444+902489957+901657419+900947411+899967401+898589575+897218509
2430+895830505+894068227+892199114+890846074+890011205+889198635+888406267
2417+888005032+887726483+887101555+886625963+886938078+887844974+889182474
2403+891066427+893318593+895132928+895873161+896019778+896393197+897556963
2390+899084048+899768337+899512244+899201372+899459486+899838965+899441149
2376+898488645+897256037+896197785+896908337+898375438+898678462+900981753
2363+908080746+916948698+923562774+925671587+924517455+923750027+921404390
2349+915503197+909847297+909435495+913747834+916062159+916183368+917107746
2336+916804956+914513707+914251475+917467878+920734785+921309598+920524223
2322+920139927+919765809+919569931+919368459+917950308+916160758+916182591
2309+917356770+917560495+917101220+917074258+917313725+917395619+917543401
2295+918018605+918356904+918290394+918426754+918981443+919251523+919104595
2282+919049352+918900248+918473296+918396763+918913224+919194648+918829232
2268+918486038+918357370+917931971+917184823+916884286+917399504+917991099
2255+918396297+918961397+919333572+919244064+919051605+918910582+918672204
2241+918317044+917977658+917867714+917914256+917339831+916017871+915232806
2228+915232806+914810049+914083647+914076188+914102294+913015915+911728297
2214+911324110+911217120+910935385+910524671+909966175+909473334+908798135
2201+907429012+905861058+904930076+904604442+904764578+905657488+907104077
2187+908449813+908991915+908863946+909225243+910746656+912836665+914510599
2174+915462638+916031080+916414832+916479710+916288494+916155941+916227423
2160+916707366+917642389+918503987+918766607+918549596+918438798+918414944
2147+918262267+918514554+919190996+919623077+919626729+919323782+919004520
2133+919127128+919713673+920269994+920513578+920762213+921221954+921603609
2120+921795990+922015721+922373989+922644612+922566525+922624955+923456561
2106+924614811+925372836+925672985+925792641+926057282+926466364+926901242
2093+927527335+928194842+928503849+928249154+927714899+927663618+928073089
2079+928286449+928239286+928444798+929423643+930792999+931962904+933116725
2066+934315923+935403001+936087757+936187133+936292725+936870491+937942729
2052+939427701+940861858+941923218+942852413+944039800+945432932+946332214
2039+946421101+946593125+947790613+949586223+950907251+951645386+952301938
2025+953003088+953635708+954013323+954457524+955378095+956169298+956598348
2012+957100746+957407577+957503613+958190855+959507687+960334010+960149010
1998+959866576+960398888+961489463+962337774+962591149+962306695+961626134
1985+960995068+960888155+961092036+961166160+961178747+961414096+962138555
1971+963177927+964064699+964911689+965650679+965795586+965724725+966137925
1958+966689662+966742419+966907373+967773865+968255906+967700440+967159582
1944+967426320+968023588+967836024+966707222+965468864+964418537+963378544
1931+962297759+961362348+960777124+960859951+961411221+961396069+961539112
1917+962217808+961202134+958908244+957708814+957617829+957304938+956463464
1904+955911184+955982511+956500060+957494056+958943675+960372005+961514560
1890+963392918+965690305+966590130+966491220+966733406+967456545+968088544
1877+968646496+969315013+969347103+969300406+970865873+972814161+972857516
1863+971852643+971220411+970897496+970727570+970829355+971019017+970950564
1850+970467436+969482609+969426743+971662593+972601422+970393622+968351009
1836+967889092+967534865+967124384+967900980+968459864+967843716+968062126
1823+968200818+966983362+965952692+965447964+964681313+964183422+964735547
1809+965127225+963893840+961767235+960323909+960126478+960281020+959471946
1796+957606097+956999738+958787268+958636611+955402415+953016141+951867992
1782+949891811+947369254+944204365+939485430+935019249+933280047+932155518
1769+929790379+928006890+927183520+928229107+930740941+931890800+932737946
1755+933335369+932815644+934149803+937434736+938719091+937680497+936077423
1742+935416054+936040128+934785998+932702904+935300284+937702485+935025231
1728+931678139+929191713+927226643+924720791+921418298+920860424+923336283
1715+922927512+919125341+914802668+910927071+908220525+905615686+901500390
1701+899165398+898315688+894424319+890631238+886175235+879420058+872960679
1688+866676587+862235735+861509721+857728684+849826678+842783862+838788610
1674+835834750+831439973+827901199+825905516+822508153+819210555+818380503
1661+817730167+815173346+811433255+810587741+817707479+821913294+819728959
1647+821346484+825804896+826556706+826399833+828085733+832993086+843353236
1634+852552727+855929422+859804164+866900048+874562820+882669638+890226973
1620+893929613+898072881+907145024+914146582+916487014+919104906+923092621
1607+926715154+929572435+932260101+934568287+936283479+937796811+939453186
1593+941049810+942143648+942839127+943712534+944855245+945694232+945758178
1580+944717408+945037370+948918405+950035553+947319838+946923732+947866913
1566+946690481+944338939+941240094+942166181+950158239+951479111+946086531
1553+941515146+938323062+935594450+932858844+930587176+929360318+931129356
1539+934460286+931346056+925432276+923092466+921521637+917661891+914391643
1526+912234425+910105955+909344510+908088127+904065914+899188086+893860384
1512+887559665+880691204+875904283+875335531+871177267+861662476+852556146
1499+845421179+838562352+829332326+817748892+805889164+794177916+781480676
1485+767615008+753015633+737157389+719259251+698656120+674763395+646484362
1472+615849513+593019857+585230786+594091279+613820458+631910550+645639547
1458+661270057+679961884+694869799+708165861+723193898+737598638+747658483
1445+751563527+750505508+745681681+738658289+731629380+723783318+714030381
1431+704262837+695290692+686283116+677728211+669861092+662300105+655471581
1418+648634782+641155572+634641998+630643017+629620195+631499409+636181631
1404+642692408+649015620+654959781+660029291+661284742+656428359+643770007
1391+622011346+588815830+543591513+495236805+456764945+439609953+450583027
1377+483621903+522600007+551561038+565712442+575731613+595493891+630738081
1364+679540604+731769160+772728106+797506904+808972081+809394682+800159761
1350+783085071+760225346+735014001+713368469+702570877+707230217+724199626
1337+743431302+757096509+763252708+762309994+755138820+743146071+727878490
1323+710828352+693661045+677710340+663632943+651988983+643291307+637775614
1310+635669366+637010246+641558710+649165073+659638935+672643006+687946483
1296+705112547+723178280+741486822+760138168+779167517+798044577+815994385
1283+832489523+847428517+860939959+873114133+884149560+894566274+904775766
1269+914726135+924207671+932860631+940225508+946441691+951794800+955921984
1256+958850437+961503526+964523741+967815123+970898040+973333108+975303462
1242+977164883+978734546+979866612+980752063+981398669+981748467+981858799
1229+981565021+980837298+979982305+979165151+978335953+977088661+975295692
1215+973565349+971831431+969554246+967158339+964835312+961760553+957639041
1202+952579554+946605168+940313152+933537928+925112780+915227056+905361923
1188+896167793+886870325+876002027+861737766+842174240+815694547+780524442
1175+734500103+676636937+609568180+540428333+479751979+438093747+421215284
1161+428079899+452950536+488495769+527629386+564059914+593142038+612685440
1148+622340632+622353452+612359650+591150977+558121775+515184316+467953204
1134+425248608+396188084+386809809+399015140+430529691+473982678+517679134
1121+550188923+565903075+566356795+557236052+545414473+536580125+533837294
1107+538365207+550130727+567663954+588125829+608085422+625158015+639936173
1094+655406314+674446386+698759226+728575755+762472927+797887393+831769026
1080+861985935+888084984+909980006+927465254+940703042+949774719+954422482
1067+954146109+947875459+933308485+906891960+866000611+812449473+755158555
1053+708777270+686805560+694628468+728634107+779931992+838095929+894155327
1040+942415826+980039568+1006788176+1025268664+1038764022+1049028447+1056990824
1026+1063162175+1067470629+1070294500+1072031526+1072834539+1073225828
1015+1073162659+1072555213+1071894854+1071232320+1070309962+1068643875
1003+1066074001+1063285483+1060338227+1056699766+1052489989+1047941990
991+1042647310+1036149315+1028671077+1020602253+1011806250+1002030237+991164270
978+978581169+963416616+945157958+922945460+895248388+859739752+812628645
964+748569886+662285109+554175395+437731051+336923665+271996801+250928529
951+272490438+330921075+417711863+521655699+628573365+724329460+800715071
937+858636512+904520216+943333677+976043539+1001790304+1020244219+1032417228
924+1040470823+1046909145+1053253220+1059598616+1065269278+1069624973
912+1072481399+1073741823+1073457214+1071918630+1069221408+1065834690
901+1062414872+1058325139+1052363340+1044206407+1033234149+1017859733+997099418
887+972119382+946407581+925433363+916734872+925548357+948404974+975490638
874+998514151+1014080404+1022599180+1026170742+1026538411+1024933162+1022543470
860+1019608024+1015920536+1011722103+1007309222+1002824858+998274918+993879985
847+989678133+984715303+978222513+970850411+963245292+954997217+945632928
833+934802936+921644323+904734431+881169671+844412576+784830954+699790595
820+611307847+562712468+582794126+659764029+754124545+830244816+876462157
806+899893276+910672609+915196909+916696877+916534798+915344925+913228576
793+909980705+906042717+901895254+897714691+893603202+889301197+884804091
779+880325555+875870406+871637553+867794201+863859709+859515436+855420963
766+851851887+848179705+844251818+840435428+836626652+832510501+828409890
752+824904760+821849814+818575526+814657118+810322790+806377110+803135299
739+800180506+797288883+794389800+791277435+788047668+785039185+782110966
725+778892154+775436828+772318403+769797323+767052238+763943214+761174587
712+758847442+756739640+754471468+751982166+749643211+747379158+744769346
698+741975234+739596342+737479915+735375531+733484741+731880968+730544711
685+729082271+727352394+725855612+724747866+723615412+722258642+720102822
671+717061163+717350667+721933863+720480048+716540506+714680484+713825879
658+712852085+712379601+712252098+712146428+712283954+712538494+712598866
644+712637793+712745949+712887826+712985959+713222473+713929373+714693226
631+715054058+715396630+716263356+717239248+717700621+717978781+718763613
617+720563185+722824209+724442589+725573878+726835311+728108011+729214436
604+730420160+731635130+732530138+733478525+735003744+736904558+738641195
590+740119640+741484724+742839240+744450783+746240643+747986448+749891147
577+752020316+753929366+755218538+756432187+758496245+761349564+763854249
563+765167663+765960576+767035067+768320509+769885977+771633025+772950324
550+773901508+775431700+777490086+779035974+779851729+780215280+780742619
536+782155953+784151714+786083996+787641771+788722012+789452066+789839781
523+790089349+790869829+792323799+793634105+794125081+794121585+794193145
509+794075044+792888977+790312965+786636121+781828687+776274029+770866608
496+764989579+757488264+749574371+743515527+740848762+743667116+752465140
482+763724649+773615189+781008115+786842488+792027458+795854182+797976591
469+799450452+800298841+799997294+799393810+798966857+798195079+797446455
455+796531012+794362916+791330347+788289776+784711842+779477689+773520552
442+769110080+765398661+760531788+755291575+750048020+744328641+739739074
428+738000261+738737230+742490219+751119170+763869478+775444520+781161180
415+785243765+791088628+795670036+797209475+798930028+802674237+806078592
401+808559502+813067719
##END=
