##TITLE=павел 3-многокр
##JCAMP-DX=4.24
##DATA TYPE=INFRARED SPECTRUM
##DATE=3/2/2015
##SAMPLING PROCEDURE=Instrument type and / or accessory
##ORIGIN=Default
##XUNITS=1/CM
##YUNITS=TRANSMITTANCE
##RESOLUTION=4
##FIRSTX=3996.3347
##LASTX=399.24773
##DELTAX=-1.928733
##MAXY=1.7216023
##MINY=0.22613738
##XFACTOR=1
##YFACTOR=1.6033671e-009
##NPOINTS=1866
##FIRSTY=1.0468417
##XYDATA=(X++(Y..Y))
3996+652902093+655085213+656854133+657889447+657296214+656573315+656516438
3983+656340750+657024095+658983721+660322827+660061489+658552420+657020824
3969+657879707+660661488+661712639+660384314+659614352+660958142+663611224
3956+665570775+664402970+661579851+660847287+661376506+660749518+660060522
3942+660628403+661373829+661286766+660477919+659737400+660029147+660246916
3929+659162754+658170711+658598294+659396434+659202828+659499036+661212937
3915+662146690+661807360+661395911+660938885+660405726+659678887+658435394
3902+658093982+659895244+661768178+661819925+661175762+660757622+659358962
3888+657766102+659149445+661716282+661742750+661582825+660810187+657720451
3875+656322163+657324466+657788852+657180452+655509599+655104023+657307812
3861+658139558+655382090+651061947+649503139+655982758+663826986+663542005
3848+659680002+656400155+654652797+654227668+654274880+655178596+656082386
3834+655463205+654693095+654583578+654965882+655642907+654760083+653757780
3821+655548112+655969896+654740083+656135992+657231976+654908559+651467002
3807+651263508+652287596+649332210+646747603+647484405+647453104+647169759
3794+647529164+646996599+646143441+645749092+645590505+646003367+646736377
3780+647773178+649375555+649839718+648653177+647707156+647847082+647771245
3767+647405298+647956598+647601431+645267085+643584262+643388798+642806345
3753+641800993+642534226+643580545+640887834+638551406+640551106+640605679
3740+637037208+634665538+635478994+637037059+635847692+632252604+630119968
3726+631085543+631064056+628005844+625453506+624031500+621305073+616802551
3713+612910326+611559064+611040179+609282710+605226470+598920642+592239573
3699+586440027+579978363+570777632+560290508+552196356+547427217+544089080
3686+540377450+536101693+532618873+530288876+528262559+527651110+527765087
3672+525562042+522249519+519901789+518800304+518201606+516412277+512598268
3659+508143627+504528613+501674714+498776576+495492008+492144206+489488708
3645+486622838+482497379+477993742+473382930+468280967+464057738+461562760
3632+459795253+457641613+455027193+452379947+448913558+445044641+441812452
3618+437952011+433472426+430272133+428240240+426165485+422881214+418549696
3605+415069552+412562752+409928555+406927630+403391500+399377305+395572292
3591+392674600+390303897+387221783+383289148+379147630+375042171+371280986
3578+367749541+364224230+360875944+357642454+354922495+352856736+350373208
3564+347637710+345028903+341615524+337883001+335160440+332609217+329084538
3551+325462349+321894027+317970389+314783776+312638426+310421366+307400422
3537+304154794+301865206+300208257+298087014+295660809+292984902+289698643
3524+287121955+285257812+281732501+277216689+274243180+272447383+270075788
3510+266795142+263762971+261983048+260686804+258964651+257426716+256284747
3497+254610809+251953582+248608587+244975264+242195547+241242909+240911032
3483+239755550+237394420+234036617+231224893+229619244+227735065+225055886
3470+222874402+221673121+220370632+218454891+216384188+214318633+212786367
3456+212328598+211700328+209606483+206807769+204648479+203824651+203971007
3443+203707067+202167869+199323560+195889215+193721709+193280724+192551450
3429+190646899+188599950+187505695+187653966+187666829+186525696+185368114
3416+184716981+183728228+182465442+181558919+180630110+179502490+178988011
3402+179255762+179502806+179077175+178247027+177670690+177366917+177032717
3389+176711342+176710561+176929111+177114687+177514779+178088514+178288458
3375+178091767+178007845+178053031+178029444+178157808+178589090+179288085
3362+179808122+179960501+180687879+181726019+181414272+180880500+182673638
3348+185561757+186849636+186971885+187667312+189213667+191039519+192804535
3335+194298102+195650071+197517392+199777277+201550657+202904987+204075636
3321+204798999+205480745+206729888+208995220+212204454+215071123+216616046
3308+217432476+218818292+221148289+223885349+226458932+228320919+229868277
3294+232085096+234907917+237332003+238754566+240210847+242755435+245706453
3281+248451579+251125609+253545792+256015175+259206119+262555594+265557690
3267+268950344+272431714+275130391+277813064+280638711+282744526+285044913
3254+288673886+292724661+295895028+298374821+301366712+305081782+308467037
3240+311344134+314624966+318324106+322068190+326107144+330186618+333995944
3227+337730623+341438759+345677563+350734285+355211900+358359294+361513825
3213+365681589+370685076+375885218+380617851+385213979+390157541+394751029
3200+398592250+402434885+406742277+411385913+416174383+420631849+424399279
3186+428070649+432816479+438494613+443684457+448018764+452366788+457552320
3173+463238594+468112380+472042932+476055231+480300319+484501614+489040233
3159+493667550+497748845+501732111+505894634+509925186+513741761+517344841
3146+521124427+525036058+528341629+531544450+535332178+539212693+543187223
3132+547313574+550979629+554073305+556824528+559243000+561679465+564785930
3119+567928937+570303840+572942536+576354501+579774125+582755199+584832371
3105+586261960+588373258+591572994+594890238+597455291+599570604+601978853
3092+604525764+606907434+609078249+610452522+611092112+612097204+613877239
3078+615914411+617707085+619191395+620327565+620941356+621670537+623119234
3065+624243991+624323098+624237448+624472169+625046517+625988970+626466739
3051+626035141+625163915+623851798+622537748+621751466+620467527+618380430
3038+616859019+616181697+615355676+613987573+612025420+608948956+604708775
3024+600336253+596384697+592121952+587255044+582074494+575867327+567815851
3011+558764822+549807400+539961874+527887095+513884511+498372450+481024221
2997+461264657+438784724+413993679+387146467+357639964+325007368+289628884
2984+253050365+218765634+190337253+168196111+151241868+141039057+141466436
2970+155216789+183261258+225403897+278164439+334666612+388395052+434794692
2957+470939662+496432602+512365182+519582905+519002014+511839607+499983563
2943+486132170+472677875+460788115+451390432+445977317+444855608+446771182
2930+450971511+457182246+464089114+470307767+475467686+479534223+482990018
2916+486449753+489719711+491996437+492698406+491959745+489907518+486835812
2903+483318382+479782736+476747647+473783748+470081745+466472679+464067255
2889+462721012+462544320+464399262+468706989+475684563+485484587+497500370
2876+510329126+522687845+534610394+547088704+560610471+574356028+587445825
2862+600023354+612255828+624437745+636676688+648160836+658359930+667146832
2849+674895372+682411273+689328661+695284267+701135783+706782095+711240899
2835+714782902+718365574+722232483+725970545+729385485+733123546+737125251
2822+739756251+740678034+741468070+743040410+745329775+748152374+751713335
2808+755890356+759598083+762576815+765393986+767854652+769871750+771966022
2795+773792562+774720442+775602076+777056275+778565046+780171513+781815748
2781+783212996+784874555+786912247+788651873+789897224+790912316+791677519
2768+792378411+793530602+795200563+797017066+798476172+799274684+799447992
2754+799429479+799782490+800449924+801148139+801606874+801496168+800905611
2741+800082936+799116543+798042938+797033051+795867402+794131419+792382797
2727+791252539+791014695+791828820+793062127+794265917+795697068+797600337
2714+799962936+802169327+803751927+805179806+806884711+808686716+810517568
2700+812697640+815423212+818507000+821570565+824540895+827550408+830099401
2687+831585570+832489063+833438430+833807054+832838877+830996351+828734719
2673+825857325+822659634+819389304+815451093+811161359+808208873+807519877
2660+808738463+811072958+813896672+817305663+821653018+826754796+831730030
2646+836016270+839907194+843275740+846095141+848790751+850830153+851850524
2633+852346657+852698775+853219146+853511711+852989035+852252902+852007550
2619+852321601+852915504+853210671+852803608+851717067+850762272+850841826
2606+851623981+852323832+852251490+851400710+851035506+851639669+852730300
2592+853808737+853975874+853444648+853343533+853844053+854443978+854761598
2579+855106430+855892228+857325981+859688952+862358391+864458908+866198237
2565+868284925+870877933+873048339+873969081+874306479+875044991+876013540
2552+876293167+875431533+874189007+873369454+872681351+871957262+871548341
2538+871215256+870413621+869567080+869466634+869667154+869462247+869172657
2525+869344775+870114960+871291167+872421202+873101053+873727669+875048113
2511+876943575+878690562+879862605+880911897+882560371+884771595+886887726
2498+888237910+888918429+889564451+890441104+891504225+892548090+893178795
2484+893407642+893798051+894182883+894176043+894545262+895514182+896479088
2471+897548678+898785553+900070607+901785178+903928892+906025767+907960114
2457+909738922+911126057+912102487+913051110+913904418+914621368+915708876
2444+916432593+915991478+915359509+914917205+913793340+911967766+910505686
2430+909554163+907954760+905566585+903713502+902824433+901782427+900371053
2417+899665701+899537597+899035888+898563323+899015813+900063693+901031944
2403+902220716+904243241+906514242+907824054+908152901+908408812+909449926
2390+911050816+912086279+912368881+912334308+912192747+911948807+911057061
2376+909112305+906770598+905789931+907432605+909932750+910802563+912226056
2363+918115044+925414811+929299193+931651457+934420375+936646320+935216657
2349+929106033+921991098+919101883+922399648+926220312+927311017+928124993
2336+928932204+928336443+928319417+930896365+933355098+933462533+933304838
2322+933667886+933251157+932175248+930800826+929405066+928640755+928978970
2309+929642687+929608932+929493096+929728263+929897630+929905288+929779341
2295+929632129+929605958+929858374+930591384+931262684+930904246+930192277
2282+930590864+931469004+931507219+931201941+931329227+931353837+930872648
2268+930433838+930373243+930196961+929345587+928558078+928635104+928914435
2255+929309676+930346998+931179041+931020231+930691235+930866477+930927369
2241+930372946+929596218+929087446+928771610+928166332+927131314+926369234
2228+926341501+926289903+925759346+925268046+924681578+923359647+921909017
2214+921345077+921333850+921193479+920734297+919960023+919164411+918284114
2201+916971626+915658691+914877874+914639212+915257873+916631998+917965453
2187+919014522+919624336+919794596+920169465+921310653+923180539+924818976
2174+925664699+926384921+927197708+927527373+927154958+926711835+927133099
2160+928339491+929255847+929425363+929156739+928810569+928781795+928853840
2147+928635625+928626628+929119565+929583802+929699936+929682686+929819415
2133+930138671+930418596+930510492+930581124+930827889+931136290+931350788
2120+931590491+932036512+932716437+933389745+933606473+933512049+933935915
2106+934924315+935630634+935791898+935890633+936093682+936061117+935930633
2093+936231823+936949219+937667583+937929887+937851226+937974348+938166541
2079+938319180+938573232+938915611+939911966+941571890+943001776+944043782
2066+945016272+946113222+946933593+946919317+946802589+947352328+948346825
2052+949527121+950701320+951780798+952881094+954236928+955933655+957406441
2039+958215287+958737368+959425397+960349783+961292012+962127327+963034686
2025+964138179+965185538+965677805+966094831+967261446+968277579+968555794
2012+969006425+969496016+969482112+969811703+970970363+971780622+971471180
1998+971040623+971305307+971853485+972558093+973355564+973511847+973052219
1985+972718762+972736680+972718019+972410807+972331774+972873186+973721809
1971+974459355+975103815+976034074+976876080+976933998+976776378+977348570
1958+978242101+978413327+978195186+978507528+978719423+978031989+977308273
1944+977543737+978256970+978156524+977133626+975870580+974466641+973009914
1931+971513857+970173859+969593116+969895346+970569843+970770884+970938913
1917+971243746+970002409+967967319+967279810+967435870+966833789+965445315
1904+964495353+964645465+965667694+967143826+968715942+969874974+970716683
1890+972469618+974646046+975654446+976010505+976560690+977426414+978239721
1877+978542918+978604405+978450279+978552955+980169235+982112876+982201872
1863+981359643+980924179+980669235+980477116+980497413+980517934+980274812
1850+979754366+978880464+978922100+981181576+982098675+979822916+977873030
1836+977701878+977267752+976197494+976427977+976996229+976564185+976805820
1823+976800318+975478684+974531920+974160247+973297200+972320398+972260101
1809+972420250+971451106+969601889+968126352+967732524+967612821+966585834
1796+964681152+964013049+965790296+965968660+962966879+960170675+958285176
1782+955830160+953176112+950070317+945188093+940272709+938179478+936732788
1769+934078071+932342757+931782981+933095173+935779927+936956580+937837917
1755+938531968+938075389+939418733+942522595+943398281+942186387+940873303
1742+940492337+941071667+939626688+937253977+939511000+941823265+939230629
1728+935868031+933233239+931061198+928234213+924418307+923345372+925716521
1715+925411689+921485820+916964711+912956166+910249850+907754538+903335659
1701+900345626+899531277+895917007+891478872+886156946+879013461+872385217
1688+865979129+861211552+860030661+856443901+848986364+841811578+837458499
1674+834678725+830469660+826692565+824568702+821173390+817680979+816836593
1661+816576668+814068790+809751324+808426419+815961873+820723651+818342985
1647+819627147+824356360+825662455+825796209+827490482+832153227+842311578
1634+851980412+856193195+860761144+868243141+875862610+883868027+891868611
1620+896243921+900638711+909564126+916394452+918674374+921430207+925715480
1607+929590568+932492422+935017103+937157769+938752786+940233750+941998655
1593+943544527+944347797+944833224+945666085+946900507+947912773+947884000
1580+946454485+946739466+951254702+952717451+949576414+948737828+949473440
1566+947806008+944920064+941453303+941884157+949671135+951431133+946523556
1553+942263710+939093008+936082232+933029448+930735324+929398300+930162165
1539+932422831+929303430+923655037+921437567+919950506+916109694+912817877
1526+910507173+907788292+906138109+904307405+900048377+895064443+889688094
1512+883043419+875569525+870443436+870077934+866198385+856462785+846585326
1499+838562289+831417317+822359188+810454892+797729110+785356041+772251746
1485+757951171+742949258+726587347+708075922+686655877+661510929+632151118
1472+601772199+580199961+573323539+582357021+602074281+620463736+634563679
1458+650474513+669638502+685153053+699018165+714580597+729369722+739738705
1445+743771413+742335876+737001608+729842287+722730178+714498293+704369087
1431+694350959+685148816+675821839+666782149+658454353+650401502+642871772
1418+635745611+628530156+622196596+618227345+617149614+618795002+623207858
1404+629601902+635855127+641373559+645397196+645520096+640190512+627554767
1391+605671562+572037593+526253640+477413557+438827735+422184003+434017965
1377+467830112+507222959+536279425+550715577+561299652+581676650+617829352
1364+668140214+722110550+764289229+789634400+801277209+801666056+792334693
1350+774913155+751171700+724802219+702224034+691101967+696271403+714284538
1337+734414177+748418544+754309986+752902851+745362192+732853807+716934721
1323+699363666+681843169+665678061+651461723+639687762+630956101+625622279
1310+623832690+625368078+629913128+637746575+649012805+662948697+678884363
1296+696520696+715141786+734184735+753727459+773664161+793271867+811740466
1283+828694570+844015293+857531706+869344850+880111898+890502739+900663767
1269+910309776+919294671+927630645+934910858+940896277+945810471+949639165
1256+952508009+955065701+957944804+961284354+964594684+967301892+969478767
1242+971464117+973106791+974200322+975055042+975864409+976494371+976923366
1229+976913701+976378460+975793628+975198387+974256976+972951996+971431924
1215+969789101+967744568+965199813+962721973+960211344+956756702+952219459
1202+946947273+940864828+933909893+925933026+916549916+906017365+895448458
1188+885516129+875457406+863646567+848198707+827183122+798929480+761834288
1175+714304390+655703428+588365117+519256028+458954214+417660329+400824404
1161+407596774+432500346+468130484+507180320+543419639+572497146+592248606
1148+602163946+602344950+592177603+570645104+537573401+494694946+447493300
1134+405097037+376583841+367634969+380064432+411731006+455417750+499439140
1121+532088985+547580525+547677477+538427787+526803118+518302981+515888412
1107+520710376+532646308+550262157+571008375+591463366+608872227+623625255
1094+638936833+658118369+682883837+713233759+747768954+783842363+818395996
1080+849494319+876346848+898487487+916115790+929610345+938747061+943256572
1067+942584825+935500522+919781138+891892552+849401754+794450229+735909639
1053+688509257+666352410+675295074+711645732+765985658+827274423+886260440
1040+937070855+976630579+1004853737+1024697131+1039160308+1049488845+1057096269
1026+1063263027+1067778485+1070719745+1072590003+1073521898+1073741823
1015+1073203162+1072341379+1071802272+1071095284+1069744654+1067559452
1003+1064512839+1061316858+1058045859+1054037389+1049474049+1044623275
991+1038754881+1031395263+1023052449+1014113279+1004287790+993264162+981120164
978+967282859+950405930+929801348+904989709+874729824+836977235+788059978
964+722467353+635169032+527195014+412231489+313841993+251457914+231979018
951+253655141+311250974+397198460+501112818+609064494+706481129+784706897
937+844552541+892580580+933850934+969003674+996713897+1016625246+1029829020
924+1038315700+1044559558+1050583490+1057152329+1063394253+1068002351
912+1070807998+1071927996+1071393127+1069559301+1066542279+1062650834
901+1058539464+1053922816+1047642973+1038961052+1026992518+1010067559+987581047
887+961287625+934499706+912567171+903634543+913235422+937638512+966457730
874+990618366+1006504144+1014955211+1018348961+1018499593+1016633201+1013973428
860+1010937521+1007066597+1002331956+997362744+992459107+987517330+982644994
847+977600391+971525009+964184127+956357149+948397382+939691223+929705809
833+918129468+904091940+886061779+861048355+822420155+760634290+673741024
820+584642037+536678681+558032221+636693119+733164067+811491693+859316833
806+883294125+893843478+897970387+899328601+899279159+898207116+896098866
793+892612105+888125717+883355611+878674577+874338449+869925444+865022179
779+860179732+855782266+851682866+847891570+843960646+839369648+834695008
766+830509809+826459629+822248333+818287298+814703362+810694817+806072221
752+801936762+798746729+795566436+791497371+786800426+782526974+779043559
739+775852782+772673158+769562456+766371903+763065513+760089384+757321358
725+754299652+751060846+747689846+744402044+741263758+738215287+735327781
712+732592246+730144368+727790022+725191810+722588988+720245720+717857842
698+715228180+712873760+711015844+709244471+707286035+705335480+703610575
685+701881953+700253479+699060024+697955564+696418168+694644714+692333044
671+689245018+689318624+693907465+692992746+689413494+687488218+686456397
658+685604205+685340637+685057812+684653872+684750824+685076325+685073500
644+684889857+684780786+684928518+685211046+685553871+686067625+686474762
631+686777215+687436694+688476172+689197509+689521821+690238325+691629476
617+693561890+695466274+696960101+698408129+699868721+701089091+701992882
604+702780019+703557192+704345518+705388565+706784995+708746851+711233911
590+713554130+715218440+716331747+717445798+718855982+720523192+722523709
577+724695974+726674856+728268832+729733514+731607266+733924958+735929565
563+737225623+738469561+740054466+741987549+744167249+745772749+746560852
550+747435572+749093339+751243373+753001587+753927087+754366046+755066714
536+756126712+757200986+758650501+760441353+761902021+763117930+764433021
523+765451235+765745659+765871681+766473241+766971233+766951977+767042534
509+767093984+766057926+763704026+760346038+755867754+750242482+743791562
496+736355587+727750840+719163342+712763946+710658893+714186992+722960884
482+734524511+745453641+753820916+760048491+765070120+768939929+771648625
469+773732042+775110256+775407727+774895386+773836131+772234795+770345355
455+768517699+766730267+764647444+761671017+757401134+751985751+746096912
442+740051790+733792765+728293441+723894265+719451297+714623794+710401124
428+708395327+709146999+712775024+720028025+730324294+741455654+751190065
415+759648046+766768631+771162231+773093158+775111222+777909583+779820063
401+782701918+789433062
##END=
