##TITLE=павел 3-многокр
##JCAMP-DX=4.24
##DATA TYPE=INFRARED SPECTRUM
##DATE=3/2/2015
##SAMPLING PROCEDURE=Instrument type and / or accessory
##ORIGIN=Default
##XUNITS=1/CM
##YUNITS=TRANSMITTANCE
##RESOLUTION=4
##FIRSTX=3996.3347
##LASTX=399.24773
##DELTAX=-1.928733
##MAXY=1.679466
##MINY=0.23104303
##XFACTOR=1
##YFACTOR=1.5641246e-009
##NPOINTS=1866
##FIRSTY=1.0199772
##XYDATA=(X++(Y..Y))
3996+652107387+654659055+655814089+656258954+654892806+653467286+654473168
3983+656081755+656077335+655213289+654833282+655034337+654261443+652507895
3969+652928219+655556941+656755341+656213302+657025903+659931893+662600399
3956+663256988+661622411+659974421+660892275+662177712+661064749+659114567
3942+657758326+655800523+653422319+652484955+652995136+654237283+655584607
3929+655915074+655318389+654799138+654834425+655412971+657278174+659500747
3915+659120588+657446760+657375881+658289466+659190629+660080741+660036384
3902+659203814+659589003+660327143+659652795+658292896+656969123+656044486
3888+655814013+656861660+659024557+660727956+661948306+661539414+659627339
3875+659092464+658870070+657118504+655520053+654874209+654954997+655344454
3861+654845629+653033624+650116888+649064210+655125870+661738944+660244678
3848+655696795+651925463+650140895+651048231+653324002+655682619+656969199
3834+656023756+654331637+653825266+654430716+654931904+653399303+651815637
3821+653799277+654955073+654041411+655047598+654999430+651664046+648455026
3807+648495572+648686262+646659027+647828846+651742014+651868225+649244611
3794+647254797+646148160+645284723+644555577+644161014+644662049+645707105
3780+647073711+649003467+649393153+647419421+645816321+646174835+646909621
3767+646633800+646004647+645128483+643854631+643197736+643111080+642142315
3753+640549733+641123553+643117101+641095277+637691643+637982860+637849484
3740+635525621+634477860+635120197+635555726+634353363+631585817+629717680
3726+629720881+628298753+625130622+623706512+622791288+619664961+615451660
3713+612842564+612503256+612003402+609329409+604490157+599122470+594427873
3699+589497315+582795718+573648201+563825498+556266943+551663728+547663980
3686+542261311+537229235+534835712+534117503+533357147+533186502+532630364
3672+530331233+527866792+525739335+524220795+523101773+520199517+515219725
3659+510685789+507997887+505974234+502988028+499306248+496068952+493407344
3645+489901163+484759376+479508908+476210678+474536356+472267596+468088287
3632+463382486+459506016+456215485+453572206+450794523+447350381+444336852
3618+441814450+438219403+433453926+429410584+426951021+423967939+419735623
3605+416375622+414158422+411725801+408446396+404677808+401002926+397705459
3591+394829459+391604853+387984693+385073939+382088571+378370322+374880566
3578+371489888+367179756+362717004+359497924+357014963+354591031+352498442
3564+350072985+346807947+343667140+340738132+337336365+333999381+330973391
3551+328193764+325917879+323226662+319491951+315664372+312304752+309114081
3537+306366884+304649614+302878194+299264017+294344739+290474613+288546686
3524+287224475+285309276+282755360+279655517+276372893+273619122+271506832
3510+269765440+267922950+265732997+263628518+261364218+258829450+257147944
3497+256106794+254370871+251919311+249383343+246950474+244685812+242977669
3483+241815604+240173120+237697610+235325827+233400930+231194914+228221378
3470+225080113+222979750+222362545+222145981+220719318+218035455+215433542
3456+213169566+211100527+209657916+208317338+206524330+204685612+203344748
3443+202642848+201838707+200298846+198656114+197517543+196287800+194902159
3429+194306218+193741886+191931825+189975336+188488864+186554687+185244556
3416+185539145+185968882+185813194+185452222+184744264+183413041+181523183
3402+179914329+179542172+179871896+179501988+178660483+178538215+179046624
3389+179458279+179478285+179376024+179311794+179045748+178840578+178824306
3375+178746624+178890098+179333859+179570600+179568790+179903278+180647457
3362+181343583+182101024+183202098+184247020+184773988+185018065+185494845
3348+186059215+186843160+188839089+191241281+192278049+192851203+194289488
3335+195950778+197338743+198391764+199038045+199876902+201403140+203776542
3321+206716448+209169456+211058304+212663252+213318584+213745063+215410678
3308+217951943+220468209+222966622+225544985+227870562+229675898+230931573
3294+232191078+234379317+237203491+239737744+242298386+245178483+247560649
3281+249604251+252211594+254804514+256784476+259010955+262216927+265683915
3267+268472191+271256924+274739059+278271706+281486537+284413029+287089595
3254+289932327+293001531+295808423+298138726+300629803+304300684+308855922
3240+312648671+315442245+318849137+323276697+327638426+331521984+335343618
3227+339481428+343672360+347540866+351362652+355329932+359327965+363088970
3213+366399584+369792853+373672601+377855416+382373347+386958805+390964878
3200+394696769+399409162+404996652+409764568+413721025+418554485+424166860
3186+429045896+433194034+437660139+442376648+446812877+451351653+456259384
3173+461043610+465637870+470240628+474522675+478384093+482212510+486219002
3159+490338140+494508837+498586971+502329380+506016914+509968608+513899305
3146+518011927+522288410+525717766+528575665+531807169+535392308+539316375
3132+542929980+545680035+548547842+552066218+555535396+558687827+562021992
3119+564964412+566815134+569157631+572843412+576295862+578774974+580746877
3105+582651787+585200673+588426956+591433092+593992992+596443256+598697382
3092+600836919+603273160+605600948+607128481+608245064+609326170+609834065
3078+610037520+611317203+613648877+615577528+616685728+617789508+619368295
3065+620652742+621101189+621379677+621626994+621966111+622871656+623217900
3051+622155581+621000662+620525273+619967305+618958794+617756697+616389825
3038+615086096+613959681+612414047+610716326+609365649+607355525+604085914
3024+600217827+596114733+591249415+585455840+579749912+574270494+567752994
3011+559903947+551316341+541998408+531552612+519065900+503979924+487084649
2997+468325620+446762575+422584871+395885413+365852477+332421279+296827642
2984+260728778+226472556+196845291+173454923+156860849+147713951+147958467
2970+160858824+188553303+230259950+282039818+337694079+390899219+437032930
2957+473446866+498885924+513842792+520280991+519550968+512305808+500243346
2943+485827830+471595230+459898217+452011901+447927098+446838752+448008114
2930+451440977+456963379+463195570+468920666+474011236+478223051+481716543
2916+485507309+489475580+492044282+492686963+492547604+491520649+488556469
2903+484579205+481001496+477854172+474867928+471715154+468117401+465088400
2889+464084462+465047854+467105308+470459822+476219862+485026890+496642696
2876+509610323+522219664+534332619+546621706+559307033+571910011+584304769
2862+596994822+609496205+621352202+632719739+643349175+653189712+662159573
2849+670225375+677794028+684712189+690359241+695130662+700290016+705566436
2835+709520226+712358386+715306980+718900656+722962442+726957464+730484147
2822+732891922+733752767+734128963+735579633+738491492+741849893+744969970
2808+748386218+752030729+755173290+757951773+760840615+763738526+766111090
2795+767378540+767944206+768986594+770581082+772165586+773447670+774322309
2781+775790281+778567011+781365539+783046530+784032215+784569300+784565489
2768+785160421+786975169+788832293+790283192+791688744+792746146+793183314
2754+793114035+792862145+792927766+793322558+793448770+793318138+793442825
2741+793221726+792001071+790918823+790809683+790243942+788192775+785948024
2727+784786207+784562669+784879951+785767242+787348240+789448108+791874098
2714+794590085+796845583+797981715+798953834+800418680+801861272+803429847
2700+805755310+809062571+812756316+815863513+818426995+820884690+822999572
2687+824407258+825179770+825658550+825706261+824838785+823404196+821871671
2673+819759456+817053453+814057682+810318589+806448102+804017386+803333816
2660+804003820+805949276+808855724+812236227+816298471+821342588+826175210
2646+829716221+833025692+836463051+838890566+840554409+842115134+843397217
2633+844373909+845218901+846027387+846353433+846288270+846612030+846622776
2619+845797371+845105570+844740349+844344185+844033153+844025684+844390066
2606+844817707+845002451+844856272+844580069+844672289+845167151+845734494
2592+846007799+845858419+845886085+846311744+846796469+847286682+847807457
2579+848608474+849726620+851283915+853746793+856247168+857865435+859271368
2565+861037567+863137663+865221068+866657639+867531212+868269275+868773893
2552+868872896+868357151+867549885+867321622+867234889+866346455+865027559
2538+863888759+863020369+862599969+862651795+862757047+862672144+862463239
2525+862582973+863642128+865332952+866733625+867474813+868043604+868979215
2511+870111994+871126641+872198677+873855508+876124115+878256831+879720305
2498+880810633+881876191+882627744+883091206+883670895+884438148+885340454
2484+886263871+887261903+887993792+888001109+887883357+888085707+888555037
2471+889503225+890867544+892627265+894960273+897336343+899301158+901198751
2457+902934770+904143916+905188591+906384857+907191666+907430675+907974619
2444+908513076+907936207+906979484+906565257+905921472+904521636+903103052
2430+901733626+899659900+897463393+896433885+896282065+895741398+894751826
2417+894041810+893302756+892191546+891689977+892388408+893609444+894861575
2403+896314913+898093307+899682460+900621196+901093423+901526017+902666342
2390+904285904+904922754+904351754+903888597+904616600+905800671+905372269
2376+902959311+900582022+900138224+901569993+902808330+903007936+905931227
2363+913417721+920171029+923404514+925463531+928466238+931832184+930320922
2349+922874517+914871212+912903653+917868660+921428420+921730763+921712472
2336+920430159+917935652+917495055+920882570+924984216+926582667+926684262
2322+926410498+925732950+925692937+925884083+924520526+922420506+922083942
2309+923125645+923560069+923250942+922699757+922309843+922640233+923314429
2295+923655261+923872777+924184191+924463518+924674404+924464356+923862565
2282+923676753+923853038+923776061+923978106+924823022+925170866+924528071
2268+923847779+923477223+922851272+921816429+921203586+921698753+922589169
2255+923072447+923482025+924018195+924213381+923959510+923669437+923669513
2241+923639865+923194238+922860646+922840221+922262361+920908178+919888502
2228+919764043+919502627+918715176+918306742+918080460+917388355+916981597
2214+917020542+916374851+915116775+914058839+913284803+912829648+912462827
2201+911756850+910992188+910238425+909284064+909150384+910504490+912121690
2187+913046327+913417645+913558490+913905038+914905584+916583222+918375335
2174+919751010+920615514+921040563+921116016+921078594+921118150+921375679
2160+922105282+922814994+923025727+923174270+923281428+923287220+923324184
2147+923267175+923444680+923994950+924457497+924630733+924507798+924091666
2133+923722558+923814626+924121466+924200043+924313908+924750618+925265220
2120+925785309+926438926+927172645+927753630+927855453+927722306+928110620
2106+929096914+929973612+930265514+930289827+930411999+930359258+930201570
2093+930524416+931208976+931744308+931863965+931754216+932010221+932419646
2079+932498605+932576344+933048037+934064741+935322741+936481280+937558499
2066+938491519+939531088+940532625+940829024+940777884+941086935+941744820
2052+942742623+944227133+945856603+947300796+948780733+950211130+951062372
2039+951427745+951924894+952784824+953780798+954533571+955249989+956424915
2025+957557694+958208262+958829717+959807399+960898565+961474977+961760020
2012+962371567+962894400+962960935+963302377+964398116+965314826+965154699
1998+964605191+964671726+965297220+966206538+967152820+967563846+967324989
1985+966764201+966253105+966020193+966005407+966127122+966379164+967052750
1971+968225694+969432630+970334707+970601611+970206209+969913850+970429290
1958+971355984+971734543+971756112+972196861+972598817+972302266+971808319
1944+971918754+972603848+972685931+971657185+970406197+969347575+968193379
1931+966726551+965295696+964548335+964638878+965126423+965255988+965522587
1917+966040314+965020028+963076553+962292075+962221424+961457676+960248225
1904+959720133+960104713+960980725+962035841+963228296+964345451+965271536
1890+966973410+969233024+970529360+970950675+971263765+971881713+972695229
1877+973400063+973818710+973429710+973068605+974515693+976528524+976789254
1863+976125958+975590626+974887164+974349926+974535204+974992645+974968637
1850+974472556+973717649+974005055+976392480+977067362+974562184+972717636
1836+972497223+971641789+970292484+970610223+971343256+970887569+971140297
1823+971504374+970566934+969625530+969044545+967955056+966919755+967199311
1809+967929600+967368584+965637595+964106137+963616305+963454959+962441913
1796+960532277+959802064+961402725+961470938+958783988+956563168+954952294
1782+952388965+949570317+946430119+941738266+937106088+935326856+934359311
1769+932019138+930125050+929142491+930046016+932520555+933752946+934732229
1755+935371823+934848761+936209575+939452815+940633381+939443670+937607581
1742+936799096+937709938+937115310+935514726+938133463+940366477+937559109
1728+933997824+931290678+929178921+926522458+923112231+922397947+924560615
1715+923975667+920178727+915862003+911982370+909187881+906250795+901772420
1701+899516312+899241482+895482420+890945664+885907034+879370404+873379014
1688+867225744+862346555+860852899+856859477+849197461+842039529+837512985
1674+834228284+829774373+826326267+824726826+821704151+818541012+817742511
1661+816936464+813972093+809945366+809338468+816968322+821093214+818410685
1647+819625395+824275025+825580735+825706108+827421092+832246473+842563886
1634+852125782+856116917+860614880+868099926+875664997+883402238+890723727
1620+894505348+898851491+908029723+915024937+917338053+920037959+924126496
1607+927640604+930317874+932957570+935140511+936537832+937964266+939912390
1593+941725538+942771127+943439683+944448079+945681690+946439493+946293161
1580+945045831+945485666+949925477+951445122+948656503+948101660+949039329
1566+947689033+944909635+941265430+941449259+948976757+950769479+945969172
1553+941598259+938434816+935633849+932636096+930276870+929191497+930734463
1539+933618504+930500179+924830949+922718201+921109309+916939297+913540122
1526+911539867+909376970+908319186+906857845+902857869+898113657+892735642
1512+886101305+878822115+873689131+873016765+868887453+859084642+849517258
1499+842244622+835754026+826973178+815537848+803530603+791473590+778373426
1485+764144903+749134265+732848479+714802743+694179731+669852685+640831193
1472+609953912+587585927+580321294+589395911+609218784+627590185+641695697
1458+657509790+676117609+691026653+704631206+720008893+734440452+744410707
1445+748256501+746946522+741824971+734617423+727461853+719645959+709904044
1431+699897739+690837717+682054658+673423039+665096735+657156535+650072759
1418+643098047+635701487+629374600+625614662+624636903+626117907+630624483
1404+637804555+644964240+651077193+655671187+656509091+651639734+638921863
1391+616898367+583532600+538135694+489377263+450730160+433947035+445342543
1377+478459241+517252600+545985694+560108164+570278140+590276953+625865370
1364+675196097+728162037+769716274+794717973+806211531+806595577+797333662
1350+780075376+756579756+730611044+708666622+698110809+703301107+720736668
1337+740182544+753978853+760142564+758826032+751088029+738761902+723371334
1323+705970298+688203508+671928544+657891473+646359503+637837556+632552753
1310+630622158+632059301+636550176+644101414+654971764+668637213+684116037
1296+701004529+719080217+738001660+757604539+777429888+796586453+814447825
1283+830911344+845997206+859581180+871612890+882495588+893007881+903609194
1269+913972869+923573406+932156858+939502126+945629636+950652261+954514746
1256+957540774+960342960+963374400+966840644+970339966+973094899+975053693
1242+976797104+978360192+979436953+980060237+980269598+980209008+980193155
1229+980053149+979553790+978838134+977886365+976680724+975345367+973909710
1215+972351653+970377692+967877164+965333041+962667432+959191966+954935375
1202+950035913+944177212+937543256+930134958+921335895+911347577+901321838
1188+892027836+882763025+871695431+856983707+836887491+809666344+773629975
1175+727040462+669072170+601888568+532410217+471582693+429986424+413138059
1161+420109494+445247808+481065631+520338457+556776210+585844611+605537042
1148+615522540+615746878+605585553+583925563+550380577+506975733+459540770
1134+416999325+388153432+378858821+391179956+422900972+466426845+509932635
1121+542330818+558196014+558697811+549469773+537833999+529512573+527126748
1107+531688883+543492635+561243230+581780843+601553185+618544910+633299504
1094+648632835+667891528+693018219+723740137+758140557+793758964+827998266
1080+858856379+885523826+907673495+925199218+938286959+947092882+951503808
1067+950837996+944020896+929046308+902139012+860274963+805590000+747564776
1053+700797301+678571265+686637143+721701393+774481674+834185070+891657052
1040+940712263+978596838+1005857694+1025118978+1038953318+1048967091+1056741296
1026+1063113912+1067560887+1070402019+1072399453+1073467450+1073741823
1015+1073318527+1072411267+1071689666+1071077967+1069904413+1067757902
1003+1064933156+1062025032+1058868067+1055109005+1050859426+1046088157
991+1040429139+1033524926+1025626949+1017248286+1008144592+998046296+987051030
978+974313267+958585525+939467525+916466309+888135780+852092248+804382912
964+739308056+651892385+543523578+427816591+327926670+263677181+242938437
951+264422542+322654556+409349464+513490604+621165705+718053148+795360997
937+853731092+900120999+940013603+973845766+1000127186+1018801770+1031052597
924+1038926795+1045346436+1051997311+1058577689+1064261553+1068503206
912+1071175522+1072133617+1071606516+1070153635+1067490312+1063691924
901+1059747508+1055369660+1049308609+1041141213+1029992222+1013976541+992517225
887+967153582+940973756+919437387+910513941+919653532+943312328+971056689
874+994281366+1009972678+1018457737+1021575528+1021602965+1020146273+1017919889
860+1014927319+1011249198+1007206465+1002925333+998374858+993450855+988431964
847+983623884+978276736+971438830+963674762+956017776+947976820+938525663
833+927414094+914058306+896728150+872280684+834584130+774329778+688648602
820+599541384+550570237+570690309+648400304+744128560+821612998+868647986
806+892264483+902938276+907500716+909117383+908806274+907353622+905190725
793+901934147+897815657+893486129+889179617+885022257+880728245+876089437
779+871561446+867270405+863072042+859073286+854826298+850052285+845510270
766+841542914+837649943+833707356+830113681+826622362+822545180+818194235
752+814380375+811130504+807814403+803766487+799217689+795264280+792172707
739+789348571+786439532+783355352+780131013+776919173+773911665+770869174
725+767599334+764401975+761293559+758111824+754897469+752035149+749588352
712+747126999+744732714+742326540+739551791+736759132+734387483+732173751
698+730028764+728303949+726526775+724267847+721979653+720023984+718425609
685+716938584+715431362+713908059+712339865+710748579+709226190+707102696
671+704064702+704153721+708615101+707484379+703802295+701892278+701014437
658+700184840+699769851+699770918+700016024+700489242+700918330+700908956
644+700501665+700046434+699898120+699975326+700390696+701349477+702229985
631+702623710+703004784+703917226+705076757+705894388+706394509+707082728
617+708565637+710371087+711573908+712477890+713796633+715440279+716759480
604+717769401+718904771+720108963+721326493+722593258+723847523+725281122
590+727193272+729169291+730581778+731938552+733801316+735787318+737644594
577+739519781+741330261+742686044+743858150+745735776+748241791+750312316
563+751401653+752273930+753923216+756254929+758493507+760300938+761945271
550+763409584+764686027+765781995+766358559+766941754+767963869+769129878
536+770662327+772363287+773684545+774705593+775634727+776761866+777963924
523+778780869+779394626+779888040+780102051+780552480+781697377+782916660
509+783032583+781513700+778737427+775084609+770339634+764597771+758401363
496+751436864+743529360+735821310+729674366+726851144+729553184+738003413
482+749172449+759358772+767462377+773938111+778705417+781986536+784661672
469+786841794+787747681+787776643+788050635+787873283+786612540+785127801
455+783503513+781339397+778948542+776465010+772698479+766820268+760686813
442+755646964+750399582+744500640+739293880+734997277+730143010+725078467
428+722069434+722069968+725676219+734070049+747262813+761028789+769102212
415+774648737+781893478+787227821+788435443+789708152+791447067+792052288
401+794703569+799763386
##END=
