##TITLE=павел 3-многокр
##JCAMP-DX=4.24
##DATA TYPE=INFRARED SPECTRUM
##DATE=3/2/2015
##SAMPLING PROCEDURE=Instrument type and / or accessory
##ORIGIN=Default
##XUNITS=1/CM
##YUNITS=TRANSMITTANCE
##RESOLUTION=4
##FIRSTX=3996.3347
##LASTX=399.24773
##DELTAX=-1.928733
##MAXY=1.7498769
##MINY=0.21911499
##XFACTOR=1
##YFACTOR=1.6296998e-009
##NPOINTS=1866
##FIRSTY=1.0685499
##XYDATA=(X++(Y..Y))
3996+655672816+656917430+659063519+660791933+660599188+660282457+661054169
3983+661895444+662361324+662253430+661548649+660781327+660348144+660698011
3969+662525468+664768844+664691600+662766490+662390144+663972262+665800084
3956+666741719+665064435+662166604+662266524+664583414+665226238+664040875
3942+662869117+662477848+662545803+661744393+659831573+658863898+658978155
3929+658628142+658613732+659684984+660822582+661376898+662449321+664391912
3915+664955225+664180807+664105318+664006130+662907666+661639938+660568832
3902+659828574+660669337+662734159+663315905+662073413+660933109+660331101
3888+660193363+661847678+664303549+665426664+666602811+666206129+662507473
3875+660116777+660771086+661868964+662320873+661068359+659451350+659617761
3861+659767642+658193058+655324120+653224699+656714883+663133693+664325933
3848+661859967+658582059+656494634+656683210+658315581+661069018+662395191
3834+660527796+658741156+658289028+658136295+658193497+656969292+655431721
3821+656612183+657368314+656592360+656706983+655832206+653689628+652572584
3807+653409763+652832114+649451798+648683963+650584129+650448220+649645201
3794+649542355+649053653+648136670+646979249+646035786+646472553+647681177
3780+649346026+652030558+653509976+652593432+650821129+649542282+648995647
3767+648693473+648628810+647887821+645976756+644958828+645568370+645607431
3753+643843028+642080674+641609308+639960332+638870281+640774323+640581286
3740+637559688+635514836+635505912+636592013+636602546+634597925+632964530
3726+632993716+631492939+627048539+623238479+621242124+618729782+615060020
3713+612404345+611816638+610906055+607871181+603111989+597780084+592199148
3699+586242486+579591321+570858181+560727109+552509040+547306352+542680728
3686+537779446+534167288+531608900+528635507+525797401+524736060+524024476
3672+521874071+519385759+516888961+514659630+512851265+510168342+506400013
3659+502688410+499225986+495886926+492918726+490563178+488701415+486333211
3645+483176290+479211485+474623789+470844487+468103595+465265599+462546760
3632+460152407+456801094+452615456+449325076+446636375+443904516+440746936
3618+437203427+434141745+431095094+427633035+424587518+421617636+418339033
3605+415588814+413028378+409965305+406604520+403176987+399172646+394248359
3591+390075265+387362901+384795296+382378157+380097110+377097785+373350340
3578+369267840+365626423+362643191+359451671+356102626+353315321+350334138
3564+346506997+342865653+339781660+336615412+333576588+331121192+328265202
3551+324694226+321530538+318543649+315150569+311725524+308275864+305393485
3537+303929739+302757907+300152028+296112686+292081645+289430524+287671955
3524+285468682+283068586+281019162+278562230+275192722+272090277+270564209
3510+269605988+267696807+265253207+262657842+259743315+257231193+255445248
3497+253493842+251011016+248206046+245191726+242784828+241279204+239644749
3483+237391845+235220026+233417092+231039581+228035356+225424978+223085778
3470+220658288+218875196+217811935+216645425+215403518+213961680+211927909
3456+209908604+208425180+207438908+206306961+204482576+202886084+202306386
3443+201761909+200192501+198053507+196050733+194182222+192614623+191585961
3429+190908300+190200245+189104470+187750537+186642564+185526893+183862867
3416+182214385+181310203+180929029+180561679+179950473+179180828+178418242
3402+177703092+177349385+177490871+177893862+178164546+177317803+175448049
3389+174603847+175294511+175698654+175726450+176535613+177058694+176753503
3375+177309300+178462606+178157140+177071349+177358327+178282918+178142327
3362+177803615+178543270+179780477+180665970+181110472+181228496+181625635
3348+183026090+184998654+186875888+188460475+189223756+189600249+190834457
3335+192597964+194200509+195860310+197538362+199269172+201259474+203015044
3321+204507575+206189046+207570355+208990560+211330564+213676366+215367584
3308+216986112+218750332+220584884+222634656+225082261+227679875+230027011
3294+232288327+235019015+237920870+239965978+241521763+243953276+247282680
3281+250173508+251927103+253309966+255152144+257711410+261082984+264909685
3267+268397858+271113733+273465826+276094162+279348516+283018626+286218065
3254+288889247+292030515+295722807+299345571+302653269+305540604+308211128
3240+311349909+315485221+320236331+324701577+328542469+332173683+336165845
3227+340377597+344383621+348429949+352541415+356166484+359541789+363731780
3213+368789416+373660451+378096731+382302558+386186571+390321518+395121454
3200+400198730+405442856+410583406+415124361+419336223+423617502+427796338
3186+431831218+436510716+442218711+447706054+452323412+457201104+462306286
3173+466249220+469401204+473244034+478074838+483378910+488580757+493225143
3159+497162042+501068401+505699401+510443342+514470762+517988303+521971285
3146+526880064+531368828+534394742+537159956+540767762+544805495+548974968
3132+553151243+556740543+559756252+562812888+565811554+568310253+570908799
3119+573843973+576572942+579912112+583943225+586995984+588831121+590402047
3105+592092754+594109700+596727558+599578830+602376266+605364801+607771517
3092+609439547+611802520+614549886+616161117+616796773+617548954+618881638
3078+620616708+622432315+623862578+624781024+625778397+627288392+629096245
3065+630174666+629993624+629744482+630200633+631036422+632015069+632749914
3051+632635145+631312190+629395054+627912783+626871155+625491145+623394870
3038+621351334+620019089+618982143+617775055+615739565+612229814+607891333
3024+603900707+600214779+595413600+588757497+581487464+574615318+567385552
3011+558841939+548516184+536265429+522408637+507165397+490618880+472435127
2997+452016703+429612822+405261157+378053537+347663504+314491798+278701303
2984+241379289+206302901+177739282+156759831+142306590+134451134+135338593
2970+148481122+176360186+218302740+270362851+326217387+379739270+426608451
2957+463870191+490390914+506712099+513976281+513378077+506470893+495575535
2943+482534928+469036890+457377610+448811430+443733203+442405677+444253249
2930+448473999+454605191+461676445+468154213+473204571+477160049+480866129
2916+484832799+488464196+490545732+490822999+489845522+487550358+484014054
2903+480150925+476536133+473254165+470211135+467092214+463780402+460671575
2889+458685424+458438622+459857693+463554923+470666774+481283658+494417785
2876+508422446+522097026+535615838+549488577+563618650+577283355+590327107
2862+603364898+616139026+628417212+640658311+652468861+663259435+673042615
2849+681896595+690093049+697528251+703758632+709217229+714443580+719160091
2835+723165383+726837851+730487278+733740097+736453303+739764713+744147595
2822+747766739+749293777+749931993+751515574+754483920+757672003+760487543
2808+763659972+767346704+771068182+774285524+776617043+778533594+780566377
2795+782122162+783002279+784288587+785967260+787260224+788331550+789376323
2781+790747775+792739229+794704204+796099649+797143909+798066818+798957980
2768+800458758+802587877+804215346+805302106+806624403+807910784+808456907
2754+808494797+808575626+808522594+808392756+808456102+808498674+808561216
2741+808507379+807733765+806464940+805436187+804239851+802238229+800237631
2727+799206244+799065215+799345884+800011677+801485975+803531413+805347531
2714+807109228+809342948+811502790+813123384+814634182+816244024+817865057
2700+819787020+822445731+825658538+828868345+831932588+834679954+836822093
2687+838402602+839658846+840743851+841042660+839877047+837967811+835919959
2673+833157086+829903828+826862627+823446688+819475410+816495214+815810695
2660+817026049+818990878+821285531+824399441+828889339+834522393+840176807
2646+844828435+848270122+850753058+852919555+855401540+857724428+859250369
2633+860226675+861024427+861737547+861876090+861231436+860638352+860360609
2619+860142482+860154698+860181762+859734243+858826330+858080805+858223517
2606+859052942+859831237+860142994+860006061+860076283+860647935+861463901
2592+862125085+861746837+860697968+860433904+861116009+862022312+862650727
2579+863197801+864311699+866159710+868362635+870364330+871969417+873789193
2565+876450829+879469355+881654286+882406906+882353142+882478810+882903946
2552+882962318+882228498+881410996+881250436+881280865+880772487+879558961
2538+878182389+877357206+877080561+877047351+877164315+877034624+876447830
2525+876301973+877221371+878745336+880164261+880908030+881406826+882541205
2511+884167139+885753427+887100374+888411699+890039168+891867137+893691083
2498+895487378+897012953+897876977+898156476+898618844+899452219+900074563
2484+900681837+901629323+902234769+902163304+902313038+903235434+904542223
2471+905878491+907168602+908685985+910521926+912344482+914379972+916842060
2457+919198816+920782836+921558570+922220048+922636333+922552798+922850876
2444+923205717+922917587+922574596+921976977+920691108+919138981+917632936
2430+916215548+914571692+912630930+911142075+910431296+909681163+908474587
2417+907559140+907106061+906650276+906539603+907104013+907963941+908909964
2403+910169060+911923003+913713666+915001071+915869484+916583994+917725322
2390+919329092+920214330+919995398+919551023+919580795+919964236+919790364
2376+918164430+915448591+914172524+916590504+920304302+922088455+923992936
2363+928302158+933592661+938871240+943064376+944865865+945441833+943537644
2349+937829539+931467126+929774115+933656373+935519964+934045886+933691337
2336+934283617+934424353+935477612+938247946+939882072+938914763+938800799
2322+940689699+941474431+940388110+938925150+937509224+936123070+935665236
2309+936271121+936703206+936527359+936237034+936362922+936671460+936584853
2295+936500367+936806418+937180717+937555966+938079632+938386415+938218102
2282+938040206+937988709+937783383+937768826+938245678+938359862+937530730
2268+936941376+937368414+937500666+936475570+935711831+936079108+936273535
2255+935992793+936444628+937399136+937948185+938327165+938510035+937849801
2241+936611259+935647095+935381934+935657482+935753233+935186263+934327871
2228+933383238+932158521+931266774+931260995+931274235+930471728+929307724
2214+928294990+927367107+926768171+926424010+925743660+925089351+924616888
2201+923490629+921871351+920618911+920324271+921487544+923365399+924473153
2187+924574975+924389837+924610232+925522022+927261481+929659200+931554538
2174+932332174+932726222+932942594+932731197+932560030+932718176+933124074
2160+933983271+934866753+935111725+934952628+934693026+934581110+934688564
2147+934681542+934881748+935603792+936340977+936676800+936472132+936036316
2133+935968069+936338490+936812489+936953958+936764724+936756385+937209829
2120+938109330+939065155+939637977+939837159+939730656+939665115+940285557
2106+941493450+942503843+942903743+942936148+942800166+942423673+942346648
2093+942998470+943558125+943709907+943965633+944212288+944275341+944236280
2079+944216384+944340297+944733029+945711895+947136818+948576298+949903495
2066+950960191+951767380+952423883+952850263+953232168+953847343+954806972
2052+956166354+957686223+958948758+959974805+961099017+962369671+963467476
2039+964265155+965184991+966476785+967616138+968090503+968412647+969267162
2025+970388155+971373971+972143853+972894791+973769714+974270412+974505290
2012+975093327+975789038+976305170+976769002+977293473+977728191+977665357
1998+977475026+977854445+978511899+979232773+979904857+979692435+978746777
1985+978183391+978203068+978215869+977927812+977806387+978398447+979598147
1971+980833690+981686230+982304038+982747169+982760408+982731076+983302655
1958+984001511+984006046+983882718+984333968+984500234+983845705+983322843
1944+983586030+984293517+984535857+983744468+982254956+980685126+979355515
1931+977927373+976213808+974883612+974685454+975239331+975240428+975123464
1917+975430905+974580267+972904666+972160897+972068145+971474037+970326125
1904+969448203+969442059+970369356+971846726+973524595+974869055+975602730
1890+977031310+979277612+980860828+981862224+982655441+983260229+983781920
1877+984109550+984223515+983910002+983918195+985719903+987790138+987675076
1863+986658100+986365508+986233402+985812216+985552029+985523574+985170050
1850+984410042+983485817+983627285+986018420+987121785+984972331+982989947
1836+982587925+981846424+980509937+980535758+981215523+981167684+981690546
1823+981814385+980420696+979197223+978667704+977851885+976973011+977029116
1809+977227274+976238971+974539670+973214740+972618803+972165505+970941300
1796+968682563+967366045+968702020+969024749+966408977+963900220+962108240
1782+959696257+957027818+953530832+948066456+942616710+940045997+938727358
1769+936730417+935496996+935075517+936142673+938500453+939588310+940494979
1755+941294268+940886760+942029625+945007919+946136007+945184937+943886779
1742+943551103+944487251+943289233+940373700+941729133+943895703+941575888
1728+938496576+936257589+934367225+931423237+926992736+924954393+926876650
1715+927217300+924123651+919878068+915559629+912148445+908900528+904074222
1701+901105145+900408044+896649846+892234925+887368901+880812938+874660532
1688+868062509+862247974+860276050+856874156+849690290+842463268+837702722
1674+834541046+830390701+826890131+825226599+822215681+818620164+817531575
1661+817149230+814449557+810101127+809024608+816563242+820908965+818311113
1647+819777950+824922084+826618313+827133787+828811729+832733925+842517543
1634+852955252+857783239+862354770+869752374+877541320+885877120+894064430
1620+898367727+902825805+912234394+919475242+921854235+924638906+928921210
1607+932756506+935679061+938243264+940330982+941899787+943480808+945305704
1593+946750889+947449453+947980873+948930846+950080660+950595987+949960624
1580+948171497+948254812+952788745+954509040+951344584+950036917+950583991
1566+949330234+946652505+942471219+941131513+947624130+950150077+946239804
1553+942366325+939315834+936342148+933043685+930184110+928371795+929156015
1539+932139722+929650934+923875241+921452140+920286673+916504336+912492534
1526+909341610+906305968+904836425+903380926+899288222+894144381+888467145
1512+881710976+874075421+868081308+866846058+863198240+853780727+843753306
1499+835328850+827910545+818879327+806963298+793874925+780880255+767413269
1485+753093303+737990069+721324394+702457329+680609117+654786336+624569188
1472+593844356+572764564+566468715+575550881+595049835+613572812+627919659
1458+643829423+663347798+679732073+694122772+709762547+724619931+735127276
1445+739169215+737736685+732307859+724603546+717101852+709432430+699835924
1431+689579623+679933230+670555656+661626186+653116586+644740847+637020368
1418+629615815+621941272+615163305+610811218+609293251+610338061+614050651
1404+619748442+625241198+629890924+633012296+632049595+625537521+612145036
1391+589981812+556360393+511037158+463059345+425178517+408833449+420837183
1377+454852944+494516937+523949646+538770931+549829373+570882283+607771407
1364+658908153+713928911+757244233+783480740+795468747+795879546+786563636
1350+768960642+744890925+718354000+695777819+684750757+690136279+708502499
1337+728945245+743100847+749189687+748087127+740684695+728114504+712121716
1323+694449232+676680045+660211943+645904998+634179080+625457497+620223318
1310+618530088+620054639+624781024+632969724+644480440+658752932+675174294
1296+693031770+711673319+730921339+750810501+770977332+790712517+809290209
1283+826168964+841259617+854590109+866065934+876132636+885618030+894865986
1269+903761003+912211280+920006077+926707678+932334076+937089208+940562276
1256+942650285+944316670+946732602+950289790+954270797+957662743+960169452
1242+961989008+963434559+964871991+966376279+967699527+968845025+969921251
1229+970600211+970841453+970945031+970720247+970050065+969159122+968162846
1215+967015593+965333408+962921426+960219046+957259405+953507205+948931066
1202+943611962+937245672+929910097+921640277+911889867+900762739+889430504
1188+878662752+867719957+854892650+838359079+816321268+787121024+749222311
1175+700990492+641679823+573843607+504704552+444772161+404111380+387915132
1161+394878200+419500330+454721643+493246063+528757518+557132214+576498441
1148+586450153+587070741+577556563+556457643+523504650+480866898+434312582
1134+392800358+364940258+356179907+368678523+400622659+444598325+488617331
1121+521158025+536733320+537026570+527970445+516543666+508264885+506141910
1107+511288275+523441925+540939440+561118451+581021694+598305616+612830542
1094+627261034+645332614+669415351+699385844+733404933+768941258+803145337
1080+834006700+860809153+882978630+900295762+913374772+922491866+927190820
1067+926950602+920742824+905762405+878049772+835324169+779954055+721393884
1053+674589256+653017032+662469583+699679095+755195431+817985751+878636638
1040+930798114+971546088+1001023636+1021829196+1037012162+1048097449+1056263181
1026+1062792591+1067739956+1071093280+1073099876+1073741823+1073585945
1015+1073016707+1072151512+1071391724+1070579342+1069181484+1066869275
1003+1063862161+1060796089+1057569384+1053507183+1048526316+1042955364
991+1036779259+1029627651+1021173278+1011391634+1000427334+988442618+975269760
978+959775769+940735417+917929990+891187519+859380792+820399416+770687666
964+704759955+617459129+510101741+396619378+300140416+239430571+221000859
951+242847808+299757449+384635321+487634697+595292723+693270452+772597707
937+833689018+883199976+926238068+963050093+992112088+1013171179+1027328756
924+1036554841+1043525260+1050368183+1057485191+1064008676+1068913689
912+1071648254+1072242069+1071397503+1069663163+1066647491+1062359994
901+1057637778+1052418521+1045632947+1036473061+1024006666+1006736130+983962230
887+957044277+929419567+906951865+897945444+907940680+933098034+962528768
874+986929771+1002957743+1011541003+1015018166+1015330362+1013630695+1010865261
860+1007440472+1003303367+998715524+993881538+988631413+983079992+977811653
847+972892816+967177177+959624719+950912938+941990856+932437946+921753583
833+909716859+895188276+876498595+851000005+812167924+750003678+662500085
820+573167061+525393587+546876242+625723609+722890054+802211237+850670181
806+874804487+885539176+890123947+891752587+891417057+889841303+887498446
793+884123324+879878472+875514023+871464184+867429559+862854078+857984469
779+853206661+848358485+843659603+839507796+835473537+830919781+826097718
766+821681846+817557542+813310350+809343314+805787882+801863126+797434600
752+793352356+789894138+786412878+782440063+778132231+774048451+770382493
739+766774248+763187948+759842524+756586706+753221971+749988098+746950773
725+743871461+740680819+737369116+734185130+731254747+728445645+725799296
712+723144389+720348014+717659898+715176816+712685834+710167348+707713745
698+705362695+703260128+701268235+699188198+697025139+694926596+693166581
685+691610797+690110531+688756196+687315838+685522688+683685503+681391216
671+678147175+677982811+682879705+682149614+678077099+675539302+674519473
658+674147369+674191916+674016434+673485306+673286124+673794357+674366155
644+674461978+674307856+674290885+674179993+674011460+674490140+675464179
631+676251105+676802129+677589348+678778442+679945226+680725788+681390045
617+682760620+684721425+686295058+687468937+688725400+690038188+691381185
604+692936312+694365185+695393426+696543825+698086004+699678875+701336263
590+703395233+705323853+706492904+707661809+709498995+711418033+712897524
577+714479862+716764640+719170404+721164931+723272837+725739022+727724478
563+728744820+729610600+730873134+732459422+734413278+736422142+738113909
550+739494139+740974654+742886816+744612890+745532579+746055295+747011705
536+748491636+749943550+751380616+752781693+753777969+754609369+755314516
523+755698543+756276266+757367049+758445031+759026996+759608669+760267587
509+759725487+757773605+755289280+751921546+746887354+740373012+733044898
496+725048066+716318876+707922070+701941928+700550434+704750299+713292231
482+724169193+735289006+744459279+751244927+756552619+760566616+763145814
469+765039543+766537102+767205748+767311227+766696126+765124541+763560417
455+762073026+759885388+757150896+753949501+749663832+744108022+738070313
442+731945996+725329247+719193739+714766602+710286799+704243603+698950175
428+696574254+697029454+701606252+711368804+724348552+737061894+746131881
415+753327158+760332761+764649152+766369154+769032912+771989189+772538091
401+774155979+781668791
##END=
