##TITLE=1
##JCAMP-DX=4.24
##DATA TYPE=INFRARED SPECTRUM
##DATE=16/11/2015
##SAMPLING PROCEDURE=Instrument type and / or accessory
##ORIGIN=Default
##XUNITS=1/CM
##YUNITS=TRANSMITTANCE
##RESOLUTION=4
##FIRSTX=3996.3359
##LASTX=399.24785
##DELTAX=-1.9287336
##MAXY=0.61991847
##MINY=0.0059663872
##XFACTOR=1
##YFACTOR=5.7734406e-010
##NPOINTS=1866
##FIRSTY=0.022981472
##XYDATA=(X++(Y..Y))
3996+39805506+39785929+39770685+39740484+39710671+39772208+39923331+40055981
3981+40133881+40170905+40178742+40159797+40120357+40146254+40237382+40260698
3965+40218744+40222415+40293299+40339118+40270502+40157904+40161001+40303029
3950+40453659+40531114+40559944+40555727+40550871+40587541+40611218+40556643
3935+40501165+40551339+40639525+40665951+40689909+40781444+40879086+40920897
3919+40972685+41064897+41105412+41045804+40985780+41008706+41041752+41041162
3904+41068969+41097182+41088278+41088390+41069836+41039332+41079915+41172840
3888+41199644+41200663+41261707+41252541+41195298+41234316+41328370+41445141
3873+41548925+41578465+41572667+41484026+41343598+41325415+41383058+41380487
3857+41330835+41350106+41510730+41627565+41512982+41337936+41264627+41294618
3842+41381184+41440182+41460914+41462198+41381974+41287452+41314643+41433020
3827+41561417+41619193+41558175+41469812+41363407+41274980+41360830+41471912
3811+41436533+41392047+41530584+41764576+41812560+41741357+41721696+41696057
3796+41680907+41689360+41683788+41689715+41701597+41691315+41657920+41605913
3780+41566121+41546564+41492673+41453409+41530349+41709640+41887586+41947191
3765+41917529+41876981+41845816+41876426+41932456+41914289+41872774+41922055
3749+41955846+41824132+41718764+41873155+42014664+41942961+41925962+42100846
3734+42267584+42236067+42057489+41862705+41741638+41683940+41642596+41628110
3719+41642450+41669828+41656865+41602536+41581433+41565279+41500080+41409713
3703+41323079+41243308+41123124+40925153+40722788+40587725+40482956+40363024
3688+40236069+40078203+39926125+39902431+39976225+40017150+40063936+40145502
3672+40073244+39916330+39869188+39832448+39729973+39595426+39460928+39351872
3657+39283347+39229975+39094835+38910291+38821754+38787133+38656745+38407099
3641+38131566+37895174+37670931+37420286+37178431+36993165+36884389+36835080
3626+36692541+36445167+36231603+36095498+35994746+35829086+35569697+35255049
3611+34852877+34424688+34085737+33804584+33581623+33446256+33284584+33029692
3595+32798578+32640815+32420738+32055532+31655798+31362076+31172203+30963291
3580+30652692+30330663+30122532+29987173+29806349+29544395+29229705+28897787
3564+28555362+28204496+27891023+27660092+27492328+27288537+26996068+26689131
3549+26403771+26095393+25774352+25490718+25243471+24989641+24725773+24509362
3533+24320781+24044525+23676694+23334094+23059432+22812140+22565329+22313199
3518+22062361+21808253+21557579+21345252+21156277+20948647+20711608+20459587
3503+20213681+19957668+19665410+19362111+19128382+18996611+18867586+18655374
3487+18404090+18159486+17894594+17655222+17521333+17430199+17278304+17014863
3472+16657000+16333429+16123178+15957958+15773910+15574143+15367189+15178523
3456+15035397+14902102+14755007+14626491+14513492+14389671+14244839+14064562
3441+13864517+13688637+13543321+13386394+13204853+13030049+12882980+12789025
3425+12731966+12638944+12492943+12307628+12077572+11859777+11726569+11671948
3410+11691770+11738564+11658957+11425859+11187100+11049542+11026065+11092234
3395+11171640+11178419+11095762+10940748+10776792+10702987+10709860+10723100
3379+10710716+10671564+10629284+10559046+10439601+10357427+10339709+10334243
3364+10358217+10422573+10498093+10556942+10547320+10458051+10358256+10334197
3348+10414453+10525362+10592407+10612446+10583969+10546189+10585742+10718073
3333+10888617+11045515+11171747+11264177+11331780+11417011+11524319+11587184
3317+11579050+11586353+11683503+11799834+11835754+11832814+11916736+12132379
3302+12396360+12585840+12658178+12678696+12748331+12925203+13188449+13442325
3287+13592504+13671353+13781667+13944653+14137206+14341042+14524134+14674651
3271+14822980+14999506+15194930+15406342+15648647+15894260+16100454+16281536
3256+16484442+16697752+16879746+17056903+17289253+17584440+17886809+18159033
3240+18443258+18749143+19015581+19241477+19478210+19767653+20120380+20475964
3225+20793576+21095102+21370872+21617085+21891401+22237560+22613330+22926921
3209+23178200+23470548+23842511+24237307+24605681+24943683+25303876+25709223
3194+26057845+26294100+26531387+26867891+27269844+27659305+27995943+28302438
3179+28625361+28951936+29253295+29572505+29922874+30253549+30577989+30924115
3163+31265234+31597617+31944230+32308981+32638989+32880259+33116352+33456826
3148+33852987+34211980+34513987+34773483+35028010+35298403+35561660+35818817
3132+36111646+36446845+36762989+37003482+37176731+37350315+37602055+37910476
3117+38182866+38422304+38679299+38929903+39160969+39396707+39607886+39770375
3101+39949186+40179135+40388515+40548445+40719568+40918823+41093643+41225399
3086+41363527+41530881+41697506+41846835+41996197+42179005+42386222+42552157
3071+42624444+42626067+42652409+42764156+42926574+43071616+43163583+43218235
3055+43256869+43271813+43266880+43265174+43270068+43278633+43287296+43263480
3040+43215425+43208473+43217574+43148594+43001245+42837730+42682236+42536236
3024+42396166+42233493+42026717+41794319+41554597+41303977+41023008+40662509
3009+40197954+39679295+39152752+38599850+37964183+37207254+36360849+35434821
2993+34348511+33032812+31480808+29712027+27730953+25519241+23120534+20703074
2978+18517451+16764558+15455234+14441854+13559412+12728244+12040812+11735818
2963+12022694+12938710+14306028+15798623+17130216+18126598+18645175+18632581
2947+18166942+17343128+16295543+15314832+14743626+14712667+15098498+15734601
2932+16543672+17469438+18434963+19440082+20507526+21581617+22623830+23655774
2916+24671377+25581451+26280456+26715415+26936476+27110639+27321899+27483643
2901+27526220+27469335+27295341+26932111+26358737+25552383+24463812+23116787
2885+21604449+20091410+18843685+18177255+18338792+19319600+20802960+22425807
2870+24022991+25576876+27086023+28531255+29913166+31220415+32404190+33507903
2855+34663191+35916346+37206403+38473534+39725060+40950640+42039670+42923816
2839+43677905+44394086+45075147+45708853+46342439+46986756+47616139+48238244
2824+48839807+49425058+50018568+50580542+51087883+51581561+52069806+52520658
2808+52922992+53308062+53740809+54225647+54700858+55163848+55606596+55960579
2793+56234144+56503192+56774092+57000018+57190018+57389986+57587805+57745394
2777+57877514+58005660+58117346+58227302+58363385+58493124+58581710+58657895
2762+58753565+58871961+58998836+59106896+59197875+59288739+59355096+59361071
2747+59330235+59314813+59324447+59353986+59416988+59548431+59767260+60012311
2731+60216022+60397097+60598834+60804603+60981819+61155862+61366999+61634550
2716+61952521+62271679+62574442+62885747+63170243+63390562+63589775+63785569
2700+63950991+64102901+64238545+64313703+64359173+64437067+64534351+64620008
2685+64695798+64731029+64665549+64560451+64547095+64618143+64724344+64887501
2669+65121719+65415648+65702789+65913487+66100196+66337834+66585266+66767619
2654+66905876+67072162+67255599+67407419+67567608+67775797+67981508+68144219
2639+68286625+68433167+68570643+68690827+68811339+68956023+69128129+69269806
2623+69356669+69444352+69552695+69661051+69731699+69728757+69696972+69711342
2608+69771453+69828286+69868330+69914252+69957090+69960658+69944450+69977738
2592+70060188+70115995+70132249+70166608+70229681+70288063+70340263+70388063
2577+70414079+70455252+70553852+70678204+70820442+70989852+71124689+71193595
2561+71252319+71347305+71484543+71635195+71736369+71774136+71781433+71776994
2546+71830737+71991648+72172749+72299417+72398360+72501534+72603645+72709484
2530+72846167+72989037+73103794+73232160+73391322+73540065+73689239+73876980
2515+74076961+74234149+74343867+74455888+74616632+74813638+75012110+75206497
2500+75379694+75515092+75645838+75786483+75900917+75988535+76096736+76238206
2484+76380128+76492775+76575612+76661269+76775922+76914450+77062257+77199036
2469+77303605+77389061+77512568+77690830+77867827+78014530+78156723+78326571
2453+78516738+78664280+78742723+78817797+78956828+79151790+79356584+79532866
2438+79656901+79764025+79904837+80038513+80131047+80233306+80365117+80508800
2422+80674603+80849600+80972965+81041167+81119274+81210667+81279308+81329741
2407+81390194+81486161+81601138+81713862+81831019+81924212+81988014+82065708
2392+82191351+82343500+82486648+82610031+82714994+82804799+82886610+82969472
2376+83051561+83118905+83152903+83178519+83285011+83465944+83512221+83313930
2361+83132958+83245960+83621364+84087690+84414378+84408887+84209739+84163423
2345+84354893+84602100+84859953+85136022+85257625+85179918+85095674+85220142
2330+85559219+85877351+85997864+86026694+86147471+86342864+86500543+86594375
2314+86661758+86742149+86864726+87006429+87124677+87226819+87350648+87522052
2299+87733221+87939190+88099237+88209471+88301057+88407084+88518809+88605684
2284+88678307+88783689+88929611+89063054+89148446+89213242+89291355+89382438
2268+89480974+89586039+89679342+89738782+89768095+89793041+89852461+89979407
2253+90151836+90298075+90387557+90485351+90585177+90664142+90749044+90879209
2237+91042011+91189592+91289960+91376939+91524965+91722359+91882915+91978283
2222+92036800+92103848+92214185+92340485+92468302+92614799+92741370+92822968
2206+92880111+92926317+92993649+93107386+93257806+93422886+93583171+93746606
2191+93928023+94126469+94326437+94503466+94664275+94828477+94990305+95140860
2176+95280543+95418561+95556186+95691584+95830828+95981796+96164104+96362343
2160+96526681+96662305+96798755+96930650+97066126+97230922+97418708+97601784
2145+97754430+97866012+97966496+98095390+98243758+98393630+98557032+98730326
2129+98890637+99012466+99091889+99168409+99284644+99462770+99668655+99846247
2114+100000073+100148977+100323535+100534660+100700772+100814471+100976421
2100+101179538+101360949+101527377+101701116+101884631+102070133+102239555
2087+102386142+102507151+102604674+102680406+102740182+102813772+102896628
2073+102930601+102915508+102931639+103001145+103082711+103203791+103402572
2060+103649166+103897566+104120912+104337495+104586418+104867255+105145221
2046+105386878+105569496+105707566+105861760+106049165+106226305+106366407
2033+106482726+106627009+106839437+107108698+107400343+107697795+107990692
2019+108252739+108492551+108736700+108968020+109193405+109436792+109674152
2006+109882954+110081431+110284116+110484155+110683820+110875807+111043054
1992+111205502+111389552+111581590+111783165+111960465+112103658+112288199
1979+112519791+112723869+112877128+113044066+113267489+113490305+113676214
1965+113861322+114020117+114108838+114160587+114238571+114363427+114510891
1952+114644264+114751929+114853181+114940870+114974488+114992748+115046833
1938+115139129+115308467+115532496+115771315+116062798+116413683+116745675
1925+117034500+117376184+117761680+118091143+118423573+118706178+118909057
1911+119173879+119477699+119712117+119884449+120063957+120267519+120489252
1898+120726147+120957287+121179949+121368916+121535028+121736409+121910716
1884+122059187+122270337+122518589+122730566+122903156+123112964+123383826
1871+123653126+123915521+124129575+124244210+124380654+124598476+124846560
1857+125097148+125324829+125531644+125737671+125957029+126199073+126407449
1844+126627543+126821684+126868723+126945726+127188455+127497554+127784688
1830+128103969+128452002+128640285+128775451+128983982+129159605+129362496
1817+129663606+129986320+130257207+130525810+130813603+131051595+131252512
1803+131472167+131745145+132060347+132339197+132566337+132815260+133121222
1790+133318100+133326178+133407596+133702176+134029032+134291234+134542893
1776+134787545+135058909+135425848+135745671+135818429+135881443+136047014
1763+136239529+136523360+136757959+136918573+137163960+137407063+137672285
1749+138012666+138248632+138379849+138526514+138735393+139065062+139427665
1736+139616683+139897391+140270976+140321150+140241281+140286926+140496476
1722+140883882+141292749+141678077+142083175+142257275+142174103+142108198
1709+142197745+142474401+142910381+143273667+143526759+143891826+143914177
1695+143649678+143537921+143433508+143501581+143749975+143936800+144172082
1682+144254841+143968029+143704834+143741058+144026811+144199957+144167591
1668+144203170+144190562+144064674+144094265+144305171+144572625+144872148
1655+145132557+145577673+146024842+145828829+145490952+145498644+145512374
1641+145528454+145826261+146301420+146833632+147275910+147441880+147645752
1628+148192237+148883218+149535174+150189338+150699250+151123074+151883174
1614+152780905+153366956+153847819+154440903+155062314+155636428+156165879
1601+156669067+157163610+157674916+158196197+158693734+159148735+159556041
1587+159919766+160271206+160655243+161101960+161560330+161946174+162383122
1574+162765134+162808314+162832201+163060101+163252565+163539106+163970531
1560+164404691+164968443+165134387+164632037+164189553+164061678+164151471
1547+164403994+164806112+165263514+165475606+165461282+165224399+164708267
1533+164345922+164277707+164174842+164119699+164222332+164229494+164083823
1520+163898005+163447533+162851958+162403925+162139980+161986218+161630313
1506+161052044+160308294+159271719+158156850+157084980+155877208+154483632
1493+152735750+150422310+147508689+143990355+140053553+136062293+132422653
1479+129444197+127100211+124937153+122218679+118822129+115544524+113149460
1466+111817492+110982427+109849414+108643423+109023899+112470816+118045098
1452+123946687+129431795+134023870+137194584+138801466+139379581+139722465
1439+140322634+141443117+142850837+143905660+144646377+145416039+146180307
1425+146933413+147815890+148748465+149721741+150798489+151732238+152601887
1412+153660672+154845434+156029267+157173134+158267407+159168854+159795104
1398+160197609+160099751+159279269+157853494+155825615+153342346+151040379
1385+149745396+150209276+152924059+157483962+162528509+166679739+169356671
1371+170728607+171455464+172244909+173245841+174267898+175149136+175698138
1358+175887285+175910114+175891789+175812359+175666663+175636452+176126284
1344+177467648+179475047+181629976+183625077+185414912+187138094+188998545
1331+191072921+193303924+195602871+197942198+200293217+202591416+204803965
1317+206888897+208779856+210471704+211951357+213131680+213972126+214485174
1304+214717592+214800428+214889821+215113669+215525659+216120563+216891542
1290+217826762+218899883+220051751+221170608+222140826+222910863+223487790
1277+223924957+224356627+224957274+225861212+227096058+228534389+229993652
1263+231384364+232647704+233681311+234441850+234917164+235003214+234568008
1250+233557605+232001193+229987432+227641678+225190543+223012708+221553626
1236+221262723+222506861+225359288+229487676+234285726+239167788+243734298
1223+247740838+251106648+253878729+256145323+258039121+259712399+261255879
1209+262675731+263944130+265079840+266158021+267206597+268209465+269171320
1196+270086331+270948173+271780463+272588208+273336875+274030333+274725315
1182+275392861+275962846+276490141+277060048+277656668+278210857+278691204
1169+279125920+279525559+279862068+280139627+280358391+280494100+280576614
1155+280604824+280471000+280095079+279472004+278573950+277327851+275713445
1142+273878262+272100660+270583325+269375218+268486843+267900314+267539854
1128+267375213+267397126+267490222+267473032+267168450+266377843+264812141
1115+262071754+257691798+251163455+242086055+230549983+217696164+206032604
1101+198651104+197497172+202184821+210482376+219869688+228564070+235496285
1088+239985108+241532331+239663517+233692900+222522915+204939828+180842685
1074+153157948+128345278+113436647+111145197+117101206+122349638+119977197
1061+109872036+97464656+89302699+90296294+103087983+127477887+160191569
1047+196175218+230475651+259686847+282496918+299105786+310399581+317397430
1034+320804949+320835843+317116051+308333838+292094774+266091018+231393320
1020+195793826+171846883+168638951+185123597+212100215+240286851+265570744
1007+287705009+306965013+322903677+335030200+343467078+348808270+351659897
993+352408254+351299488+348387854+343498282+336280997+325987102+311269192
980+290189233+260755323+222962663+181419561+144931717+122394289+119425150
966+137450850+172993150+218234970+264508849+305699376+339046367+364282073
953+382528344+395514258+404932425+411968473+417324119+421476175+424811452
939+427598167+429999696+432067865+433750718+435074815+436120423+436889041
926+437363684+437523705+437285119+436538078+435169847+433019371+430053948
912+426522568+422832921+419607671+417870617+418634305+421841384+425962855
899+428956256+429303062+426191092+419591256+410934634+403898251+403455870
885+412015834+426595868+441583594+453412814+461514627+466686508+469815435
872+471422459+471689024+470362397+466817415+460669665+452708050+445975087
858+444877446+451297026+462372495+473471193+482089204+488160712+492406587
845+495426752+497688262+499527730+501065377+502385241+503546890+504476406
831+505214155+505972913+506800325+507571626+508197567+508677423+509117171
818+509518102+509842583+510270407+510818247+511262434+511541439+511729696
804+511890181+512052061+512225916+512425529+512641557+512855366+512993397
791+512934861+512726678+512580801+512447416+512000802+511247723+510390732
777+509339756+508005954+506411990+504811676+503926140+504177219+504985996
764+505158044+503753266+500708891+496941480+494376549+495160394+499556740
750+505420943+510459903+513955021+516283120+517903824+519071822+519914101
737+520521458+520983248+521384539+521790528+522153363+522493021+522890234
723+523201191+523700922+524137727+524425094+524791697+525365966+526065774
710+526727332+527290916+527809281+528311592+528847869+529505349+530254506
696+530993442+531737953+532583586+533537415+534510962+535434697+536308257
683+537219809+538249983+539285164+540158570+540861372+541719033+543940848
669+547539876+549130743+548248717+548806520+551380484+553978245+555967513
656+557846676+559992352+562326491+564504946+566424424+568367389+570565665
642+572946882+575362890+577796242+580330511+583023871+585853818+588742507
629+591611065+594545903+597801711+601201333+604382448+607521648+610827476
615+614232724+617613194+620958099+624506746+628402123+632427220+636223590
602+639775799+643499592+647519424+651572086+655452906+659249844+663113526
588+667102386+671495790+676309842+681105931+685574596+689699267+693770306
575+698067594+702353783+706562079+710925698+715311926+719457916+723453177
561+727535934+731715477+736065262+740600258+745057309+749424231+753792186
548+758185280+762679704+767119616+771405599+775697880+779949536+784168207
534+788685188+793358060+797582823+801186600+804626071+808570229+812799946
521+816845691+820865988+824942446+828840869+832353692+835569082+838628272
507+841729480+844768950+847196212+849030001+850323332+851205100+851947133
494+852208484+851754953+850649879+848967696+847166169+846367664+847658259
480+851071044+855580282+859780628+862374259+862610522+860639992+857986792
467+857519221+861119539+869277464+881858008+897211666+912956498+926420153
453+937034606+946366001+954475352+961483757+967904214+973774509+979684551
440+985531410+990337513+994524489+998932088+1003292094+1007630006+1012115551
426+1016699483+1022168796+1029104624+1035554504+1040520215+1043587458
415+1044319838+1045155251+1047800657+1052274742+1057560805+1061788251
403+1065326574+1069615861+1073741823
##END=
