##TITLE=1
##JCAMP-DX=4.24
##DATA TYPE=INFRARED SPECTRUM
##DATE=16/11/2015
##SAMPLING PROCEDURE=Instrument type and / or accessory
##ORIGIN=Default
##XUNITS=1/CM
##YUNITS=TRANSMITTANCE
##RESOLUTION=4
##FIRSTX=3996.3359
##LASTX=399.24785
##DELTAX=-1.9287336
##MAXY=0.61885244
##MINY=0.0058654826
##XFACTOR=1
##YFACTOR=5.7635125e-010
##NPOINTS=1866
##FIRSTY=0.022403827
##XYDATA=(X++(Y..Y))
3996+38871829+38906231+38910203+38908387+38860476+38805729+38847426+38956676
3981+39035138+39017602+38918202+38851459+38911838+39079264+39248772+39303854
3965+39240605+39217695+39306640+39392971+39461604+39554916+39610111+39621432
3950+39659493+39721705+39735479+39679550+39592818+39515307+39483836+39523726
3935+39664477+39856787+39933746+39845799+39732292+39722894+39812396+39916996
3919+39993544+40044648+40061392+40035512+40019127+40048869+40065467+40064275
3904+40132239+40245054+40282394+40222038+40147807+40138874+40179171+40165084
3888+40095436+40090924+40120540+40085032+40072700+40140157+40242860+40352547
3873+40381274+40303427+40195789+40123155+40171189+40312938+40407371+40421959
3857+40385728+40357149+40421707+40469809+40353617+40196235+40166283+40262031
3842+40383898+40463585+40495208+40488408+40464270+40465139+40472831+40448773
3827+40425133+40423365+40483324+40609600+40647205+40597504+40608514+40650970
3811+40634869+40588726+40602077+40661936+40713227+40756375+40740507+40683110
3796+40669055+40698035+40745439+40766090+40705762+40610870+40575692+40630041
3780+40720780+40755519+40742478+40767935+40821072+40839813+40804012+40758838
3765+40773752+40813532+40814483+40790457+40758815+40737375+40772670+40896722
3749+41039667+41090823+41102096+41127207+41061663+40912286+40820710+40834119
3734+40859485+40829659+40771351+40722490+40713751+40740358+40768530+40797674
3719+40830919+40840130+40810420+40792387+40783577+40687774+40525144+40399983
3703+40353423+40344438+40293829+40172123+39998637+39790885+39547040+39266366
3688+38997032+38807620+38714421+38691372+38713966+38795252+38944014+39048549
3672+39055905+39062582+38994136+38770176+38572982+38514774+38487631+38432370
3657+38385387+38269456+38027566+37815509+37712376+37552920+37274986+37026009
3641+36900435+36830806+36723624+36581477+36421064+36238823+36116367+36065835
3626+35918860+35631476+35315456+35068922+34890570+34710669+34517175+34289476
3611+33981277+33649867+33374150+33149415+32939788+32693190+32375001+32061362
3595+31860487+31726746+31529245+31278461+31052003+30814677+30544923+30284198
3580+30012525+29713371+29415739+29141939+28918322+28725074+28510296+28271916
3564+28010658+27730323+27448146+27169003+26925367+26715188+26472501+26182384
3549+25888947+25598589+25293606+25016127+24771105+24459425+24087566+23794385
3533+23590267+23380989+23174799+22984153+22732198+22418425+22128682+21881483
3518+21648460+21438208+21247160+21004762+20686347+20380456+20118812+19870427
3503+19666713+19485379+19238100+18950120+18731118+18582873+18406495+18163480
3487+17887515+17625499+17403991+17207609+17003315+16803923+16664060+16555249
3472+16384059+16148829+15927571+15757233+15624938+15507091+15356155+15143035
3456+14910839+14725098+14564466+14363565+14166634+14031145+13906482+13742612
3441+13567401+13440648+13344659+13185920+12999214+12907256+12851177+12727017
3425+12584463+12446803+12281611+12125252+12016104+11951332+11906975+11826651
3410+11717037+11639320+11579406+11505738+11412129+11273784+11068374+10836119
3395+10672624+10636469+10686729+10705246+10654772+10610410+10564489+10487772
3379+10442775+10423277+10351623+10249664+10198888+10202530+10198269+10176924
3364+10202062+10267642+10300512+10301659+10294878+10259445+10219183+10265845
3348+10419586+10549706+10551979+10504545+10526917+10598603+10639348+10689727
3333+10810501+10912176+10922788+10929994+11008914+11117631+11200944+11257798
3317+11321550+11443956+11622117+11766607+11836728+11897606+11998835+12131909
3302+12285520+12418103+12511426+12634855+12782083+12878707+12969610+13153093
3287+13403197+13583480+13651809+13709486+13840445+14061150+14333600+14571660
3271+14743059+14898322+15046387+15183786+15376163+15611644+15792846+15946029
3256+16182286+16485896+16752220+16952943+17120296+17305639+17559207+17842008
3240+18068731+18250228+18480178+18790269+19112805+19409210+19715563+20049350
3225+20383375+20672952+20895936+21113513+21414656+21789621+22144662+22445835
3209+22737470+23031659+23330230+23664662+24025886+24379849+24725885+25052995
3194+25342009+25649056+26028712+26398321+26673307+26942308+27298188+27669019
3179+27990537+28312342+28667897+29021568+29327017+29590922+29871813+30184543
3163+30489517+30791437+31115182+31427259+31694832+31965439+32298136+32642751
3148+32914664+33141047+33402186+33709432+34016649+34288329+34513953+34739506
3132+35041084+35384393+35685341+35938600+36150996+36330680+36523240+36764354
3117+37032111+37279042+37513815+37738838+37913985+38090858+38352836+38650244
3101+38895676+39091448+39252226+39384552+39549797+39769132+40001239+40228120
3086+40421284+40553700+40632552+40704085+40862536+41097881+41272453+41364678
3071+41466373+41575927+41640974+41682166+41755502+41876141+41987250+42034770
3055+42043577+42063569+42126433+42206989+42228018+42187941+42150155+42124116
3040+42085671+42020757+41924647+41821210+41745580+41692640+41618118+41491539
3024+41315626+41111242+40908524+40713573+40497922+40241293+39937954+39579064
3009+39182142+38765012+38270357+37657594+36979562+36264836+35492332+34619216
2993+33593698+32354721+30860071+29142724+27229302+25087181+22755861+20419821
2978+18326107+16621738+15313583+14315860+13463344+12663159+12009718+11682814
2963+11867958+12675501+13990725+15473786+16779480+17748897+18318648+18387188
2947+17931661+17083806+16069592+15164261+14594255+14474334+14787071+15413705
2932+16240901+17170622+18138180+19108613+20048679+21021452+22091087+23163275
2916+24107114+24897910+25564185+26056252+26315832+26438408+26573370+26751114
2901+26891897+26906935+26765844+26445248+25892208+25099559+24070163+22772070
2885+21269107+19773248+18544713+17842539+17929815+18856839+20280958+21818250
2870+23372536+24963752+26511188+27922918+29214948+30401920+31500866+32582604
2855+33682479+34851310+36119809+37385177+38545024+39609724+40634336+41585846
2839+42360457+42987711+43602339+44252530+44905535+45512986+46079095+46684864
2824+47330559+47918399+48430899+48906037+49352214+49798867+50262308+50712461
2808+51150194+51598679+52056933+52506136+52909692+53265318+53611860+53956672
2793+54296621+54613039+54860458+55058941+55263585+55467459+55630813+55754674
2777+55886951+56043693+56197461+56340688+56454279+56520408+56600123+56711581
2762+56782299+56834693+56943481+57085486+57204235+57269000+57293859+57339776
2747+57410377+57441500+57432638+57455351+57539423+57662709+57827860+58041423
2731+58253124+58420247+58571372+58739554+58929331+59145841+59371724+59597807
2716+59860390+60156971+60454496+60758336+61041957+61252398+61417116+61601690
2700+61808589+61987397+62101951+62163556+62222717+62322896+62417348+62429338
2685+62402773+62427780+62494084+62522168+62500095+62518755+62627001+62797213
2669+63025247+63301145+63546354+63705177+63847854+64050765+64280668+64490928
2654+64675373+64844531+65024626+65217958+65403482+65585573+65762230+65912727
2639+66058442+66223697+66379708+66514480+66644747+66753613+66846010+66968488
2623+67098729+67180771+67240889+67324444+67407598+67456023+67483803+67497344
2608+67488748+67495257+67542027+67578637+67567112+67563402+67633060+67742689
2592+67795444+67775711+67783319+67843663+67890905+67928303+67967886+68014889
2577+68115010+68232330+68302590+68384851+68525518+68666211+68790790+68906074
2561+68969760+69001638+69055990+69115934+69173595+69279229+69427291+69526681
2546+69561274+69625496+69726076+69788656+69864028+70028487+70205751+70316091
2530+70416173+70568771+70727226+70857014+70994643+71144204+71297184+71456976
2515+71606421+71742059+71882525+72051199+72242663+72404763+72515064+72636547
2500+72834558+73063007+73221138+73302508+73391182+73533976+73691493+73808871
2484+73877676+73943973+74070265+74234963+74357810+74448927+74540329+74619514
2469+74741527+74915656+75046142+75139463+75261761+75392920+75502063+75603897
2453+75714689+75850793+76020113+76187228+76332620+76476816+76620010+76759643
2438+76914691+77090209+77255645+77375201+77459170+77567473+77745875+77974213
2422+78167733+78237436+78228626+78277795+78389091+78476511+78535730+78625800
2407+78767785+78905983+79006485+79100065+79174868+79213294+79255243+79351770
2392+79479774+79587942+79704500+79860776+79997649+80071411+80119617+80172515
2376+80219440+80278175+80397072+80577904+80721363+80709450+80625812+80654587
2361+80791958+80965886+81162857+81301921+81299245+81183340+81094162+81234680
2345+81571375+81775152+81794743+81932973+82208444+82379063+82377363+82400626
2330+82564794+82765204+82905612+83018039+83184987+83412214+83606781+83721722
2314+83829070+83973692+84110242+84213807+84319228+84454123+84601486+84720972
2299+84800099+84894674+85055856+85248788+85422761+85581209+85725302+85828150
2284+85885683+85931503+86011257+86134136+86258146+86359366+86441899+86496827
2268+86531917+86587944+86683605+86776415+86833818+86909384+87046819+87184732
2253+87259781+87306868+87373275+87482574+87612731+87753204+87879360+87987276
2237+88085664+88177874+88280360+88409373+88538321+88629406+88698838+88805183
2222+88970592+89147759+89292110+89416288+89524534+89587056+89621875+89681133
2206+89785591+89900307+89972938+90043675+90175558+90352660+90560070+90790994
2191+91008771+91181601+91312993+91442814+91611500+91796113+91920174+91982225
2176+92079043+92260243+92459650+92603206+92707768+92824481+92963409+93111431
2160+93268819+93429252+93561729+93682643+93864787+94084089+94237813+94362947
2145+94545401+94735767+94892715+95031772+95135060+95220451+95343491+95498721
2129+95654344+95805443+95935872+96047439+96166162+96274479+96368628+96498028
2114+96684580+96894614+97086485+97253323+97413852+97574530+97726715+97882520
2098+98055692+98235018+98425835+98605710+98745013+98858824+98977773+99117716
2083+99263043+99383168+99479366+99566023+99635048+99670992+99686013+99709056
2068+99758424+99849865+99982465+100135858+100311467+100530712+100789778
2054+101039201+101239456+101427733+101654805+101897196+102109738+102290873
2041+102450213+102584714+102712001+102864742+103042574+103227587+103429238
2027+103672314+103961753+104254010+104493621+104705187+104955540+105232363
2014+105470358+105679913+105916694+106147068+106322173+106497530+106723406
2000+106966404+107178843+107345700+107499068+107669305+107831994+107999555
1987+108201103+108376589+108512227+108683628+108895788+109100826+109297862
1973+109508561+109709811+109866165+109997854+110133563+110286711+110472280
1960+110649318+110775655+110878038+110967752+111055062+111160419+111231557
1946+111224757+111204849+111247069+111351844+111506181+111701627+111930657
1933+112193259+112471077+112766527+113077309+113389939+113705607+114010235
1919+114330001+114647544+114885184+115104325+115385529+115673016+115899965
1906+116086814+116285375+116496941+116701720+116917358+117152076+117359674
1892+117534294+117732932+117934622+118090976+118233575+118394143+118567755
1879+118741793+118939333+119178433+119413746+119666033+119974488+120228855
1865+120373213+120510189+120692255+120902011+121119420+121328051+121536437
1852+121753367+121963291+122153618+122375732+122617754+122733530+122786415
1838+122972941+123280193+123571752+123824969+124098366+124327810+124489373
1825+124703731+124964356+125213074+125458457+125678904+125873664+126103871
1811+126375587+126611184+126809681+127049363+127350747+127669362+127951872
1798+128176960+128384609+128653946+128943786+129097632+129167736+129348134
1784+129643416+129926404+130150109+130339155+130557056+130883156+131251968
1771+131442333+131479731+131581972+131785484+132067503+132367542+132585791
1757+132768594+132953827+133167797+133474468+133769298+133932038+134045370
1744+134206960+134448749+134744522+134985846+135233518+135584839+135806333
1730+135833273+135892699+136066815+136326715+136622786+136947025+137326993
1717+137611416+137650624+137601501+137672264+137906530+138252564+138554581
1703+138746161+139025853+139315796+139349329+139269116+139170689+139097741
1690+139180591+139365695+139601900+139774180+139658999+139441125+139406894
1676+139561890+139701206+139718335+139750950+139800707+139766320+139804287
1663+139998906+140169053+140272276+140457380+140848879+141268973+141252814
1649+140975785+140912972+140982701+140998705+141126800+141454568+141940629
1636+142483349+142811983+142961383+143287367+143852167+144465496+145071611
1622+145629107+146098634+146687324+147471291+148158072+148711147+149318323
1609+149952658+150534432+151118713+151739475+152317513+152809339+153292479
1595+153827934+154352182+154786211+155152463+155507714+155863366+156226671
1582+156607298+156979768+157376205+157776365+158005318+158158660+158421831
1568+158624412+158692719+158823555+159137568+159700274+160176588+160035669
1555+159643291+159495870+159569335+159695789+159851677+160132132+160505365
1541+160775064+160723872+160349424+160037324+159972947+159905764+159747820
1528+159673580+159684839+159674136+159577634+159287265+158861819+158477469
1514+158169144+157943138+157777076+157544387+157035794+156140744+155146620
1501+154295781+153427438+152265752+150772395+149046594+146971166+144241778
1487+140827161+137079657+133377437+129976071+127087899+124773667+122682028
1474+120116324+116847771+113675280+111479435+110311105+109447519+108225793
1460+107060643+107497465+110758113+116023445+121768027+127144572+131556014
1447+134525536+136034587+136612871+136932805+137556566+138718924+140023248
1433+141061156+141932420+142720718+143398488+144084532+144844830+145684151
1420+146689276+147722944+148600323+149494223+150557119+151728448+152922956
1406+154085702+155127747+155971127+156624271+156983892+156857697+156153956
1393+154817870+152890444+150589825+148396410+147121676+147605566+150255645
1379+154615198+159423207+163415280+165967449+167245401+167962522+168727926
1366+169705529+170765542+171630278+172127405+172356306+172449640+172446357
1352+172371353+172268065+172291360+172796592+174076729+176000444+178107234
1339+180000881+181634343+183270262+185124752+187167837+189312969+191549405
1325+193831047+196077541+198283327+200425162+202392713+204164587+205804383
1312+207270438+208464119+209334465+209863612+210129304+210290105+210441715
1298+210649506+211018628+211604357+212370898+213283413+214329879+215439287
1285+216506682+217472198+218278723+218851707+219240245+219655543+220297945
1271+221246229+222464587+223851774+225281026+226625812+227817747+228824695
1258+229591921+230049827+230120021+229735283+228849024+227415247+225482224
1244+223254307+220971449+218899718+217465631+217190438+218417665+221146535
1231+225091979+229761345+234529628+238904022+242698968+245897456+248550522
1217+250789349+252723458+254388320+255849347+257202019+258471181+259642820
1204+260741525+261786685+262776620+263704402+264583449+265425575+266255110
1190+267049820+267770586+268463508+269149500+269776622+270356637+270948675
1177+271566335+272165715+272699555+273180341+273653889+274117172+274518327
1163+274845721+275108504+275276996+275353034+275375941+275309469+275032776
1150+274476056+273634240+272477182+271032288+269428028+267805852+266307103
1136+265073957+264213603+263737780+263531876+263447591+263437560+263494957
1123+263458088+263119836+262376887+260996888+258501508+254338370+248038451
1109+239309391+228243671+215901795+204694574+197588376+196425591+200865228
1096+208866670+218017879+226490025+233176155+237479062+239044436+237398293
1082+231755358+221029906+204064233+180721027+153783478+129519884+114844024
1069+112491411+118246515+123342644+120992178+111070808+98865682+90849470
1055+91866844+104394870+128233620+160236893+195347428+228611604+256763866
1042+278713551+294820731+305880531+312762197+316192960+316357006+312820964
1028+304399338+288857513+263901283+230417320+195853591+172469238+169259490
1015+185261586+211455022+238767433+263245411+284651405+303219425+318605865
1001+330397419+338637936+343883464+346750448+347558757+346536297+343847475
988+339297531+332408134+322498825+308400111+288248851+259974350+223389344
974+182878207+147023443+124663515+121532093+139125521+173933936+218121555
961+263108900+303000671+335225271+359565368+377186111+389782510+398901789
947+405681511+410883191+415013804+418399322+421199653+423490862+425397436
934+427033341+428396768+429515846+430484064+431213000+431458900+431180837
920+430468861+429178163+427109275+424340305+421095202+417631630+414556700
907+412970047+413802918+416948611+421020405+424019608+424422186+421526426
893+415322349+407083151+400298645+399816333+408047568+422163760+436690855
880+448116183+455927441+460942814+464019373+465614739+465856373+464600681
866+461306171+455481661+447849729+441384653+440310406+446460887+457218088
853+468105181+476468687+482310415+486611796+489824556+492107025+493860620
839+495425477+496844103+498048293+499001179+499758193+500486147+501283959
825+502092786+502853729+503543264+504118212+504575523+504963286+505337656
812+505761512+506212049+506596761+506921025+507251857+507635845+508023505
798+508265501+508355319+508419955+508483246+508493639+508437018+508361782
785+508262347+508015438+507592772+506981990+506018865+504660325+503069613
771+501632424+501001165+501435466+502245378+502365187+501080745+498258954
758+494740700+492485636+493436816+497695485+503333689+508308729+511821554
744+514073205+515583407+516726684+517579463+518154049+518592383+519052641
731+519593255+520133144+520597643+521018965+521347469+521835392+522273829
717+522676536+523258309+524021322+524794572+525476661+526087443+526637157
704+527154657+527813476+528699968+529590391+530317776+531035129+531881186
690+532803254+533780081+534872891+536022011+537122526+538206183+539295115
677+540278768+541031128+541809342+543768013+546941060+548481718+548052226
663+548862604+551286342+553738778+555848489+557829756+559749645+561758421
650+563940731+566177646+568434985+570863067+573491312+576164440+578759489
636+581282610+583783704+586313962+588994277+591965713+595195226+598459435
623+601650115+604650456+607597484+610741109+614117475+617723271+621344425
609+624778394+628315005+632204165+636208117+640070492+643827847+647603765
596+651425600+655269101+659298029+663616112+668074687+672463765+676633910
582+680726026+684901031+689134518+693482230+697941632+702241410+706300226
569+710488365+714938770+719307113+723477413+727733704+732128935+736454309
555+740702585+745087682+749664153+754089996+758221204+762347758+766725719
542+771215268+775436914+779474891+783693331+788154543+792604069+796801568
528+800838924+804817540+808801947+812840131+816735547+820382142+823977390
515+827618193+831272131+835066767+838909803+842214086+844824285+847226512
501+849364974+850970836+852179008+852881728+852960739+852392565+851156832
488+849718712+848787699+848813295+849994940+852630838+856646477+860767860
474+863368803+863734125+862250243+860304809+859883798+862994329+870967125
461+883626737+899307787+914967430+927729219+937977969+947137529+955435727
447+962865840+968941913+973812243+978992205+984933318+990223522+994117491
434+997934103+1002455194+1006363021+1009414656+1013496534+1019395349+1026319442
420+1033601669+1040071761+1043958594+1045365378+1046754478+1049880574
409+1053478873+1056094708+1058576101+1062650636+1068439932+1073741823
##END=
