##TITLE=1
##JCAMP-DX=4.24
##DATA TYPE=INFRARED SPECTRUM
##DATE=16/11/2015
##SAMPLING PROCEDURE=Instrument type and / or accessory
##ORIGIN=Default
##XUNITS=1/CM
##YUNITS=TRANSMITTANCE
##RESOLUTION=4
##FIRSTX=3996.3359
##LASTX=399.24785
##DELTAX=-1.9287336
##MAXY=0.6167928
##MINY=0.0058148634
##XFACTOR=1
##YFACTOR=5.7443306e-010
##NPOINTS=1866
##FIRSTY=0.022235204
##XYDATA=(X++(Y..Y))
3996+38708085+38721970+38625321+38508809+38460543+38463838+38530093+38631962
3981+38671869+38635373+38594974+38600195+38667955+38761691+38794415+38798378
3965+38884352+39007586+39069853+39085152+39095285+39113005+39143229+39178586
3950+39171589+39108699+39095116+39179122+39254486+39281143+39318050+39331033
3935+39286049+39282028+39377425+39492105+39544794+39529145+39482374+39462578
3919+39514563+39616244+39685817+39662169+39613452+39656948+39735010+39723612
3904+39672305+39677921+39698563+39648239+39550150+39546736+39703220+39835874
3888+39793010+39705856+39663368+39608864+39603150+39697694+39834820+39973002
3873+40038308+40022650+40005999+39970149+39929263+39950807+39984903+39993320
3857+40054472+40245502+40462324+40451730+40243913+40087686+40064514+40081340
3842+40059281+40022361+40026930+40074427+40113263+40111564+40097115+40106817
3827+40134875+40151724+40203881+40317150+40355821+40308356+40281618+40264368
3811+40253398+40267850+40296755+40339780+40422972+40527565+40494448+40296213
3796+40120144+40059612+40113730+40264458+40419668+40507175+40517127+40453426
3780+40381409+40382550+40436111+40456497+40432171+40439392+40467185+40419866
3765+40313061+40255606+40333632+40497798+40568661+40499704+40434321+40463777
3749+40495661+40461928+40506857+40662028+40705624+40639638+40681192+40842675
3734+40903587+40747035+40502665+40354015+40307034+40239932+40174587+40229448
3719+40364106+40442674+40434152+40405002+40347618+40208333+40037543+39909302
3703+39860971+39843283+39739961+39572537+39465717+39428956+39350330+39182144
3688+38990446+38820641+38696976+38649673+38642410+38620487+38602912+38575100
3672+38498757+38438626+38419505+38410925+38403325+38339287+38197275+38071005
3657+38031696+37990622+37853036+37713715+37641247+37495765+37209835+36917983
3641+36721881+36584179+36426570+36234486+36066939+35966146+35900883+35760544
3626+35485703+35205862+35008924+34818536+34555365+34256956+34048180+33955867
3611+33841400+33578839+33186441+32810993+32570533+32417369+32222208+31951910
3595+31665723+31408765+31190562+30987421+30745051+30448627+30145537+29846263
3580+29542038+29285789+29119020+29000517+28849192+28619384+28329429+28013887
3564+27682402+27356869+27095921+26901830+26674807+26335450+25945822+25650152
3549+25467930+25292152+25087483+24880281+24660453+24427524+24177442+23894392
3533+23610874+23317985+22955964+22568096+22244574+21989167+21761572+21527250
3518+21275200+21062345+20944813+20839034+20619612+20324973+20065886+19849854
3503+19637932+19410366+19158132+18924691+18750221+18556971+18278573+17988192
3487+17758857+17584985+17439031+17274946+17052804+16817072+16651037+16536938
3472+16380592+16150232+15903313+15704801+15585787+15526146+15409681+15166040
3456+14904563+14710462+14503041+14241032+14045067+13964521+13880146+13722090
3441+13514384+13300938+13142156+13033246+12913604+12784657+12689063+12635189
3425+12573344+12438971+12250966+12076240+11921794+11790677+11704884+11634495
3410+11589287+11619730+11644615+11523863+11271865+11055716+10987734+10986381
3395+10919711+10795069+10691443+10632080+10628388+10674723+10693526+10630675
3379+10538959+10466744+10385100+10308837+10295920+10306067+10264463+10219765
3364+10250297+10297606+10292892+10291675+10310008+10246978+10122787+10131845
3348+10308208+10462778+10492288+10458812+10461807+10543251+10656855+10750872
3333+10805240+10812056+10800590+10826258+10927101+11070346+11204773+11343581
3317+11465375+11518865+11529365+11526637+11524907+11602775+11806566+12032376
3302+12194655+12355251+12546185+12672222+12677637+12680495+12813382+13053491
3287+13283411+13407466+13477584+13614754+13805270+13989345+14172529+14349336
3271+14506520+14676647+14878763+15079813+15261258+15438413+15612963+15789750
3256+16010788+16253893+16426461+16564234+16795655+17130039+17475134+17774089
3240+18036264+18268394+18450057+18629718+18902990+19228595+19497653+19726879
3225+19972302+20230251+20507908+20839048+21202532+21531667+21831776+22164651
3209+22514201+22818605+23099785+23405105+23710400+23974633+24225346+24545533
3194+24942989+25333005+25664243+25963384+26297389+26671338+27021068+27329898
3179+27610831+27879538+28179570+28519941+28876683+29228866+29526528+29750594
3163+29995071+30338895+30715907+31043910+31318712+31561743+31812197+32095384
3148+32399321+32697272+32972068+33243109+33524244+33813874+34121715+34421187
3132+34677856+34916364+35161802+35407563+35650728+35886680+36119728+36365006
3117+36623725+36879695+37100783+37278898+37446861+37627767+37811122+37992425
3101+38211970+38484126+38743157+38947504+39121987+39288695+39443330+39553747
3086+39632859+39768966+39976932+40182113+40346509+40475648+40581041+40679839
3071+40793330+40925711+41050473+41143739+41219220+41301234+41387056+41450909
3055+41484375+41525047+41596835+41672163+41712669+41700036+41677614+41711528
3040+41754135+41691190+41550031+41439073+41359841+41293965+41227884+41089436
3024+40913626+40802312+40674551+40402583+40049683+39737539+39466738+39170107
3009+38807940+38373755+37885640+37357609+36744054+36012891+35213595+34328228
2993+33266073+32000361+30564348+28956269+27100571+24962158+22641135+20322599
2978+18225934+16536266+15275571+14303186+13452060+12644159+11978995+11654995
2963+11803295+12523601+13796909+15289259+16613469+17624366+18239564+18335034
2947+17900854+17071827+16063156+15125175+14509009+14397469+14763321+15429514
2932+16257372+17141604+18022443+18934526+19925956+20966788+21977640+22932056
2916+23836223+24653143+25297186+25716421+25982354+26193368+26389822+26570197
2901+26676857+26646551+26463180+26115297+25558755+24783692+23814495+22619789
2885+21195546+19694343+18439499+17809835+17988730+18847955+20126975+21618672
2870+23155147+24633498+26075068+27510898+28883087+30090993+31129047+32137911
2855+33221471+34365411+35561916+36792732+37972664+39039956+39986991+40819228
2839+41574042+42301639+42995126+43641729+44295524+44976751+45588535+46066462
2824+46516960+47052852+47649856+48231478+48736785+49161180+49542313+49928021
2808+50356421+50791945+51202838+51625214+52073030+52489115+52815202+53106794
2793+53427884+53729428+53995913+54259995+54492854+54678472+54848195+55010312
2777+55155171+55282228+55399265+55515823+55633996+55732013+55773732+55792260
2762+55869952+56002119+56131109+56257135+56387260+56479401+56517113+56542087
2747+56580933+56612256+56621627+56629183+56660726+56746979+56905457+57110070
2731+57334580+57573338+57796900+57955411+58064394+58211613+58421895+58662741
2716+58945896+59255043+59546785+59821762+60064203+60276365+60481374+60653296
2700+60789056+60899654+60997496+61130934+61296007+61445627+61558877+61626932
2685+61640194+61594344+61525550+61473818+61429025+61433506+61606309+61928356
2669+62209390+62360093+62474802+62657022+62898179+63117040+63305188+63517836
2654+63725913+63865947+63974884+64133181+64341568+64545300+64734491+64918339
2639+65077342+65219147+65367482+65507801+65608347+65674548+65761027+65894025
2623+66033916+66126959+66172796+66224833+66278193+66290936+66303563+66362869
2608+66440633+66484103+66482430+66501801+66592801+66705409+66764444+66755189
2592+66744450+66794373+66869322+66925885+66962312+66950866+66912779+66946618
2577+67064343+67187354+67282232+67369892+67457714+67538389+67645264+67790214
2561+67930093+68051962+68154019+68228773+68285201+68330162+68365312+68400397
2546+68461947+68553135+68660361+68786705+68913755+69011000+69087376+69193032
2530+69342314+69477102+69580890+69723486+69902029+70021933+70110183+70273149
2515+70489442+70688984+70872591+71039338+71164800+71275054+71427079+71637853
2500+71846844+71984239+72089181+72194488+72259216+72323484+72454218+72621062
2484+72765006+72879748+73003044+73124148+73196899+73272509+73420559+73587357
2469+73696781+73782671+73913866+74048783+74128790+74200944+74307839+74452302
2453+74625125+74775951+74881892+75004040+75189665+75391185+75557899+75693588
2438+75806806+75924291+76078573+76242719+76368019+76457858+76553728+76677277
2422+76796818+76890548+76991885+77115673+77234371+77322472+77400690+77498791
2407+77599058+77704500+77830863+77940132+78000865+78049679+78130128+78234571
2392+78337919+78450066+78588862+78747787+78920137+79095612+79232125+79294013
2376+79306516+79326250+79362263+79385123+79429416+79584282+79791087+79836276
2361+79710126+79644659+79741048+79898436+80068860+80227123+80279115+80294816
2345+80480868+80817824+81083897+81217245+81266273+81276299+81320191+81466120
2330+81681524+81829937+81845106+81834976+81929601+82121581+82306525+82423835
2314+82510490+82615958+82737646+82845941+82936986+83047798+83203462+83394586
2299+83593291+83758792+83878761+83992167+84135814+84296004+84428366+84514437
2284+84577440+84653647+84765341+84898105+85009948+85085079+85142615+85186695
2268+85213368+85261916+85372903+85512892+85633866+85746786+85857624+85947476
2253+86037892+86138879+86194100+86214541+86259425+86382409+86551568+86689015
2237+86761700+86813698+86914640+87061847+87200849+87337537+87487091+87620465
2222+87739902+87866311+87994549+88116567+88241069+88369054+88473082+88540833
2206+88588349+88637449+88712099+88797113+88865415+88970792+89159666+89380914
2191+89598679+89803857+89980999+90162505+90349725+90488845+90587303+90702155
2176+90852319+91000959+91113360+91211908+91327467+91456016+91599383+91766681
2160+91942935+92108968+92265708+92414354+92563363+92738515+92926085+93090458
2145+93231763+93363217+93497505+93646735+93798002+93916077+94021792+94169264
2129+94330822+94456965+94547213+94619470+94696988+94807890+94976634+95179574
2114+95373182+95546706+95680216+95772156+95889505+96077782+96280080+96421035
2098+96531451+96693152+96916371+97130706+97303322+97447577+97578033+97702431
2083+97819067+97927868+98033148+98124881+98178072+98187573+98192009+98231919
2068+98311226+98421447+98553816+98708208+98897147+99104263+99315829+99543393
2052+99769706+99988878+100215204+100427100+100615902+100797539+100951205
2039+101054591+101141324+101259807+101426969+101640026+101894672+102174591
2025+102456099+102727574+102973485+103207768+103488971+103805609+104068219
2012+104263306+104454650+104649464+104810102+104950006+105118530+105320640
1998+105517873+105704593+105907579+106124358+106323855+106511055+106696343
1985+106836948+106946722+107104467+107315390+107530717+107732743+107932875
1971+108133150+108330590+108528362+108699259+108824941+108950053+109086786
1958+109192805+109282755+109385583+109472316+109525053+109556415+109572148
1944+109601370+109659049+109705587+109795912+110024709+110339135+110646156
1931+110931243+111223037+111528617+111833147+112109454+112333063+112587229
1917+112912862+113192217+113419262+113694972+114016013+114302891+114514294
1904+114687720+114886374+115108996+115315601+115521427+115732207+115922728
1890+116126090+116337519+116501853+116646252+116830391+117052754+117253794
1877+117413485+117576081+117753580+117966786+118235012+118465793+118616184
1863+118778663+119001273+119264142+119530060+119768623+119982905+120168381
1850+120318292+120452950+120636791+120858960+120980064+121057146+121258913
1836+121545440+121804548+122071140+122418511+122741563+122959516+123150219
1823+123311673+123438627+123606489+123852951+124146806+124439637+124713778
1809+124954273+125176675+125414370+125661804+125919836+126176791+126393720
1796+126601776+126886358+127195493+127369451+127452837+127607936+127855085
1782+128133286+128383678+128573654+128776601+129091533+129447374+129639983
1769+129688155+129778286+129959442+130231961+130521913+130732473+130947975
1755+131194735+131437942+131721564+131975237+132127107+132278574+132493907
1742+132751537+133008570+133198883+133428406+133799189+134064289+134136222
1728+134215808+134376692+134618225+134903884+135206118+135557744+135833142
1715+135881470+135848486+135926658+136134326+136439310+136744865+136981340
1701+137285455+137566314+137590802+137508752+137408128+137332304+137397091
1688+137540737+137757393+137977811+137934075+137740973+137692347+137833684
1674+137969458+137961157+137945281+137977642+137961727+137997915+138169240
1661+138350578+138499464+138711944+139109199+139556714+139574237+139294843
1647+139228785+139330252+139383404+139509580+139800011+140238797+140741773
1634+141058340+141205553+141500018+142016937+142630693+143306965+143940280
1620+144431323+145007231+145788524+146481243+147012572+147573189+148182884
1607+148762606+149307865+149847236+150373714+150889466+151430121+151981839
1593+152481391+152915988+153317536+153702547+154080243+154461246+154834713
1580+155197117+155624372+156054286+156233523+156284211+156494460+156758147
1566+156940548+157118462+157370177+157822245+158256309+158183585+157876136
1553+157753307+157799819+157912855+158078837+158345532+158680141+158926214
1539+158880169+158515664+158195855+158126892+158095244+158011313+158010250
1526+158037760+157969626+157828198+157580154+157214546+156836513+156503773
1512+156263692+156117841+155931431+155466835+154611961+153643662+152795195
1499+151925833+150802798+149404118+147788029+145789484+143106963+139735250
1485+136029928+132375761+129048926+126253731+124008231+121963733+119481810
1472+116314899+113177002+110963825+109803863+108990741+107806414+106615395
1458+106961275+110110858+115291826+120970258+126287908+130680864+133685932
1445+135228661+135776683+136008683+136550972+137686290+138996409+140017822
1431+140859336+141648035+142352790+143064692+143836400+144665386+145627718
1418+146603553+147456235+148367789+149456868+150624975+151774976+152891954
1404+153916557+154737371+155348039+155683270+155552802+154828500+153481870
1391+151614909+149437037+147360955+146137984+146597315+149181690+153470222
1377+158228307+162213087+164780951+166061264+166767265+167514913+168469853
1364+169514482+170379642+170889323+171137990+171246695+171233919+171133101
1350+171026407+171074786+171605103+172870371+174701443+176689261+178541657
1337+180214348+181901138+183771251+185780431+187850676+189993710+192195902
1323+194379805+196512139+198600944+200606596+202475010+204169465+205627226
1310+206782285+207607625+208108305+208366389+208525755+208675809+208884436
1296+209249421+209825602+210593263+211506944+212536437+213631457+214706203
1283+215676435+216467521+217053766+217503564+217952791+218572850+219480669
1269+220642887+221961606+223339832+224670950+225891301+226938292+227711349
1256+228148915+228231796+227909872+227080394+225675268+223770576+221568268
1242+219324740+217339710+215985168+215712181+216889238+219580592+223494905
1229+228071197+232713508+237006918+240735599+243879994+246535485+248784617
1215+250711851+252384192+253844339+255185496+256457028+257620647+258683798
1202+259690736+260687350+261668969+262572586+263395060+264196029+264950876
1188+265635942+266313356+266988850+267620193+268254909+268912530+269526000
1175+270100819+270669801+271187965+271629241+272023280+272390210+272730422
1161+273020983+273233566+273371129+273436215+273400909+273192295+272682146
1148+271787661+270564482+269109653+267497338+265877916+264469054+263403568
1134+262693132+262266875+262010141+261896910+261952760+262073773+262063786
1121+261763757+261049455+259659244+257164611+253117897+247047709+238564056
1107+227723359+215559975+204425513+197307232+196158581+200668984+208666911
1094+217636341+225876671+232481236+236836539+238457025+236877396+231391807
1080+220888779+204172851+181123827+154509573+130530136+116003520+113651444
1067+119324597+124342956+122003279+112161193+100043587+92070141+93035567
1053+105433021+129049431+160699671+195414811+228399943+256354173+277993129
1040+293698864+304470585+311214010+314590054+314824220+311491263+303340766
1026+288135608+263608032+230645079+196556731+173382790+170091350+185820367
1013+211633521+238589478+262818321+284008919+302322129+317457169+329085243
999+337256519+342428304+345181825+345942197+344968074+342356864+337968537
986+331374401+321794055+307977059+288045179+260025967+223860305+183814805
972+148280434+126082289+122984237+140482535+175056026+218860506+263402738
959+302821175+334498302+358336843+375607835+387966761+396941833+403657839
945+408838185+412911202+416151655+418831894+421176772+423226212+424910538
932+426249179+427362863+428333432+429016682+429212664+428989211+428392213
918+427207556+425244213+422542184+419331433+415968955+413103941+411728361
905+412633015+415687499+419602798+422482857+422844029+420024463+414007246
891+405999293+399425753+398996098+407021925+420796534+435055041+446380205
878+454213137+459250550+462294165+463896778+464245109+463092981+459880441
864+454249817+446904154+440600008+439499606+445595656+456262500+466940705
851+475125599+480829635+484890797+487949147+490360900+492280300+493825947
837+495169828+496345873+497329283+498253963+499233948+500152921+500883877
824+501487723+502062152+502618579+503087067+503515088+504054238+504645944
810+505158323+505599626+506021783+506422099+506750404+507034869+507299671
797+507470464+507562709+507663774+507759599+507767122+507648469+507491684
783+507373135+507157413+506593826+505573841+504232969+502729190+501318279
770+500653005+501126318+502091517+502405191+501288395+498570750+495026324
756+492641238+493509679+497805812+503521521+508495275+511980815+514335966
743+515955337+516982534+517609104+518121484+518773061+519558440+520269784
729+520840374+521275139+521557062+521840438+522416787+523039777+523572702
716+524114394+524738007+525459209+526232863+526922313+527494304+528107644
702+528839274+529637001+530495999+531412690+532351948+533322336+534328677
689+535309233+536245898+537281759+538513058+539729778+540712253+541624897
675+542843848+544452946+546171150+547771687+549052792+550130781+551603224
662+553523090+555585734+557741350+559916213+561977560+563963005+566039501
648+568325235+570739997+573143605+575520182+577880573+580180885+582556322
635+585215185+588064661+590897068+593766932+596880276+600117720+603261207
621+606230632+609244727+612449952+615770821+619249772+622873109+626426821
608+629909819+633577929+637527184+641598879+645526032+649294377+653222724
594+657293640+661229821+665084341+669183688+673583792+677998889+682324335
581+686578600+690821295+695184563+699628142+703901396+707910833+712030363
567+716429791+720761048+724946622+729207321+733532974+737847266+742134527
554+746458261+751040935+755762391+760186515+764252191+768399373+772875950
540+777362539+781638854+785770056+789808703+793818192+797895593+802069027
527+806133822+809957991+813815935+818004103+822272843+826174367+829710906
513+833147315+836673945+840263403+843567566+846318675+848694941+850783889
500+852557347+854070672+855000903+855115561+854485982+853319224+852198380
486+851449941+851190171+852238018+855354682+859724590+863631043+866086999
473+866575254+865002784+862755495+862235229+865613842+873923459+886660106
459+902175618+917732219+930684277+941080871+949876200+957079501+963105408
446+968904283+974960177+980743279+985667539+990166995+994509147+998361643
432+1002280444+1007022704+1011944370+1016424111+1021277397+1027101382
420+1032877948+1037276650+1040067240+1041942334+1044110867+1048011613
409+1054222425+1060872671+1065104627+1067380971+1070287049+1073741823
##END=
