##TITLE=1
##JCAMP-DX=4.24
##DATA TYPE=INFRARED SPECTRUM
##DATE=16/11/2015
##SAMPLING PROCEDURE=Instrument type and / or accessory
##ORIGIN=Default
##XUNITS=1/CM
##YUNITS=TRANSMITTANCE
##RESOLUTION=4
##FIRSTX=3996.3359
##LASTX=399.24785
##DELTAX=-1.9287336
##MAXY=0.61797249
##MINY=0.005882699
##XFACTOR=1
##YFACTOR=5.7553173e-010
##NPOINTS=1866
##FIRSTY=0.022636574
##XYDATA=(X++(Y..Y))
3996+39331582+39366412+39270767+39167533+39131554+39126185+39170096+39266935
3981+39379484+39438959+39372646+39276007+39318462+39503134+39687621+39746905
3965+39678145+39588571+39594982+39690822+39766566+39784489+39816646+39898074
3950+39967954+39971889+39929690+39924175+39994104+40057003+40042468+39996301
3935+40003460+40073292+40146421+40188776+40208314+40209783+40190404+40190925
3919+40255504+40344970+40364926+40267045+40164034+40205971+40325316+40381228
3904+40388691+40383419+40344841+40296434+40278158+40327151+40454914+40535947
3888+40460995+40390733+40468630+40560164+40559737+40498217+40437764+40442800
3873+40506605+40610063+40718437+40748963+40727395+40727696+40744862+40749976
3857+40728657+40720977+40770792+40778022+40672283+40546313+40491873+40530768
3842+40609015+40696973+40818053+40904876+40922113+40949056+40965396+40903384
3827+40839255+40858573+40958448+41071126+41056277+40927333+40831478+40789123
3811+40732505+40668007+40696442+40811684+40923575+41024755+41041746+40985245
3796+41013039+41092638+41108102+41104787+41151249+41206374+41190196+41127581
3780+41133374+41188141+41177415+41126109+41110888+41137064+41175694+41209731
3765+41238531+41219582+41129724+41036959+41003883+41038079+41143459+41301194
3749+41368446+41228939+41093314+41173337+41247257+41114099+40934579+40899960
3734+40974102+41021687+41000595+40944994+40900665+40893927+40899066+40884496
3719+40884820+40930734+40969555+40958315+40925233+40917035+40933133+40915996
3703+40848300+40752319+40614190+40436220+40263854+40103186+39909265+39695259
3688+39519571+39380413+39273557+39222642+39211745+39217189+39250427+39238400
3672+39132234+39100083+39188754+39216231+39119848+38957333+38773784+38616237
3657+38542599+38524093+38441060+38271137+38096181+37939022+37751845+37537477
3641+37349659+37200083+37059818+36915417+36742169+36515755+36301930+36159328
3626+36025338+35868596+35660794+35327553+34937422+34669375+34553098+34448892
3611+34252330+34002329+33758004+33507177+33233492+32965668+32731512+32509635
3595+32269786+32021047+31768563+31505279+31253792+31012778+30740902+30438643
3580+30147931+29889256+29657702+29457279+29276067+29055792+28751047+28430654
3564+28186500+27955756+27657849+27341152+27068305+26817587+26527239+26193735
3549+25894763+25666358+25464538+25277696+25115132+24908893+24599854+24270380
3533+24009086+23771636+23501086+23183532+22818970+22450130+22168231+22020380
3518+21889013+21648473+21354211+21092906+20872447+20692861+20519803+20282366
3503+20010688+19764085+19488379+19186896+18976149+18859034+18704894+18448472
3487+18134197+17825399+17565780+17372014+17218347+17064873+16931349+16814336
3472+16593497+16252193+15943820+15728697+15559217+15407537+15241542+15037563
3456+14822576+14655761+14537343+14388349+14212870+14064374+13904752+13740623
3441+13652388+13597714+13457909+13247417+13055545+12920025+12858731+12811033
3425+12677595+12500807+12359009+12215992+12044637+11924228+11904529+11903147
3410+11826422+11662161+11445996+11257710+11185199+11212145+11227785+11158877
3395+11010257+10842423+10733890+10722431+10773624+10787906+10713876+10604877
3379+10509501+10448165+10433498+10395403+10284829+10221329+10281154+10369538
3364+10425577+10466965+10476298+10438569+10411807+10430657+10456048+10472869
3348+10487409+10498047+10522295+10559719+10586331+10642400+10787234+10944265
3333+10998802+10981922+10988675+11038427+11096601+11172132+11316386+11496213
3317+11589185+11586470+11598557+11652365+11729417+11865756+12062129+12246497
3302+12372402+12473330+12575657+12651373+12707676+12806667+12966802+13136168
3287+13282547+13405417+13518298+13686015+13915024+14135852+14359403+14609257
3271+14861394+15086557+15234311+15349874+15528709+15721650+15879731+16075957
3256+16318642+16538569+16768334+17052557+17306746+17475370+17636717+17863090
3240+18140061+18422069+18671745+18907905+19193008+19515985+19826146+20134039
3225+20479666+20854690+21191963+21478182+21761566+22039508+22299326+22554192
3209+22797228+23055646+23382955+23761354+24143325+24495894+24786530+25030792
3194+25308934+25686258+26119708+26523512+26875102+27183686+27480896+27790732
3179+28087852+28369700+28685736+29069381+29467405+29793964+30081319+30423678
3163+30798636+31109061+31334595+31566903+31897883+32289871+32654758+32982649
3148+33281436+33549205+33817133+34086893+34324764+34547984+34809028+35110071
3132+35393323+35623799+35833792+36074881+36362101+36656638+36912287+37138679
3117+37378447+37642455+37904331+38129127+38316081+38507348+38738789+39025423
3101+39328084+39567298+39729865+39857318+39983505+40127702+40297748+40474365
3086+40619944+40762212+40941107+41110461+41266659+41467509+41655032+41735851
3071+41752794+41790876+41885741+42043020+42216931+42318854+42320353+42318408
3055+42394683+42483868+42504306+42488525+42500238+42528029+42528365+42514659
3040+42522828+42525890+42467997+42348399+42228559+42153527+42079879+41957385
3024+41810602+41657789+41463564+41199517+40893331+40598053+40316125+39993194
3009+39589513+39112776+38587941+38023217+37402348+36705630+35922097+34997286
2993+33863413+32517088+31009921+29338299+27436914+25272821+22926085+20595815
2978+18479766+16701274+15328043+14335522+13547479+12745517+11976820+11598567
2963+11866758+12721010+13997961+15482396+16859346+17887738+18456690+18532836
2947+18134034+17310620+16262878+15311855+14700870+14566991+14913431+15580211
2932+16408090+17313934+18236572+19168625+20157332+21234146+22353694+23423625
2916+24391535+25219001+25863279+26324039+26620274+26778181+26871874+26961169
2901+27023222+27008155+26861073+26547923+26047009+25290847+24254918+22961072
2885+21446391+19894856+18610864+17893225+17975622+18862087+20276768+21889490
2870+23505504+25085063+26619253+28049844+29355569+30560593+31689802+32769808
2855+33859190+35053525+36353531+37653372+38878921+40008544+41036577+41957508
2839+42767308+43461368+44070936+44679610+45302314+45901826+46506779+47128512
2824+47732150+48331381+48940884+49486915+49914128+50319948+50805763+51328223
2808+51812436+52248507+52669302+53095590+53500504+53865022+54232203+54622360
2793+54978596+55253553+55458818+55651241+55863554+56064049+56235357+56384322
2777+56513001+56645673+56817927+57021897+57180111+57237726+57257752+57325244
2762+57442084+57573365+57688315+57789407+57902836+58002290+58061180+58089848
2747+58078669+58031599+57984173+57973143+58022000+58135254+58326117+58604595
2731+58919820+59176233+59328595+59437519+59583027+59763404+59961523+60195074
2716+60464180+60750083+61022179+61280889+61573304+61885253+62154922+62358536
2700+62509378+62642342+62761900+62878074+63034475+63160423+63171673+63170177
2685+63217985+63209092+63112175+63008164+62962744+63026054+63204826+63456261
2669+63745374+64013322+64211453+64383675+64586240+64794644+64968238+65137501
2654+65336332+65543849+65745295+65925167+66066649+66193399+66331917+66501303
2639+66707377+66902596+67060868+67226209+67403803+67547421+67657665+67763599
2623+67858826+67919392+67947626+67973828+68026432+68095303+68126191+68109310
2608+68121964+68204078+68295739+68351560+68400766+68455053+68469339+68446470
2592+68449370+68490149+68542617+68600108+68640835+68640997+68631352+68673348
2577+68796026+68954027+69058575+69098143+69154651+69278501+69439977+69584968
2561+69706009+69820279+69911856+69974299+70021505+70079106+70169479+70250415
2546+70296300+70358018+70471162+70628127+70781021+70876287+70940698+71029556
2530+71127716+71217720+71343641+71518199+71689372+71835113+71989819+72162798
2515+72329349+72493311+72672516+72876739+73079356+73223356+73339750+73506812
2500+73710879+73884984+74008420+74120218+74250081+74389570+74518411+74625367
2484+74742938+74887715+75001798+75067218+75138276+75243109+75381452+75526022
2469+75633936+75720937+75814145+75908110+76028704+76197754+76367263+76501295
2453+76632569+76787016+76962034+77131407+77257070+77355035+77459765+77585757
2438+77735816+77880949+78018340+78180761+78356756+78516847+78676466+78842998
2422+78972667+79053117+79132059+79235436+79330689+79378996+79388407+79428377
2407+79571678+79759835+79869380+79904288+79954743+80053207+80185757+80318481
2392+80443891+80572428+80690213+80783162+80875846+80984336+81087065+81183050
2376+81304583+81454040+81583269+81686730+81806101+81863527+81767957+81657466
2361+81716226+81933368+82170725+82307748+82327082+82246282+82162091+82293475
2345+82648339+82914234+82951847+82933627+82952288+83029527+83193580+83458880
2330+83768965+83984107+84048187+84073761+84179222+84342997+84467798+84531795
2314+84602969+84724386+84876088+85031325+85200381+85390241+85570689+85723026
2299+85859834+85993840+86125406+86253664+86375132+86487008+86590081+86682965
2284+86768464+86859115+86970007+87092524+87188088+87240064+87283024+87354115
2268+87450501+87557405+87665675+87761291+87844564+87926101+88017290+88132421
2253+88260530+88361959+88409780+88452681+88518639+88621860+88749160+88871062
2237+88988304+89106458+89227958+89374781+89539778+89693170+89815972+89904124
2222+89998167+90135416+90280530+90391693+90473936+90549364+90632319+90688166
2206+90687642+90703642+90819861+91013540+91200538+91337586+91465948+91648590
2191+91863124+92045113+92215606+92423648+92636563+92804558+92937056+93057139
2176+93180231+93335378+93524214+93710106+93856572+93954848+94051668+94195565
2160+94350238+94475137+94620464+94803592+94970492+95119677+95276364+95439678
2145+95597148+95727484+95840835+95977553+96137651+96273139+96376464+96499693
2129+96654729+96804289+96938975+97071227+97210631+97367026+97541442+97723469
2114+97877631+97984031+98093104+98239784+98391111+98539616+98721740+98932397
2098+99132956+99304854+99452122+99584471+99725170+99877222+100034109+100178135
2083+100276638+100346706+100429285+100513516+100582140+100637508+100670888
2070+100702391+100779379+100901565+101042394+101212906+101436683+101688189
2056+101915352+102120649+102347313+102613661+102886521+103087773+103199622
2043+103306579+103452009+103610469+103784192+103967844+104128033+104294959
2029+104539326+104842401+105113416+105327432+105535726+105780760+106068572
2016+106364818+106614305+106814495+107023838+107262541+107480441+107656669
2002+107859526+108121479+108351910+108498654+108637042+108816869+109001162
1989+109180225+109374875+109562520+109725039+109889344+110091580+110313803
1975+110500413+110646167+110772866+110893298+111028722+111200367+111405062
1962+111600553+111757544+111909447+112080302+112227403+112325349+112397365
1948+112450377+112472190+112486418+112540931+112609310+112672044+112810134
1935+113052566+113332734+113608591+113891956+114172667+114458363+114800851
1921+115149371+115449514+115736983+116011338+116274806+116549343+116825989
1908+117091684+117337080+117555200+117754238+117942363+118114590+118297822
1894+118503734+118691082+118883634+119110065+119314890+119478949+119646490
1881+119856480+120091196+120311077+120509791+120676141+120840459+121067537
1867+121313930+121526587+121742959+121966736+122189231+122421501+122637264
1854+122829829+123024958+123217860+123368973+123516151+123729248+123910318
1840+124014698+124172659+124423518+124676811+124900666+125169183+125456665
1827+125697543+125967976+126274073+126540506+126774316+127008255+127236161
1813+127455653+127698706+127962537+128206638+128416305+128623615+128871147
1800+129129734+129340566+129516858+129732700+130004828+130230314+130384599
1786+130571870+130816230+131085563+131378702+131636137+131805167+131978444
1773+132253718+132534805+132739384+132908000+133044096+133224713+133482537
1759+133714456+133950933+134199876+134383043+134566688+134807424+135043305
1746+135252687+135442818+135641416+135870992+136023271+136130447+136409877
1732+136754747+136982977+137185433+137410919+137653842+137860168+137984381
1719+138162033+138452544+138692658+138841675+138984697+139150142+139360831
1705+139563739+139680029+139846276+140049638+140103233+140172323+140311760
1691+140421292+140519950+140519782+140468013+140524222+140562826+140507509
1678+140482796+140568263+140668915+140660837+140689705+140858787+140983518
1664+141062434+141257472+141506272+141644634+141632453+141666254+141935223
1651+142088577+141967484+141983252+142195675+142348951+142470445+142655256
1637+142966713+143456107+143909771+144194301+144529164+145012914+145555993
1624+146172085+146811350+147326972+147883268+148667212+149450341+150107186
1610+150757623+151398311+151986842+152562221+153137949+153678335+154185335
1597+154691571+155198636+155693299+156176660+156632603+157028879+157376001
1583+157717104+158043940+158303227+158579175+158951269+159206309+159306353
1570+159493468+159748858+159937332+160049311+160056444+160130092+160440189
1556+160667591+160688459+160702596+160775376+160865128+160920949+160978427
1543+161071726+161207097+161349745+161289431+161087752+161000124+160963488
1529+160849645+160755310+160684550+160530019+160319796+160053765+159705762
1516+159376582+159105994+158821360+158408306+157883144+157412119+156911502
1502+156210784+155363485+154382923+153202236+151776542+150032619+147811912
1489+144986932+141634679+137983216+134292217+130840179+127873355+125427084
1475+123174893+120525300+117296172+114185030+111980078+110785889+109945437
1462+108697822+107369025+107641801+110922672+116348920+122245117+127727510
1448+132260152+135397560+137043032+137636223+137845333+138306700+139407020
1435+140825090+141981789+142871589+143684958+144425160+145111132+145773932
1421+146459541+147345406+148417221+149437849+150428210+151544687+152776496
1408+153981145+155089362+156088319+156891863+157472355+157789962+157666733
1394+156963465+155651290+153779919+151512802+149320445+148040492+148511037
1381+151163557+155578692+160462404+164510701+167114364+168435380+169180151
1367+169950710+170853909+171790119+172642869+173253433+173574755+173707680
1354+173735759+173657982+173496991+173476550+174020160+175346782+177182566
1340+179119170+180984728+182783773+184586585+186477413+188507743+190683063
1327+192955074+195254801+197521698+199716229+201834744+203855844+205728574
1313+207424559+208902903+210089739+210949415+211484105+211738952+211847319
1300+211963363+212180693+212535350+213063049+213812248+214775605+215873336
1286+217014008+218130563+219150026+219988976+220594233+221003183+221385672
1273+221964054+222886425+224134999+225542362+226944004+228260283+229440840
1259+230430528+231182199+231648835+231768089+231435388+230533367+229034608
1246+227048604+224780438+222457280+220369757+218951519+218681241+219891962
1232+222621973+226584247+231280611+236144776+240652057+244489432+247667049
1219+250344735+252634157+254605973+256328121+257834518+259151107+260369310
1205+261551007+262647832+263646815+264634329+265601491+266500431+267332779
1192+268123338+268908875+269706295+270444788+271083962+271688960+272345921
1178+273036230+273649953+274168785+274654684+275121216+275551578+275956282
1165+276339523+276649465+276859960+277011604+277142769+277226320+277165139
1151+276886602+276355756+275507460+274296377+272758522+271016930+269276891
1138+267760733+266604539+265811701+265290410+264942045+264743382+264716766
1124+264819295+264888502+264687587+263986222+262521070+259910779+255673956
1111+249314398+240484594+229282127+216782387+205394747+198119485+196870872
1097+201357234+209481984+218742810+227328021+234170863+238605494+240196244
1084+238484272+232711872+221792603+204613845+181048472+153841216+129355816
1070+114628131+112334592+118148689+123287882+120965682+111038560+98809815
1057+90759431+91719778+104234141+128203557+160464281+195888227+229530682
1043+258096303+280366136+296623377+307684918+314459744+317762907+317906473
1030+314407288+305915519+290188890+264989218+231179946+196229562+172552444
1016+169292273+185475802+211960826+239564087+264310120+285989117+304791715
1003+320303369+332175354+340547248+345893272+348748571+349516527+348439275
989+345634801+340995604+334086067+324126193+309830334+289316696+260630655
976+223658887+182783385+146647873+124161604+121046630+138794877+173955354
962+218664645+264215540+304552118+337006611+361485189+379265942+392012865
949+401248539+408059923+413229784+417355094+420706544+423426225+425727194
935+427739116+429499168+431002743+432191896+433066110+433628698+433791165
922+433526506+432847718+431590213+429532464+426661191+423221711+419676647
908+416660254+415064998+415822132+418961664+423068979+426070588+426405516
895+423368928+417023428+408692339+401869900+401428637+409741344+423941743
881+438641607+450336212+458339882+463365038+466356860+467896502+468147231
868+466913623+463616700+457790214+450103606+443473305+442278533+448485204
854+459310333+470202986+478689163+484695126+488975395+492083572+494361007
841+496146406+497664869+499002611+500184127+501198489+502053828+502777433
827+503423416+504127655+504934733+505675012+506280501+506844151+507372434
814+507851626+508282299+508604799+508820783+509035834+509279056+509516063
800+509802574+510127767+510338779+510408167+510466267+510531461+510503188
787+510379066+510202954+509940522+509492347+508692829+507551186+506238247
773+504738426+503272005+502552594+502898914+503654676+503730071+502419255
760+499652116+496137293+493734441+494583825+498948292+504768253+509791182
746+513258624+515527411+517098329+518319406+519324966+520058720+520489859
733+520738310+521033624+521464401+521921223+522311869+522562495+523016366
719+523472930+523878281+524424481+525115566+525792257+526410226+527046215
706+527723527+528340978+528846528+529404637+530174173+531098020+532066607
692+533046275+534013982+534955435+535910247+536952883+538125233+539302605
679+540329913+541190534+541852415+542650638+544868575+548362996+549852616
665+549144079+549902430+552457780+554907442+556821935+558670872+560725332
652+562972526+565135263+567089473+569120476+571481954+574094678+576719831
638+579217858+581703716+584352119+587141473+589984007+592898570+595921462
625+599037303+602168316+605130675+608170810+611645346+615284395+618797354
611+622233882+625697079+629355701+633274581+637217902+641006653+644706080
598+648435851+652356492+656509427+660712954+664800075+668863272+673132717
584+677610379+682039314+686271632+690415506+694553891+698761457+703096873
571+707499451+711887581+716117466+720139237+724139311+728392704+732899054
557+737353828+741680597+746147126+750809392+755327651+759580423+763786642
544+768225364+772895863+777376063+781443868+785298486+789432729+793935194
530+798101127+801791182+805665736+809831617+813915113+817950347+822067243
517+826067058+829778188+833249566+836529349+839611428+842534432+845138509
503+847239470+849029582+850811461+852504222+853671549+854154263+853991097
490+852983311+851183412+849386413+848849017+850321704+853436147+857338560
476+861109809+863503080+863697678+862311519+860782131+860676754+863845154
463+871667017+883870226+899076599+915117909+929117134+940172538+948948489
449+955958354+962224627+968671619+975094377+980647919+985113827+989157916
436+993673741+999137182+1004668975+1008970733+1012408349+1016474808+1021837998
422+1027524724+1032138107+1035840952+1039080759+1041895020+1045637219
411+1050872715+1056316789+1060595141+1063018446+1065106824+1069062262
399+1073741823
##END=
