##TITLE=1
##JCAMP-DX=4.24
##DATA TYPE=INFRARED SPECTRUM
##DATE=16/11/2015
##SAMPLING PROCEDURE=Instrument type and / or accessory
##ORIGIN=Default
##XUNITS=1/CM
##YUNITS=TRANSMITTANCE
##RESOLUTION=4
##FIRSTX=3996.3359
##LASTX=399.24785
##DELTAX=-1.9287336
##MAXY=0.61708927
##MINY=0.0058642002
##XFACTOR=1
##YFACTOR=5.7470917e-010
##NPOINTS=1866
##FIRSTY=0.022208497
##XYDATA=(X++(Y..Y))
3996+38643018+38700712+38723370+38765082+38850440+38890610+38848762+38826567
3981+38885450+38954442+38981511+39006184+39059836+39106267+39117792+39113336
3965+39113359+39151927+39217447+39232888+39216187+39241953+39282990+39275932
3950+39231948+39188382+39156416+39190356+39335942+39501011+39559858+39522774
3935+39512918+39594018+39688076+39700920+39654768+39627842+39619389+39615143
3919+39667778+39756196+39775136+39744110+39770161+39816563+39792006+39767779
3904+39844060+39974116+40059705+40039591+39925507+39865065+40001778+40209725
3888+40255793+40168204+40080081+40033582+40046429+40058246+40043438+40090861
3873+40174586+40188030+40096432+39972745+39995179+40184772+40323705+40309967
3857+40274345+40384792+40627632+40727096+40563820+40349293+40278535+40353283
3842+40411920+40320565+40174654+40122707+40128716+40155820+40251281+40364238
3827+40388967+40330392+40312702+40371378+40372739+40360134+40449668+40512612
3811+40463893+40408241+40425068+40456315+40489036+40603901+40695609+40646093
3796+40566040+40536141+40520912+40496137+40473804+40487186+40550590+40633414
3780+40674899+40620959+40529044+40512106+40554518+40584271+40588452+40575918
3765+40581331+40627162+40691717+40753818+40776570+40752930+40773407+40880176
3749+40886094+40669211+40503987+40573860+40613505+40511202+40463439+40555280
3734+40665727+40672822+40593809+40530476+40550817+40619776+40653385+40650725
3719+40658545+40643403+40557140+40475035+40457686+40433019+40374661+40303618
3703+40208795+40106366+40036706+39984714+39877955+39673122+39417742+39202733
3688+39026026+38826807+38671899+38663550+38733391+38756973+38774105+38829024
3672+38873520+38913637+38879376+38707777+38507193+38363516+38260241+38165061
3657+38063848+37918591+37723125+37587113+37551231+37499012+37378294+37214544
3641+37033971+36866851+36704381+36528167+36333482+36123136+35972948+35867673
3626+35650064+35365791+35149119+34975643+34779730+34564312+34344169+34105441
3611+33848464+33613649+33411195+33195758+32934862+32619971+32296867+32077540
3595+31960789+31783080+31454464+31095248+30849264+30637758+30314184+29939950
3580+29671305+29511561+29319408+29012438+28627119+28262339+28018734+27859622
3564+27623760+27302238+27008778+26761650+26562782+26408040+26225959+26004980
3549+25765329+25490861+25191068+24899308+24643232+24421129+24189066+23910184
3533+23614494+23368924+23168466+22927720+22643946+22391608+22155428+21894121
3518+21633515+21389025+21119361+20812747+20528066+20263217+19949950+19636828
3503+19458360+19372392+19209394+18979042+18785572+18608667+18402138+18187942
3487+17971667+17728448+17463353+17204704+16988662+16848953+16785571+16711746
3472+16494043+16147654+15840201+15646166+15485946+15309673+15129266+14937210
3456+14760078+14596713+14384802+14186325+14109093+14096095+14038944+13915178
3441+13719216+13458731+13234353+13146867+13118674+12994415+12791660+12626223
3425+12515859+12429322+12345896+12219755+12021998+11816426+11698725+11677320
3410+11684953+11642140+11502854+11294677+11094706+10982619+10993950+11047400
3395+11007518+10872708+10746574+10684602+10697037+10742455+10750178+10682371
3379+10556742+10450077+10404934+10378483+10312505+10222843+10203770+10281559
3364+10354656+10345333+10300803+10286771+10287247+10277832+10281248+10298153
3348+10311155+10359034+10451309+10501408+10484353+10487126+10578030+10739769
3333+10884975+10967481+11021910+11061213+11091927+11143925+11206693+11242392
3317+11270847+11370718+11537062+11664739+11720901+11776632+11876935+12007176
3302+12164197+12337401+12502740+12640666+12716479+12798719+12992063+13209410
3287+13319414+13346530+13405829+13576694+13807417+13988044+14104687+14229617
3271+14416472+14649187+14900831+15161014+15383572+15561870+15749073+15942027
3256+16123406+16322914+16556830+16791008+16990532+17190851+17419327+17643789
3240+17915001+18292271+18637697+18841653+19033277+19307198+19606983+19904657
3225+20208123+20500902+20778874+21046670+21313783+21641036+22043473+22419591
3209+22724637+23024755+23347975+23642066+23885766+24141471+24453674+24794952
3194+25129656+25456963+25783858+26107490+26424533+26727066+27015637+27297007
3179+27599183+27962295+28347723+28681419+28983609+29328920+29695486+29993923
3163+30246411+30546686+30899834+31241639+31545102+31825985+32078927+32303718
3148+32543288+32837758+33174834+33498262+33768317+33981848+34185209+34459218
3132+34820323+35198444+35507410+35721797+35875704+36003776+36162768+36389941
3117+36651605+36927678+37199104+37416930+37599127+37808880+38041679+38269909
3101+38512703+38766365+38990877+39175557+39338350+39504803+39670714+39813533
3086+39952907+40101601+40244877+40387868+40521580+40636846+40756246+40876604
3071+40996311+41145865+41295996+41389866+41461505+41566582+41675451+41731767
3055+41736866+41744722+41806129+41892733+41923046+41899588+41884860+41883966
3040+41883214+41866921+41796368+41701590+41646814+41608103+41518780+41335821
3024+41097276+40912687+40775063+40571031+40289814+40000776+39723319+39435727
3009+39108312+38688885+38159516+37589093+36994570+36281418+35409917+34403745
2993+33273734+32054234+30697857+29072419+27147056+24983852+22666382+20360070
2978+18273970+16544981+15213561+14214789+13404887+12659088+12002192+11650754
2963+11833239+12630633+13912156+15363803+16709843+17757755+18326079+18343244
2947+17884527+17103063+16142909+15188514+14568748+14505255+14871440+15462171
2932+16242852+17181349+18176347+19195015+20212910+21172259+22091116+23015759
2916+23931610+24762845+25426848+25921100+26283946+26531323+26674089+26752897
2901+26832865+26861585+26686111+26284210+25715236+24947510+23938131+22697886
2885+21242126+19699847+18436107+17850228+18072358+18952963+20231348+21675814
2870+23185932+24733888+26259606+27700964+29023172+30225546+31336656+32420126
2855+33568129+34781846+35988641+37182896+38346507+39399363+40327773+41162881
2839+41932977+42675362+43378252+44031454+44671005+45302573+45888077+46413165
2824+46940998+47502553+48041059+48533509+48988309+49422619+49887984+50386049
2808+50845739+51266064+51721064+52187221+52596380+52969759+53328670+53653893
2793+53949066+54223915+54467555+54672589+54847442+55004631+55157420+55315199
2777+55488263+55672269+55824053+55926903+56016414+56105581+56187255+56281439
2762+56409861+56544869+56638599+56703199+56791381+56893370+56965716+57038003
2747+57109909+57098656+57010520+56950528+56989232+57119178+57328859+57619158
2731+57911180+58128368+58276054+58364508+58441048+58588858+58818653+59093051
2716+59407910+59768597+60122730+60373728+60530801+60727071+60974756+61160830
2700+61290646+61431818+61576815+61723977+61861286+61933191+61968240+62007365
2685+61989883+61918049+61879235+61897404+61952035+62020245+62094717+62235060
2669+62489040+62793404+63068353+63283233+63431244+63568572+63755391+63975359
2654+64185099+64365553+64542260+64729500+64912423+65095139+65267250+65426307
2639+65597348+65755608+65873704+66002541+66163983+66284983+66345681+66434757
2623+66590125+66731350+66789902+66803398+66842005+66900810+66950151+67010823
2608+67066082+67088575+67119961+67148703+67147840+67180153+67254366+67300039
2592+67308796+67323608+67360011+67387858+67389802+67421486+67505747+67587965
2577+67651424+67717320+67803350+67912832+68015462+68092067+68166196+68265137
2561+68386754+68514074+68616737+68668975+68697263+68748769+68839719+68948027
2546+69041926+69123678+69217259+69331771+69459337+69595020+69724894+69835802
2530+69964529+70131927+70283095+70389563+70500295+70657783+70835028+70979759
2515+71101868+71250300+71430495+71608006+71757151+71890603+72045187+72224863
2500+72383167+72514882+72667774+72826384+72960523+73076966+73165531+73252306
2484+73368684+73473661+73535402+73600022+73714715+73854779+73986741+74108999
2469+74240364+74405040+74571233+74672612+74730886+74837503+74986959+75132436
2453+75301196+75472464+75598773+75709889+75837332+75972586+76098046+76226248
2438+76390438+76565337+76698938+76808342+76932110+77083051+77260517+77417933
2422+77531285+77638212+77719381+77754786+77820507+77943919+78061490+78144447
2407+78207206+78273725+78367267+78468964+78557859+78653365+78761103+78859929
2392+78955409+79073110+79203840+79310243+79386193+79457826+79513721+79535008
2376+79593139+79769949+79983507+80102699+80118152+80051296+79981841+79995894
2361+80068260+80272392+80653945+81032878+81162124+80903089+80528880+80548618
2345+80989578+81317764+81243921+81041098+80995924+81190431+81552965+81988040
2330+82383380+82615359+82657188+82624933+82708921+82945250+83163429+83255539
2314+83304297+83388479+83499595+83620193+83753204+83896075+84046627+84205055
2299+84354323+84475914+84569248+84657365+84772104+84905887+85017132+85106351
2284+85221653+85368439+85489252+85562661+85634125+85724576+85809588+85885531
2268+85960503+86016196+86064481+86168473+86329752+86467133+86547264+86604351
2253+86670079+86751701+86819361+86874866+86952366+87086395+87207389+87249580
2237+87293619+87443769+87651895+87807730+87897383+87990245+88121525+88264993
2222+88398743+88512542+88610952+88710970+88823025+88945912+89034833+89070562
2206+89120156+89222060+89342030+89466984+89615883+89784189+89942740+90074267
2191+90218214+90406427+90595800+90774205+90964252+91140142+91284556+91423492
2176+91584026+91758451+91916736+92057831+92199217+92327588+92421649+92508093
2160+92616810+92739217+92893159+93101350+93309021+93460072+93593356+93755641
2145+93919371+94057224+94178464+94292496+94407708+94530627+94666763+94812551
2129+94946703+95065571+95184692+95311590+95455155+95620045+95793077+95955711
2114+96107119+96274278+96452391+96602917+96736201+96876285+97034758+97222951
2098+97405317+97558624+97713214+97876296+98032318+98167437+98289999+98412523
2083+98529880+98645915+98754561+98843067+98916968+98967801+98996762+99036983
2068+99105187+99198108+99315659+99471209+99679360+99909836+100129940+100358089
2052+100583807+100773231+100969067+101218885+101472411+101652080+101745279
2039+101811059+101919561+102084607+102288792+102512286+102720664+102920953
2025+103178303+103496863+103791842+104040499+104297052+104552412+104762152
2012+104958188+105182389+105390411+105552054+105725111+105942739+106177882
1998+106402200+106591741+106757150+106927991+107081421+107233587+107438504
1985+107635506+107769062+107906183+108101837+108329785+108545721+108735982
1971+108910492+109098989+109309241+109489416+109609476+109716975+109860850
1958+110023199+110170951+110297532+110385701+110431672+110478589+110531132
1944+110550319+110555246+110582716+110671715+110870014+111146641+111445593
1931+111760037+112080976+112371553+112651720+112961108+113240614+113507946
1917+113840579+114152936+114385278+114615585+114883773+115135315+115327028
1904+115499529+115700952+115927823+116155848+116374890+116581991+116785099
1890+117029654+117287769+117470511+117595731+117713613+117843462+118009363
1877+118218422+118443647+118615447+118755952+118986078+119268656+119486945
1863+119665746+119857472+120065882+120280983+120493658+120720984+120955167
1850+121124063+121192954+121297341+121547769+121773888+121899834+122093609
1836+122390849+122670666+122923362+123231661+123514330+123712668+123950909
1823+124198717+124377272+124582519+124866860+125142010+125352871+125562630
1809+125811061+126048187+126241352+126436215+126706348+127035986+127300557
1796+127456087+127664977+128012726+128289808+128410763+128567447+128828090
1782+129084338+129297558+129468528+129592906+129775427+130102576+130420961
1769+130620362+130778316+130923449+131120400+131384608+131609314+131819112
1755+132010618+132135177+132310723+132592679+132877617+133111580+133292961
1742+133474497+133696857+133855148+134040638+134489053+134943859+135131618
1728+135230664+135378636+135562350+135713693+135830862+136064112+136402021
1715+136628776+136732800+136834412+136971624+137165217+137345703+137439511
1701+137641362+137957427+138127801+138222231+138254460+138187941+138140648
1688+138108925+138196446+138482809+138635345+138541355+138446160+138510617
1674+138623949+138634839+138684414+138830947+138873249+138877631+139036661
1661+139248157+139332268+139295528+139423354+139885394+140120796+139941943
1647+139919956+140157627+140301930+140346916+140446441+140742411+141304430
1634+141818327+142084972+142398586+142917617+143502245+144106709+144666420
1620+145079314+145618697+146498466+147345644+147955073+148534412+149158866
1607+149768373+150354285+150912311+151424431+151918181+152436952+152959522
1593+153429846+153851672+154268519+154682579+155068675+155426795+155743236
1580+155984860+156283838+156721597+156989772+157047073+157238747+157544272
1566+157741974+157809271+157803942+158012638+158496341+158682856+158550946
1553+158503394+158606251+158734958+158795695+158802800+158843585+159034131
1539+159275613+159203053+158927125+158815323+158813352+158744539+158668764
1526+158570703+158375853+158181898+158001671+157756455+157492286+157221284
1512+156889443+156460824+156020486+155666281+155181294+154417580+153515565
1499+152529179+151373469+149979233+148290804+146170242+143462212+140198969
1485+136596897+132933415+129528487+126649980+124293575+122097692+119518720
1472+116395204+113337870+111134727+109977605+109183852+107930154+106590529
1458+106883984+110172610+115554198+121344803+126674871+131058354+134092806
1445+135676110+136220174+136396589+136881628+138054165+139502824+140621028
1431+141454930+142205162+142877830+143541915+144250753+145024968+146000192
1418+147094205+148067627+149013020+150084294+151212209+152288202+153335079
1404+154357465+155230701+155876597+156196836+156046634+155388849+154171651
1391+152330401+150030675+147836438+146603294+147119524+149762992+154076404
1377+158806054+162732954+165296123+166655939+167452427+168227316+169128009
1364+170100432+170963374+171508864+171759641+171874023+171915055+171870536
1350+171766007+171754456+172207356+173454333+175338806+177389919+179301085
1337+181036017+182722891+184518016+186487598+188584863+190741154+192971794
1323+195271662+197529203+199658464+201641256+203467728+205102849+206499950
1310+207648867+208521052+209065142+209338386+209476246+209594426+209808450
1296+210193510+210762322+211515030+212438709+213481229+214553955+215604902
1283+216608893+217474272+218102641+218517933+218898092+219485728+220417586
1269+221634863+222992462+224379749+225705612+226891723+227890009+228666480
1256+229168528+229291972+228927448+228029321+226599486+224696669+222485618
1242+220228207+218229948+216837515+216515253+217702336+220453964+224407311
1229+229009251+233690402+238032775+241821789+245009218+247669190+249911692
1215+251849901+253547963+255007927+256293627+257503644+258675234+259809281
1202+260868369+261839639+262742976+263627801+264499999+265331671+266111021
1188+266857882+267559161+268205732+268859796+269558457+270221907+270781826
1175+271283640+271810604+272366997+272854836+273227061+273520697+273757551
1161+273996842+274292398+274558369+274661330+274542838+274185107+273589692
1148+272751590+271632763+270226704+268615527+266983789+265559165+264459811
1134+263651811+263104441+262837822+262794366+262849360+262895797+262820605
1121+262497436+261790064+260420952+257928088+253819094+247619122+238963675
1107+227972565+215754248+204643700+197533066+196335962+200792795+208812225
1094+217935793+226358121+232995760+237273520+238825737+237169574+231563073
1080+220888183+203934590+180641675+153841326+129749357+115227775+112959034
1067+118711019+123790465+121457409+111564655+99404075+91442517+92494358
1053+105047705+128912927+160873553+195764414+228718155+256673968+278505571
1040+294427390+305271487+312004413+315380054+315604696+312206782+303898539
1026+288457402+263685517+230464600+196120642+172846149+169703576+185725491
1013+211785318+238880782+263243986+284623584+303098162+318271098+329840406
999+337979702+343217141+346089672+346922278+345907319+343178353+338681707
986+332011969+322326368+308352688+288267296+260028659+223501873+183119904
972+147433112+125252101+122310122+140048871+174873628+218927390+263677609
959+303280126+335222421+359338712+376778652+389231722+398241634+404884874
945+409958940+414057926+417452806+420264639+422638156+424646890+426279665
932+427575010+428646337+429544800+430197386+430501420+430350985+429658651
918+428380755+426407880+423701678+420483213+417104201+414158268+412611678
905+413326933+416314351+420317403+423340550+423777803+420912558+414796308
891+406689449+400010506+399549296+407736610+421822144+436334456+447709822
878+455449590+460382789+463326000+464848606+465195577+464087925+460917946
864+455250565+447741973+441309866+440246396+446424666+457083117+467710610
851+475931761+481788677+485995783+489083829+491455427+493340199+494819660
837+496032477+497131728+498165743+499123271+499992021+500746842+501414129
824+502078668+502750467+503405465+504019859+504519132+504920085+505356197
810+505831046+506215405+506532870+506909762+507336799+507769125+508145862
797+508319062+508288830+508244181+508306046+508392905+508353391+508187451
783+507950208+507590377+506996310+506115323+504926516+503383011+501840648
770+501082145+501424552+502242068+502440937+501215934+498444834+494960087
756+492702936+493687740+498059697+503781994+508704303+512169604+514525594
743+516110168+517134746+517873232+518531964+519128934+519621984+520094447
729+520615759+521105335+521510541+521816960+522474913+523054564+523442553
716+523997209+524766394+525545484+526260220+526906454+527423980+527869219
702+528459448+529276600+530166403+530996261+531789352+532603963+533466334
689+534395600+535419660+536552306+537764552+538985769+540117171+540976275
675+541233587+541403053+544206511+549760638+551555438+548786257+548521738
662+551759441+555034689+557160851+558836797+560694862+562922040+565320863
648+567542545+569552860+571711951+574285323+577110405+579836909+582333066
635+584772078+587367800+590177118+593177682+596308820+599484141+602646860
621+605731950+608822744+612132165+615642373+619231507+622797461+626273807
608+629749894+633279964+636824086+640548825+644595176+648831529+653143748
594+657326118+661223642+665084918+669138011+673291342+677553312+682084468
581+686705803+691072678+695177368+699230461+703227134+707153334+711348668
567+716019993+720798141+725085728+728881146+732821814+737300025+742046334
554+746602641+750991036+755460121+759922360+764167943+768303332+772558976
540+776896500+781095206+785079537+789110902+793292598+797366796+801317991
527+805374506+809492990+813516628+817590567+821711903+825647178+829370879
513+832933981+836418520+839819001+842952006+845827545+848538802+850762040
500+852347652+853625081+854558807+854966346+854752335+853686116+851950432
486+850376073+849875348+850951782+853942338+858492474+862817865+865241682
473+865496142+864197140+862481628+861950826+864471149+871665907+883912200
459+899663671+915681269+929172841+940126873+949126544+956325347+962735103
446+969057222+974990626+980289205+985166606+989670538+993964659+998795286
432+1003943481+1008307712+1012082854+1016525388+1022033570+1027648058
420+1032645766+1037112361+1040445376+1042472234+1044787931+1048863218
409+1054430205+1059843698+1063942217+1067481620+1071091237+1073741823
##END=
