##TITLE=42
##JCAMP-DX=4.24
##DATA TYPE=INFRARED SPECTRUM
##DATE=16/11/2015
##SAMPLING PROCEDURE=Instrument type and / or accessory
##ORIGIN=Default
##XUNITS=1/CM
##YUNITS=TRANSMITTANCE
##RESOLUTION=4
##FIRSTX=3996.3359
##LASTX=399.24785
##DELTAX=-1.9287336
##MAXY=1.1406969
##MINY=0.016471818
##XFACTOR=1
##YFACTOR=1.0623568e-009
##NPOINTS=1866
##FIRSTY=0.077449985
##XYDATA=(X++(Y..Y))
3996+72903932+72916829+72908673+72889316+72910966+73004067+73115620+73215426
3981+73333838+73464179+73584926+73703100+73779895+73771745+73748447+73795520
3965+73885823+73969954+74068090+74195795+74312404+74388161+74441147+74492456
3950+74552608+74648809+74775125+74872532+74921877+74958746+75002951+75052773
3935+75143861+75289148+75397250+75408184+75381365+75395882+75484137+75617200
3919+75740009+75832962+75906581+75964833+76033647+76115541+76146083+76131755
3904+76148573+76191655+76256297+76384632+76517099+76566311+76571893+76586109
3888+76558926+76496809+76490462+76567124+76686167+76747351+76700699+76670065
3873+76762317+76926596+77039691+77043808+77014423+77018596+77049215+77103982
3857+77180532+77288438+77435681+77521804+77462037+77353009+77328532+77419214
3842+77543166+77614533+77646373+77685121+77737279+77790916+77831067+77850648
3827+77856554+77852325+77860909+77907554+77973801+78065212+78159042+78168258
3811+78112762+78096849+78148207+78188898+78193779+78216060+78240782+78257466
3796+78305451+78348071+78339192+78310416+78300563+78312170+78339697+78371481
3780+78407361+78460823+78514685+78540865+78553987+78581738+78605254+78621672
3765+78664951+78703881+78709513+78716365+78703615+78614441+78512300+78532091
3749+78643055+78703390+78739032+78773025+78689911+78493343+78338666+78367392
3734+78561793+78725545+78713244+78583933+78474800+78447841+78472079+78476273
3719+78409170+78271822+78116100+78022936+77997099+77944528+77838102+77722095
3703+77609140+77451019+77195196+76877391+76558203+76235811+75925474+75705328
3688+75580906+75445459+75242383+74999437+74764233+74610447+74579034+74564594
3672+74480049+74391458+74278530+74053433+73769277+73517424+73309214+73118397
3657+72908077+72625835+72280271+71963314+71706510+71412030+71033461+70651540
3641+70335986+70047496+69696026+69268709+68841131+68470025+68133192+67764246
3626+67305509+66773848+66263304+65824814+65404159+64951593+64474411+63965319
3611+63423853+62892101+62370582+61814921+61240704+60690935+60158488+59629731
3595+59110055+58575733+57995277+57366770+56733708+56168692+55679566+55196763
3580+54655435+54044412+53406009+52787142+52189791+51595323+51014096+50468331
3564+49918397+49311659+48705261+48170231+47655920+47064373+46389849+45736287
3549+45142678+44533738+43904081+43321177+42768571+42182726+41576353+41015155
3533+40522569+40058800+39561360+38994556+38380415+37793784+37287511+36824791
3518+36340150+35812732+35264194+34744305+34279831+33826893+33318615+32770192
3503+32267773+31813416+31363456+30954418+30585110+30195384+29773982+29312790
3487+28835276+28420968+28051766+27648968+27237011+26879481+26542804+26132942
3472+25638054+25141475+24725334+24419860+24160573+23832124+23446504+23114388
3456+22829685+22521192+22194354+21889228+21617924+21356252+21078697+20773051
3441+20416055+19982059+19555458+19304603+19186836+19005571+18768046+18597517
3425+18472087+18316102+18145232+17985064+17793493+17551008+17323824+17162137
3410+17037734+16908106+16734120+16453400+16111521+15930641+15998920+16109596
3395+16048311+15847828+15748610+15836140+15944378+15950670+15852465+15684756
3379+15541491+15504978+15550974+15591052+15556429+15510161+15574567+15705122
3364+15780245+15810849+15889872+16023314+16114874+16116548+16094113+16152794
3348+16323187+16521606+16679339+16820167+16948055+17060743+17217629+17421573
3333+17623441+17799235+17934123+18083538+18320283+18593199+18836366+19082677
3317+19347999+19596685+19792923+19907716+19974302+20105132+20411077+20859622
3302+21296192+21633097+21877363+22091602+22346634+22675496+23097514+23564048
3287+23992344+24373983+24738889+25100552+25435311+25734530+26040087+26375775
3271+26785433+27309755+27867736+28371434+28829185+29276480+29748390+30257588
3256+30780093+31297706+31824314+32375567+32953263+33577604+34256417+34934350
3240+35549928+36122886+36721075+37369247+38065401+38810812+39585990+40375034
3225+41170145+41948890+42733144+43574331+44453938+45325615+46161886+46960191
3209+47782341+48661320+49544811+50423608+51329268+52244680+53186617+54190645
3194+55188270+56116833+57026782+57987868+58995010+59990177+60959458+61946441
3179+62964324+63960992+64893993+65793570+66735653+67770502+68850059+69861679
3163+70783712+71721623+72725501+73704488+74585241+75438923+76395124+77454708
3148+78494676+79444327+80320830+81156747+82001325+82910762+83851724+84737323
3132+85567896+86401961+87256120+88099758+88892249+89609481+90282270+90985664
3117+91755061+92565281+93352134+94063671+94745647+95465326+96191780+96870306
3101+97507187+98120215+98704546+99266182+99806819+100318801+100831260+101350164
3086+101832157+102286658+102749505+103213018+103689372+104194095+104666866
3072+105042216+105330545+105588660+105863342+106156706+106458438+106768655
3059+107048323+107247871+107359480+107412325+107469118+107545885+107584184
3045+107566644+107524158+107469700+107395156+107257731+107015690+106700682
3032+106371038+106027494+105619000+105104556+104498485+103821053+103048368
3018+102163211+101154529+99994445+98697070+97287812+95726079+93938077+91852405
3003+89412416+86596684+83365915+79620619+75274469+70341113+64831211+58674080
2988+51929354+44949207+38221674+32239594+27476651+24313111+22994720+23689329
2972+26493806+31332362+37891234+45587466+53626650+61244435+67866597+73125768
2957+76884088+79211424+80287881+80310317+79486918+78065766+76320755+74485085
2941+72681521+70984397+69448038+68036865+66733599+65679660+65104019+65156233
2926+65844100+67057415+68505736+69768859+70578490+70929623+70879001+70408889
2910+69521607+68297828+66849843+65331642+63957134+62906703+62233472+61908794
2895+61846916+61922035+62086243+62329280+62625647+63033404+63625099+64414785
2880+65441350+66822302+68736087+71274780+74378336+77937676+81789728+85713056
2864+89541866+93198740+96630459+99786993+102663045+105290225+107688261
2851+109873578+111858659+113654698+115310500+116861131+118309502+119715870
2837+121159507+122642053+124132973+125624048+127120803+128616829+130060620
2824+131407740+132658316+133820595+134928381+136000428+137031531+138078638
2810+139195134+140402999+141748184+143196169+144625457+145962885+147211090
2797+148412784+149574894+150631722+151528704+152278519+152946994+153592705
2783+154215482+154787568+155282269+155691001+156035633+156315405+156528679
2770+156734714+156953528+157125843+157245027+157343282+157401226+157415771
2756+157429756+157460278+157511180+157633337+157883457+158232171+158616539
2743+159022396+159434411+159822342+160163187+160462807+160799051+161221599
2729+161671205+162109842+162597250+163211681+163965929+164785680+165595655
2716+166387789+167135009+167757548+168237872+168664895+169141333+169702520
2702+170344163+171078339+171887388+172705905+173507731+174302599+175082712
2689+175827169+176531525+177221362+177897959+178540991+179162113+179781145
2675+180402786+180999221+181522523+181990293+182462425+182921920+183317902
2662+183665451+183998090+184322046+184634487+184930432+185221440+185527695
2648+185849323+186166589+186461230+186740428+187016399+187276535+187503372
2635+187700500+187892706+188092022+188303430+188555823+188860970+189201407
2621+189560767+189938304+190335577+190711460+191033186+191350087+191695181
2608+192004396+192239999+192454899+192695089+192959854+193222598+193459380
2594+193676707+193890934+194120702+194393798+194702171+194984314+195204769
2581+195408252+195647109+195897062+196114276+196308726+196487452+196631686
2567+196745259+196840653+196912820+196951056+196957045+196960482+197002070
2554+197064909+197094239+197100593+197132868+197218331+197395332+197689412
2540+198058982+198432045+198800017+199217895+199690532+200156858+200583123
2527+200988378+201381779+201738698+202069078+202419447+202775524+203075004
2513+203332741+203612906+203915795+204233594+204594692+205006160+205453522
2500+205931167+206428911+206924917+207442088+208016320+208612166+209178220
2486+209712322+210246606+210794832+211341501+211897302+212484045+213082037
2473+213667265+214256758+214853740+215440834+216030256+216614685+217177302
2459+217735389+218287950+218828896+219348873+219809742+220216497+220607079
2446+220980633+221317606+221600142+221840739+222080971+222321582+222534126
2432+222702935+222817223+222886542+222952453+223041339+223131319+223214384
2419+223317549+223466300+223704694+224056381+224473979+224919419+225411314
2405+225934026+226448126+226980881+227539669+228082846+228598082+229096683
2392+229568058+229974350+230290072+230502420+230597716+230589132+230530767
2378+230478519+230442653+230393953+230350905+230359195+230380515+230368158
2365+230408737+230697402+231255658+231858279+232472093+233326630+234611936
2351+235966266+236560541+236178094+235692496+235949911+236705070+237407434
2338+237976686+238421018+238711395+238963339+239390306+239951507+240401309
2324+240675078+240965511+241489598+242168285+242685555+242936349+243145596
2311+243509668+244008451+244535315+245023999+245451078+245834423+246237012
2297+246677500+247118943+247522906+247872195+248190512+248511355+248826615
2284+249118955+249388881+249630811+249842583+250031043+250182025+250284446
2270+250353036+250395789+250413630+250412677+250412312+250473692+250674804
2257+251046507+251574437+252221536+252939497+253679395+254358475+254974435
2243+255545174+256082979+256583501+257029937+257421473+257818507+258258014
2230+258685570+259051662+259405383+259804605+260228234+260642437+261022696
2216+261370806+261732999+262117662+262507935+262926290+263371604+263814028
2203+264247896+264668383+265074759+265474290+265853006+266207709+266561037
2189+266922416+267297597+267691882+268099970+268527133+268970595+269415965
2176+269857548+270285749+270711987+271162154+271615070+272037436+272446646
2162+272856865+273245933+273624761+274022861+274415463+274749855+275021381
2149+275294449+275608839+275917535+276185357+276448606+276763305+277162865
2135+277645994+278200574+278827475+279516794+280247491+281011740+281794195
2122+282565653+283306730+284018968+284722622+285416149+286058451+286629274
2108+287155914+287664796+288153844+288596072+288992658+289417493+289881967
2095+290341223+290775904+291223041+291720590+292263416+292832668+293437744
2081+294065094+294676453+295279369+295901164+296545486+297196457+297830118
2068+298443610+299060440+299687257+300279456+300791676+301248913+301728507
2054+302272932+302839407+303364027+303843565+304321000+304818155+305328384
2041+305854406+306383149+306880782+307347781+307797022+308238408+308710821
2027+309226773+309729258+310193788+310646901+311103969+311578738+312058922
2014+312524378+312990170+313467885+313932247+314362749+314781468+315210203
2000+315631082+316020907+316372271+316711488+317097554+317519808+317892885
1987+318215748+318548625+318894827+319223216+319544283+319892954+320289960
1973+320727812+321147121+321533102+321976228+322507636+323032929+323506857
1960+323980420+324463129+324894921+325239889+325513602+325742655+325917173
1946+325958664+325823588+325586204+325256300+324708312+323875306+322817230
1933+321669019+320628280+319925299+319764471+320320875+321643547+323490811
1919+325614032+327876873+330030813+331925402+333635767+335254932+336770609
1906+338109804+339278521+340366530+341394813+342332121+343213239+344061506
1892+344837284+345586553+346382445+347172867+347927830+348670927+349379603
1879+350047629+350717451+351388199+351970103+352488186+353142327+353961335
1865+354753693+355423431+356038858+356673502+357334796+357989104+358621840
1852+359242317+359823099+360333412+360882129+361612742+362402771+363076970
1838+363704656+364337140+364871325+365320342+365877644+366529680+367114109
1825+367713265+368373942+368952985+369432130+369930408+370481370+371031433
1811+371588230+372169236+372719412+373185317+373610124+374119090+374714768
1798+375225613+375575406+375947418+376524104+377150051+377590371+377916908
1784+378298654+378751205+379214698+379590215+379801539+379987643+380353847
1771+380850470+381310118+381670319+381929726+382223301+382673215+383216518
1757+383823557+384462830+385062772+385733435+386581871+387472583+388243901
1744+388873046+389428833+389913084+390184581+390356715+390809575+391456842
1730+391941374+392268079+392472334+392532002+392437239+392202968+392049939
1717+392177019+392411767+392523671+392435808+392148237+391742730+391270598
1703+390709622+390164467+389743251+389355670+388967865+388455701+387619328
1690+386490446+385203654+383900984+382757206+381774368+380709391+379462602
1676+378174772+377002240+375958134+375126895+374604435+374190821+373745564
1663+373440880+373311976+373068139+372592725+372382860+372933008+373592170
1649+373793198+374133677+374972435+375899307+376654466+377366368+378471236
1636+380361814+382567567+384429559+386159533+388135476+390356686+392745542
1622+395074813+397092723+399273257+402110792+405044578+407560345+409852754
1609+412090741+414237162+416279647+418225292+420024165+421636933+423116338
1595+424561293+425981169+427299156+428477215+429553834+430567278+431475438
1582+432186779+432711735+433341357+434214872+434885340+435164748+435476585
1568+435995202+436395490+436394480+436003000+435728530+436137374+436788794
1555+437076365+437067921+436946339+436753222+436392124+435858134+435417029
1541+435403171+435717028+435708752+435198636+434656848+434220848+433612041
1528+432805432+431957950+431069932+430146847+429246457+428288951+427215614
1514+425949273+424310920+422285014+420165861+418236289+416254680+413681656
1501+410287632+406020599+400862012+394833893+387744445+379512733+371504127
1487+365881880+363202703+362347619+362008963+361460330+360363092+358377162
1474+355124666+350588492+345128222+338648226+330678922+321444651+311845579
1460+302577280+294922085+291162699+291613007+294038752+296934890+300546998
1447+305330460+310603587+315069601+317752452+318497064+317913897+316776151
1433+315455751+314051809+312774134+311838958+311332349+311255427+311656557
1420+312779576+314744691+317212207+319881957+322723897+325719960+328791627
1406+331850108+334675328+336908630+338392635+339062513+338594027+336591266
1393+332774539+326804771+318327034+308083976+298535792+292382417+291479642
1379+296400143+306418693+320829280+339147654+359987237+381269217+400129940
1366+413758942+421675843+425291373+426387124+426406565+426106846+425568593
1352+424542105+422847534+420565308+417920076+415088151+412224806+409586643
1339+407517340+406155562+405389490+405178868+405639807+406856831+408788815
1325+411356369+414476538+418083064+422153305+426640976+431519397+436835923
1312+442588420+448659432+454970325+461488670+468100067+474601384+480754591
1298+486371424+491310272+495455836+498707686+500888978+501749925+501040408
1285+498526352+494140373+488352192+482363769+477974087+477069040+480773274
1271+488890081+500030106+512377590+524474728+535479986+545106551+553410303
1258+560533078+566643084+571942132+576572565+580673076+584433696+587921809
1244+591103584+594011224+596741176+599330470+601753354+604012240+606152237
1231+608234669+610266662+612209839+614042319+615758323+617380180+618963044
1217+620533060+622035075+623450406+624826015+626171494+627465524+628630285
1204+629619435+630577895+631662032+632712730+633589500+634314221+635014369
1190+635758447+636405462+636791360+636983523+637131082+637276397+637322852
1177+637158013+636729924+635934676+634630267+632758457+630359530+627465860
1163+624101798+620460571+616968867+614056906+611838305+610146202+608812449
1150+607670523+606456500+604964079+603129579+600904974+598187309+594892874
1136+591109699+586990168+582546176+577854139+573177195+568638215+563952686
1123+558597812+552137761+544195557+534164355+521193758+504498785+483405714
1109+457053290+424430790+384966269+339260736+289653475+240249654+196039922
1096+161304187+138295446+127201890+127045789+136509786+154179041+178392899
1082+207087288+237886832+268476834+296779308+320831188+338697852+348509201
1069+348547718+337130501+312395306+273129456+221106900+163138322+109826126
1055+70134509+46501886+36078899+35593126+44243203+63785899+97124319+145976645
1040+208614537+279316383+350528150+416494870+475198857+527088989+572774634
1026+612378438+646134981+674639830+698618210+718830528+736083252+751030802
1013+764121186+775705122+786001368+795120397+803218409+810524539+817174340
999+823101440+828339333+833212480+837923144+842340654+846286986+849808707
986+853153076+856463895+859590741+862332644+864764953+867022605+869059591
972+870832655+872500968+874426921+876742642+879099545+881129406+882829868
959+884436970+886055742+887536156+888749001+889799250+890871998+891986601
945+892976648+893768417+894524277+895245745+895709742+895909087+895971309
932+895881932+895533850+894810979+893709281+892370422+890803212+888812288
918+886277922+883202525+879573810+875297070+870171108+863934359+856290022
905+846875033+835115429+820088769+800417033+774030076+738024185+689004719
891+624698990+546865363+463028276+385111472+327298027+304982714+330354264
878+402898662+504847933+610298418+699701226+766160865+811940656+842255037
864+861867188+874481680+882789977+888329159+891689799+893361928+894092092
851+894424633+894317526+893472008+892015327+890394479+888733235+886744892
837+884262144+881498472+878711572+875856054+872658682+869091067+865356592
824+861387706+856753233+851021888+844087965+835867699+825873360+813580411
810+799295978+784776349+773282407+768431533+771747457+781154479+792365983
797+801805658+808127408+811583484+813033826+813408109+813119275+812037326
783+810292877+808408723+806661413+804818329+802555403+800105925+797901182
770+795784300+793283654+790415007+787680230+785288036+782990044+780608847
756+778240443+776011630+773776589+771299955+768726483+766306966+763958478
743+761588615+759229467+756869142+754517681+752253634+750098656+747992659
729+745939178+743890016+741836367+739891394+737679974+735660212+734036896
716+732413635+730619644+728762141+726973593+725406831+724051645+722628123
702+720984552+719365836+718036347+716962982+716011255+715048419+713925849
689+712715698+711669713+710919855+710455914+710111087+709648268+709230839
675+709393490+709553056+707482181+704197789+705186714+709383728+711155894
662+710580919+710342244+710999638+711857388+712543452+713264920+714324483
648+715681576+717076260+718500905+720139651+721936728+723699917+725483135
635+727476527+729798757+732424801+735136013+737694562+740077947+742354113
621+744657042+747253182+750441801+754047625+757635326+761073337+764438466
608+767703389+770904408+774340342+778213343+782193731+785896899+789566628
594+793678528+798167517+802563595+806720997+810831776+814929930+818912730
581+822855864+826979603+831290175+835719579+840254687+844778350+849300386
567+853838692+858148367+862133748+866210582+870778961+875600042+880238666
554+884573308+888714608+892875208+897260345+901685261+905838175+909895821
540+914122290+918498730+922758751+926669960+930491680+934558864+938707457
527+942642287+946277174+949773030+953271242+956787409+960512290+964534308
513+968354794+971600753+974626665+977745600+980724383+983549435+986563677
500+989842514+993080058+995727142+997680306+999616638+1001880854+1004114211
486+1006106986+1008088652+1010383165+1012746913+1014372417+1014959174
474+1015046363+1015223995+1015544024+1015561305+1015039070+1014256727
463+1013168157+1011241139+1008391288+1004684697+1000113513+995184484+990135051
449+984113637+976238031+967090949+958179737+949783241+940957254+932067138
436+924913335+920825561+920855129+926366707+937507237+952543098+969380412
422+986364837+1002616741+1017324045+1028996797+1037755513+1044681693+1050257288
409+1055085550+1059464628+1063532990+1067673392+1071220417+1073741823
##END=
