##TITLE=42
##JCAMP-DX=4.24
##DATA TYPE=INFRARED SPECTRUM
##DATE=16/11/2015
##SAMPLING PROCEDURE=Instrument type and / or accessory
##ORIGIN=Default
##XUNITS=1/CM
##YUNITS=TRANSMITTANCE
##RESOLUTION=4
##FIRSTX=3996.3359
##LASTX=399.24785
##DELTAX=-1.9287336
##MAXY=1.1381946
##MINY=0.016742058
##XFACTOR=1
##YFACTOR=1.0600263e-009
##NPOINTS=1866
##FIRSTY=0.085801318
##XYDATA=(X++(Y..Y))
3996+80942632+80989724+81046579+81115938+81162082+81160845+81170769+81239671
3981+81335367+81435610+81531488+81608649+81692269+81800025+81925937+82074952
3965+82221036+82318685+82384741+82451562+82500876+82551110+82643712+82745937
3950+82832053+82921964+83001240+83056211+83122766+83230206+83347648+83409234
3935+83437348+83526612+83638811+83682487+83729664+83842882+83928435+83962130
3919+84042601+84150590+84191455+84203755+84261362+84339036+84418818+84543844
3904+84675281+84714592+84696458+84706101+84720384+84726766+84781519+84855791
3888+84884243+84920342+85002859+85094176+85182140+85228824+85211836+85200281
3873+85241244+85323690+85398082+85406439+85403599+85481104+85589226+85601238
3857+85518911+85512361+85685055+85868954+85895789+85834921+85806764+85828862
3842+85856126+85901307+86004642+86117783+86183178+86207567+86194536+86155393
3827+86133506+86155667+86235801+86337225+86379819+86418884+86509456+86551304
3811+86539609+86603457+86731927+86744558+86666286+86696608+86798102+86840752
3796+86843803+86831242+86802418+86765082+86735210+86739757+86769938+86780580
3780+86772230+86773551+86764055+86736166+86750153+86838510+86934564+86984278
3765+87005659+86998792+86988607+87024826+87055422+87026267+87031785+87142824
3749+87210053+87132442+87065269+87069156+86990667+86831749+86740404+86759016
3734+86814585+86840689+86821332+86795094+86803669+86816068+86772602+86670047
3719+86528834+86357924+86201705+86145490+86167539+86118176+85956278+85774460
3703+85635742+85489250+85239233+84872105+84463289+84092765+83785457+83555887
3688+83401502+83248389+83049921+82826908+82602932+82429893+82367352+82340341
3672+82237075+82075943+81869328+81603342+81296266+80953513+80590819+80267781
3657+80032271+79819085+79526931+79212468+78964067+78677810+78246004+77741626
3641+77287117+76907090+76509127+76019411+75496407+75066013+74769881+74460324
3626+73958280+73306926+72687875+72218029+71826560+71357740+70791412+70192871
3611+69591005+68985865+68370314+67752972+67152435+66560135+65961819+65344800
3595+64684913+64006526+63370733+62773521+62162609+61511459+60834330+60164638
3580+59516180+58862738+58184695+57501399+56822668+56143438+55482426+54846096
3564+54180094+53450693+52736007+52104041+51506340+50871099+50197144+49530962
3549+48858775+48120117+47358198+46700332+46139760+45536499+44866821+44224189
3533+43624461+43016962+42381179+41740639+41127956+40548561+39986752+39417844
3518+38830166+38242934+37658328+37059555+36466844+35916288+35371380+34767311
3503+34178069+33696408+33259597+32819384+32395294+31969831+31515076+31030378
3487+30559454+30125683+29650586+29121822+28660067+28269692+27851486+27394246
3472+26900246+26368499+25892916+25531586+25215545+24882677+24548525+24251339
3456+23959608+23609294+23236765+22901074+22567639+22217697+21896100+21585636
3441+21214176+20760180+20314146+20017458+19843433+19643881+19431080+19293345
3425+19172429+18978015+18723924+18472241+18254260+18038264+17824585+17660912
3410+17535830+17425868+17292659+17034548+16691106+16514727+16595976+16676644
3395+16549671+16343107+16273450+16325782+16355685+16319401+16262146+16218990
3379+16194381+16174521+16128856+16025564+15882736+15794003+15836331+15968094
3364+16094487+16197784+16326639+16473932+16572230+16583994+16559011+16628155
3348+16843804+17087300+17237359+17305275+17371582+17504610+17709640+17918374
3333+18087988+18230012+18370567+18558862+18811824+19080411+19334543+19596629
3317+19864177+20107986+20311807+20445418+20529402+20697245+21050535+21519177
3302+21975528+22349504+22598416+22786064+23057729+23443150+23872994+24299591
3287+24710540+25108844+25501647+25880403+26230784+26577962+26949262+27324926
3271+27733865+28250676+28837544+29411599+29970184+30512941+31028319+31532440
3256+32040322+32576645+33159536+33739044+34287010+34890021+35598111+36352101
3240+37094944+37798571+38457871+39126808+39883343+40713036+41546823+42389045
3225+43266722+44144987+44982710+45817102+46713296+47685724+48688249+49638940
3209+50530510+51443816+52421776+53439545+54466691+55492818+56519476+57560423
3194+58610834+59636623+60647016+61705310+62827058+63958028+65058937+66122432
3179+67160075+68219655+69336378+70480976+71612396+72724480+73817699+74898885
3163+76000363+77133997+78255675+79317068+80307655+81272678+82324456+83504563
3148+84688670+85768760+86771541+87741674+88707126+89728512+90811153+91855543
3132+92794483+93697773+94654271+95630947+96543860+97366039+98146011+98961583
3117+99837659+100742980+101611766+102402513+103193612+104054660+104885196
3103+105591838+106264883+106995500+107716874+108363414+108960190+109526259
3090+110075557+110632642+111196750+111750124+112279714+112807230+113386112
3076+114007447+114567576+114991960+115309516+115601403+115928862+116288723
3063+116645997+116964375+117213401+117417605+117604716+117744059+117838651
3049+117932400+117990288+117947244+117834891+117722516+117613122+117457690
3036+117232674+116963497+116657061+116267025+115738167+115090903+114394446
3022+113634885+112760251+111750560+110570565+109237549+107814678+106253764
3009+104439374+102323785+99907826+97169095+94025302+90377525+86152251+81263527
2993+75670669+69398230+62478134+55066150+47491599+40181745+33661303+28487713
2978+25083214+23681612+24445452+27472640+32682001+39771436+48158909+56999418
2963+65418348+72723349+78513817+82703161+85368856+86632971+86666926+85711553
2947+84098620+82138034+80045000+78001575+76110369+74389791+72819072+71380176
2932+70200272+69539190+69606834+70433125+71801503+73324736+74643590+75544181
2916+75953257+75882794+75350492+74355794+72970132+71359540+69694088+68163320
2901+66972444+66208245+65824634+65727399+65814175+65996218+66222977+66530439
2885+67006266+67693924+68626109+69859473+71464942+73557891+76269315+79676951
2870+83696060+88043380+92422750+96684131+100762878+104587525+108115779
2856+111350748+114302932+117003595+119475841+121721109+123766285+125641240
2843+127376015+129049669+130722986+132381908+134041407+135747266+137475519
2829+139187395+140865575+142470728+143991171+145440934+146799155+148049542
2816+149200277+150289033+151425921+152723780+154193546+155779117+157429281
2802+159083916+160661488+162128274+163509282+164789527+165919162+166903584
2789+167795101+168636926+169424601+170116350+170693474+171184975+171626334
2775+172005545+172309015+172583850+172855059+173075619+173218849+173320610
2762+173408722+173467763+173493263+173518018+173580334+173686158+173838792
2748+174104659+174499417+174901964+175251837+175620786+176044025+176474264
2735+176880466+177295270+177739665+178192171+178683040+179291596+180018066
2721+180808356+181674458+182613390+183531813+184353269+185059116+185650411
2708+186171924+186728989+187392904+188137184+188927896+189764786+190648966
2694+191577510+192515234+193410729+194256855+195082387+195896898+196684574
2681+197432959+198143923+198843164+199534434+200155938+200691439+201233265
2667+201807452+202314360+202729487+203133650+203539177+203892466+204206788
2654+204523964+204839341+205156405+205487947+205819138+206123255+206403193
2640+206689949+206977084+207242473+207474940+207683382+207915019+208177849
2627+208438388+208707109+209036585+209436165+209853022+210268726+210689982
2613+211098039+211487948+211848673+212141755+212371016+212610877+212901021
2600+213192458+213475502+213783949+214084383+214348562+214603028+214881814
2586+215185874+215448339+215653450+215878438+216147060+216409482+216614945
2573+216768802+216926512+217106418+217278592+217406992+217467017+217463685
2559+217437412+217427909+217427769+217411603+217383769+217374829+217417661
2546+217524807+217721891+218025853+218388842+218788830+219252582+219753347
2532+220241952+220728997+221216379+221661126+222079037+222507435+222907900
2519+223253992+223584748+223926763+224271716+224608460+224941619+225306169
2505+225718049+226138490+226557638+227017581+227547669+228144362+228767974
2492+229377107+229992004+230643267+231298424+231924271+232536876+233163145
2478+233806761+234449843+235084363+235724451+236386917+237060124+237702432
2465+238303975+238902958+239536607+240203797+240853331+241450628+242016043
2451+242543053+242997724+243390374+243760560+244126951+244463540+244744771
2438+244994514+245227192+245410022+245538618+245658274+245780377+245870400
2424+245913753+245929581+245946984+246013729+246197261+246509419+246899735
2411+247356880+247891678+248463587+249032854+249610723+250200823+250781138
2397+251347003+251905502+252446007+252938323+253352087+253662361+253853963
2384+253937267+253948737+253941034+253967687+254011574+254001846+253934483
2370+253837712+253640825+253301256+253026491+253093432+253702734+254863505
2357+256293700+257639101+258397214+258331623+258075976+258413380+259315637
2343+260224501+260870577+261349567+261759254+262184068+262594036+262961214
2330+263336264+263748257+264186875+264706322+265346016+265978765+266453960
2316+266797268+267161269+267639219+268200051+268750846+269250979+269715799
2303+270150031+270548697+270927374+271332985+271772699+272203669+272603741
2289+272970498+273289431+273564055+273825634+274084796+274330603+274562015
2276+274777064+274948901+275052391+275093411+275094057+275087760+275096559
2262+275118039+275171345+275325582+275666782+276222553+276942318+277764926
2249+278631224+279396844+280046209+280614604+281143554+281666768+282180649
2235+282645525+283091396+283561446+284007148+284390661+284766133+285172475
2222+285586014+285992609+286388323+286779483+287205674+287663859+288109168
2208+288543343+288982326+289426398+289872690+290323566+290791957+291247106
2195+291650833+292021834+292386904+292754757+293127642+293506487+293916484
2181+294395643+294927995+295444462+295902057+296323356+296752583+297204330
2168+297664455+298113081+298559936+299020877+299475632+299908823+300311032
2154+300662832+300982693+301297830+301588789+301860799+302154148+302455650
2141+302750180+303091014+303518807+304018321+304593632+305274599+306042130
2127+306855882+307707167+308583699+309448451+310268135+311022565+311718544
2114+312415929+313152507+313862403+314461808+314964105+315445373+315943200
2100+316442854+316915069+317348260+317783813+318250714+318759309+319326045
2087+319927165+320521370+321119847+321747311+322408147+323095383+323797660
2073+324531904+325292491+326005480+326631988+327228019+327853712+328483116
2060+329081228+329674420+330252065+330780480+331309149+331880159+332447823
2046+332982311+333506735+334036528+334561655+335070362+335583230+336122470
2033+336664606+337180286+337671197+338155304+338647339+339149580+339641025
2019+340108685+340573084+341046479+341540707+342075702+342627566+343129807
2006+343561002+343972123+344421424+344906431+345358009+345731288+346068383
1992+346438795+346845699+347223560+347547076+347851080+348167202+348484195
1979+348796493+349135950+349512434+349917258+350356915+350836721+351347481
1965+351878146+352413281+352930057+353411690+353853288+354275036+354676458
1952+355009392+355244516+355359983+355305497+355086202+354759481+354290078
1938+353581981+352598332+351375595+350054795+348848759+347986115+347745200
1925+348385569+349907783+351980793+354349625+356853351+359190133+361258560
1911+363171709+364953590+366567965+368011514+369315755+370512007+371602549
1898+372609589+373575863+374494708+375353162+376193482+377022979+377805495
1884+378565829+379333642+380099317+380853972+381589087+382284589+382910787
1871+383534287+384292035+385137331+385903457+386561228+387188608+387835049
1857+388509971+389190009+389844154+390474570+391090535+391692246+392366886
1844+393179907+393950306+394560114+395135369+395732525+396290124+396837180
1830+397491296+398176958+398747658+399306269+399925074+400516157+401062904
1817+401610100+402151224+402677559+403232234+403806252+404339419+404823076
1803+405303107+405850331+406451114+406958472+407306813+407678462+408232293
1790+408796499+409182935+409495993+409873517+410314102+410765428+411116946
1776+411304836+411507515+411922263+412430408+412828231+413087168+413271291
1763+413546956+413998646+414544774+415169483+415831725+416501501+417317278
1749+418273571+419148079+419848275+420429238+420965413+421443251+421743009
1736+422008103+422523052+423067268+423353363+423523092+423651154+423662007
1722+423516147+423304303+423251166+423359436+423348724+423138876+422814714
1709+422419534+421971554+421427000+420772349+420154276+419611325+418979981
1695+418229065+417327905+416197694+414864973+413426850+412017909+410701326
1682+409376477+407926883+406409223+404947990+403581615+402314064+401268872
1668+400502550+399841714+399233058+398818198+398568595+398276793+397952434
1655+398052410+398824074+399473439+399636279+400022210+400903690+401866366
1641+402749842+403727137+405181567+407367007+409726140+411729959+413723291
1628+416037243+418575832+421231575+423771063+425977140+428361716+431368921
1614+434400529+437019076+439472674+441887474+444171653+446313909+448343425
1601+450218394+451917956+453502388+455023618+456447459+457728224+458889109
1587+459983220+461008929+461896819+462589903+463143369+463826191+464704438
1574+465324254+465577568+465877973+466300903+466545445+466471278+466200252
1560+466174049+466636902+467018053+466996433+466794457+466547891+466261542
1547+465881038+465413715+465040240+464962643+464988340+464622849+463904490
1533+463228810+462583830+461748852+460779063+459797973+458785984+457733482
1520+456645190+455427852+454022707+452402344+450521527+448393216+446072685
1506+443579951+440847174+437677354+433838460+429076111+423207167+416303461
1493+408333534+399199883+390218473+383720350+380457442+379297627+378793193
1479+378147398+377024722+374975975+371379627+366127913+359806295+352490203
1466+343609134+333335488+322770883+312764242+304531752+300323825+300569182
1452+303049798+306163501+310087161+315242328+320909156+325730012+328662853
1439+329531653+328899157+327501069+325855797+324216513+322754155+321610196
1425+320933700+320823996+321347042+322648134+324680996+327131445+329889525
1412+332951329+336183170+339482065+342791559+345853784+348277440+349926620
1398+350685295+350094240+347686919+343274148+336625442+327308765+316021302
1385+305475366+298681589+297642132+302941444+313794534+329438706+349322997
1371+371973044+395206611+415900381+430917314+439636470+443485823+444436831
1358+444233871+443773155+443062837+441790788+439803359+437186246+434151349
1344+430921869+427738891+424840940+422453299+420732427+419720916+419425487
1331+419875800+421091789+423056753+425758323+429139172+433088219+437530173
1317+442399443+447662796+453377474+459569737+466161791+473088888+480253245
1304+487464722+494527135+501230580+507365264+512770821+517307072+520787109
1290+523014131+523811408+522899929+519944793+514874588+508260098+501466856
1277+496500843+495446261+499510803+508407363+520583840+534114378+547440015
1263+559595237+570206007+579263383+586928631+593483461+599189227+604195387
1250+608634586+612671745+616388339+619778747+622876706+625777413+628498466
1236+631010177+633370968+635633696+637791893+639851126+641840016+643744787
1223+645523042+647194405+648827869+650460152+652035925+653473148+654765244
1209+656007239+657284040+658493984+659518934+660458302+661450639+662387927
1196+663170584+663836958+664483934+665119270+665615832+665879323+665985371
1182+666050991+666078600+665913004+665441802+664706715+663657755+662086312
1169+659868568+657056873+653686202+649751943+645484075+641406825+637989708
1155+635346588+633337793+631757634+630349032+628811382+626931240+624674248
1142+622043836+618927153+615185705+610867680+606138900+601038162+595677813
1128+590422276+585390588+580152369+574118561+566859345+557982016+546843927
1115+532537874+514224688+491214267+462696626+427687188+385598581+337219141
1101+285300425+234258129+189122787+154040940+131030926+120010863+119868392
1088+129278326+146849733+171082666+200116423+231562871+262950840+292129907
1074+317115217+335778037+345971106+345840176+333664936+307709051+267076138
1061+213918267+155542757+102854535+64440976+42036026+32305911+31779094+39699230
1045+58030051+90044563+138045910+200863247+273006288+346777998+416062884
1032+478425171+533968406+583156763+626051700+662732725+693699719+719756312
1018+741717604+760405390+776582645+790773934+803309324+814380331+824099639
1005+832722812+840604656+847847115+854253050+859823416+864993540+870066838
991+874809170+878884115+882427804+885868481+889344808+892610949+895413872
978+897838315+900086535+902108264+903795371+905347021+907184598+909422584
964+911711177+913720085+915432889+916985383+918450046+919765477+920843732
951+921783156+922780385+923801173+924595189+925110981+925565596+926006715
937+926281396+926341112+926206780+925812668+925035971+923870673+922422935
924+920739764+918735129+916238206+913137661+909427251+905117043+900133993
910+894249080+887112782+878358707+867636547+854422863+837777779+816180515
897+787324204+748109988+695084987+626074248+543289329+455119883+374221039
883+314826512+291975136+317893882+392694788+498968471+610119548+705255255
870+776466813+825706001+858356166+879506405+893036549+901737656+907396414
856+910768941+912328576+912879512+913015587+912601345+911321001+909413812
843+907340409+905190478+902744612+899863080+896695228+893467154+890157379
829+886474184+882306292+877893353+873234803+867842403+861308603+853539949
816+844357462+833311365+819906388+804360870+788501592+775858242+770354677
802+773713484+783729909+795683942+805645655+812167254+815567952+816852175
789+817005682+816462731+815178957+813266708+811097715+808867150+806496744
775+803853006+801061891+798374463+795769355+793002362+789939434+786778329
762+783838600+781115298+778360956+775621741+773112392+770654548+767916233
748+765042123+762369033+759804579+757173999+754493881+751782892+749175985
735+746764924+744337838+741765624+739270838+736938386+734626964+732327519
721+730052140+727776705+725605013+723622758+721707809+719734776+717752408
708+715883455+714146192+712445365+710737340+709061311+707492848+706078735
694+704765441+703449054+702084648+700753192+699609823+698696489+697914450
681+697168623+696498538+695929833+695031231+693774898+693982665+696113872
667+696574785+694790063+694379027+695633954+696652775+697099124+697496272
654+698118844+699127262+700475418+701875980+703217333+704697515+706438040
640+708310986+710202430+712079649+713932745+715920511+718277254+720949949
627+723627875+726338188+728970624+731457875+734183258+737555673+741255455
613+744765632+748075800+751382820+754753548+758215817+761779862+765532331
600+769577643+773667320+777554627+781606574+786049540+790364191+794414226
586+798712570+803270244+807683184+811954707+816345661+820816180+825188859
573+829510876+834019855+838832923+843593136+847866346+851834904+856085172
559+860786738+865600649+870294230+874827501+879197200+883536086+888069750
546+892683541+897113293+901350797+905502495+909844417+914368691+918676145
532+922772119+926882207+930868422+934562806+938114143+941875609+945913498
519+949791078+953401905+957240237+961245120+964885636+968151552+971323453
505+974359841+977254868+980392018+984021964+987703752+990683686+992939834
492+995097019+997302674+999240564+1000828707+1002343977+1004263986+1006680051
478+1008741871+1009699907+1010050104+1010509049+1010918399+1010736328
467+1010007820+1009252546+1008267857+1006332329+1003276036+999232467+994518644
453+989457997+983812565+976868122+968252540+958843225+949718317+940606961
440+931024065+921798788+914368129+909904526+909692485+915364907+927433818
426+944014744+962231383+980017868+997161875+1013564442+1026852462+1035966910
413+1042442963+1048051284+1053464713+1057980272+1061859313+1066358003
401+1070692952+1073741823
##END=
