##TITLE=42
##JCAMP-DX=4.24
##DATA TYPE=INFRARED SPECTRUM
##DATE=16/11/2015
##SAMPLING PROCEDURE=Instrument type and / or accessory
##ORIGIN=Default
##XUNITS=1/CM
##YUNITS=TRANSMITTANCE
##RESOLUTION=4
##FIRSTX=3996.3359
##LASTX=399.24785
##DELTAX=-1.9287336
##MAXY=1.1414058
##MINY=0.016603552
##XFACTOR=1
##YFACTOR=1.063017e-009
##NPOINTS=1866
##FIRSTY=0.080489933
##XYDATA=(X++(Y..Y))
3996+75718387+75788539+75874020+75957874+76032183+76108734+76235097+76393330
3981+76478460+76488077+76521874+76594367+76648146+76687024+76741848+76814705
3965+76925019+77073916+77208627+77280769+77288269+77279311+77304726+77382132
3950+77512427+77661500+77774007+77834704+77855899+77883801+77978793+78096052
3935+78170290+78247423+78346767+78408740+78439235+78492734+78554097+78591006
3919+78650070+78760250+78870703+78938585+78960417+78966256+79013923+79129598
3904+79275657+79391051+79446400+79472130+79511920+79564907+79614411+79654018
3888+79694060+79765404+79849615+79912892+79974094+79999403+79960195+79939357
3873+79987011+80052818+80077293+80090231+80186057+80336286+80412725+80376839
3857+80303084+80338409+80541163+80715313+80703608+80609184+80580819+80655821
3842+80760184+80810942+80806078+80798901+80822878+80863306+80891320+80898806
3827+80906992+80962292+81092490+81217753+81251564+81271995+81309436+81262512
3811+81162677+81161745+81288326+81399613+81451710+81532375+81601792+81595406
3796+81566516+81541480+81509856+81484939+81489453+81535817+81598876+81646417
3780+81688940+81716373+81692122+81637866+81612060+81644476+81709785+81755763
3765+81745684+81682015+81638869+81668306+81705194+81700947+81702825+81718441
3749+81684602+81655227+81760571+81895549+81820014+81602808+81495053+81584206
3734+81718840+81704297+81533350+81377878+81353641+81383871+81366250+81325914
3719+81297283+81238331+81154441+81140809+81183655+81145295+80981146+80739746
3703+80516232+80363838+80190795+79908672+79547462+79175787+78853833+78614675
3688+78411754+78182345+77954381+77788319+77684026+77609550+77539173+77431517
3672+77302238+77200601+77051753+76805012+76550491+76327692+76082121+75798408
3657+75519839+75246471+74943672+74655950+74428091+74150013+73738275+73280180
3641+72861566+72493760+72151039+71771661+71333549+70924145+70609025+70285606
3626+69822864+69254204+68715507+68291399+67902832+67424846+66890193+66380205
3611+65879496+65330054+64719011+64084145+63466359+62875418+62292488+61718094
3595+61177070+60654641+60117626+59530252+58852687+58145587+57509344+56940207
3580+56392483+55828645+55224901+54599021+53975901+53373648+52791972+52178700
3564+51504647+50821584+50199471+49637094+49074770+48475842+47838232+47175218
3549+46503260+45838182+45202254+44622643+44102586+43564316+42933823+42305668
3533+41784704+41276450+40691326+40078849+39473918+38893826+38376188+37890485
3518+37356880+36763517+36193234+35712918+35267838+34757888+34161228+33545184
3503+33025800+32619161+32204714+31756018+31343141+30928200+30451861+29960510
3487+29495725+29053155+28618897+28171001+27720232+27316064+26981625+26632335
3472+26151868+25592850+25124722+24801990+24532561+24217350+23848398+23481869
3456+23152419+22863200+22589254+22272557+21891586+21522608+21257454+21044510
3441+20740928+20311111+19891602+19636050+19491921+19300392+19059214+18864524
3425+18722233+18568516+18380078+18187107+18008760+17818749+17610625+17422923
3410+17276803+17148092+16989132+16759904+16480005+16274613+16218955+16199358
3395+16098556+15957474+15913152+15970488+15984089+15908734+15828048+15797349
3379+15808861+15829408+15840313+15814626+15714779+15619272+15656009+15785612
3364+15901939+15994832+16094831+16220340+16333027+16351874+16304774+16326172
3348+16473541+16682265+16863687+16977029+17048182+17161432+17359004+17564918
3333+17734797+17907231+18073661+18237491+18463782+18741977+18996640+19212220
3317+19415888+19641382+19894729+20109179+20243450+20361182+20591691+21010103
3302+21498154+21877465+22136630+22354629+22575906+22857351+23250454+23715530
3287+24180916+24614888+24991954+25318658+25643558+25985189+26347176+26723654
3271+27104376+27550262+28095646+28665887+29209466+29738159+30244121+30714674
3256+31203496+31762999+32349409+32898774+33440225+34054619+34733764+35412411
3240+36090224+36771006+37399031+37982004+38651841+39450200+40262381+41055610
3225+41894186+42752037+43558299+44367308+45262324+46189391+47078593+47948639
3209+48823876+49711059+50619612+51539968+52465672+53418073+54415279+55449505
3194+56483318+57464017+58378924+59281983+60236826+61268655+62356486+63445781
3179+64507910+65551073+66580197+67580458+68549025+69552706+70637544+71720209
3163+72724914+73685862+74651219+75637897+76629944+77620659+78663513+79742632
3148+80759455+81694933+82592885+83491279+84423028+85397181+86390994+87359540
3132+88258880+89103110+89956352+90831378+91668500+92431777+93173248+93957895
3117+94766455+95560192+96358976+97159897+97898200+98570032+99244281+99917290
3101+100543465+101170095+101846812+102508915+103086609+103604812+104132821
3088+104695923+105257168+105786844+106268132+106695135+107135707+107636185
3074+108127046+108547552+108916220+109259628+109583328+109898083+110210940
3061+110488779+110706812+110901814+111081221+111209231+111307685+111394154
3047+111423276+111389577+111342204+111303073+111245895+111105373+110846486
3034+110518644+110155037+109742184+109284889+108767702+108150610+107422708
3020+106590303+105651299+104583858+103372657+102043222+100607113+99012665
3007+97154591+94934024+92343016+89369973+85929879+81978920+77479282+72344211
2991+66541493+60093718+53120819+45910356+38938754+32770266+27884813+24641695
2976+23290850+24005686+26876816+31832608+38572801+46501109+54787963+62633863
2961+69479379+74980021+78952672+81420261+82565186+82599417+81735711+80258564
2945+78458678+76509965+74554391+72761732+71193364+69761354+68414917+67284283
2930+66643256+66733727+67543128+68826192+70253758+71493842+72370551+72839867
2914+72814340+72266006+71303936+70023032+68506649+66934034+65513919+64398627
2899+63677201+63342435+63291354+63376842+63501411+63679984+63966746+64403660
2883+65036164+65905989+67052505+68552515+70544753+73140486+76320333+79976259
2868+83975349+88108266+92131039+95936935+99522885+102846905+105860431+108594876
2853+111099107+113365639+115413485+117298873+119031711+120627007+122158746
2839+123682888+125210884+126770449+128382552+130017224+131625416+133175336
2826+134646785+136009189+137258792+138455519+139648154+140804973+141895993
2812+142990334+144182212+145490788+146898904+148395136+149918927+151364793
2799+152698391+153970604+155198760+156315796+157252185+158037701+158753969
2785+159419618+160019902+160570984+161080153+161528105+161925594+162273390
2772+162524070+162700849+162871179+163020202+163118972+163178393+163203317
2758+163210186+163246548+163327697+163440989+163612090+163855117+164139734
2745+164450607+164810836+165235870+165688981+166116594+166499673+166858697
2731+167231094+167668715+168208948+168808643+169438855+170157856+170981304
2718+171845375+172669230+173397567+174034297+174604037+175125569+175639812
2704+176204281+176869888+177645633+178485888+179333993+180151385+180944414
2691+181750760+182554050+183317965+184057235+184781045+185482551+186175549
2677+186857011+187492087+188070700+188616119+189131974+189598318+190014927
2664+190403024+190771552+191127702+191487105+191837564+192140068+192405243
2650+192697752+193019811+193331006+193644935+193958303+194234580+194483143
2637+194713708+194912579+195110678+195338986+195574681+195819643+196124067
2623+196508940+196930427+197329556+197701771+198087625+198483557+198832503
2610+199119531+199377585+199628644+199871628+200102740+200352271+200654466
2596+200975824+201255185+201497539+201753111+202016786+202254136+202487630
2583+202736264+202985374+203248404+203511154+203713066+203850539+203986526
2569+204151081+204304842+204420054+204507792+204578231+204632242+204648208
2556+204600183+204512319+204464098+204499241+204586291+204712059+204906696
2542+205185090+205513260+205847347+206218160+206671579+207172239+207666647
2529+208130426+208562665+208986101+209391341+209748445+210063186+210358780
2515+210661887+210990240+211341414+211710264+212092600+212481173+212869340
2502+213267305+213703750+214197681+214735137+215293719+215870439+216458388
2488+217052504+217656041+218256353+218861235+219480752+220067046+220616376
2475+221200358+221823940+222447662+223075014+223710651+224328766+224912159
2461+225493449+226092122+226670020+227213686+227732401+228214207+228648913
2448+229026482+229353461+229666675+229973805+230248119+230499417+230756657
2434+230985638+231130414+231221403+231331065+231455977+231539439+231578156
2421+231629560+231734609+231911149+232168152+232497065+232899783+233378070
2407+233918877+234488294+235039306+235579328+236137516+236683622+237198552
2394+237690521+238146183+238509497+238732380+238821281+238828906+238833784
2380+238886435+238958375+238978000+238922629+238800646+238616116+238442604
2367+238420904+238694532+239122327+239653405+240596775+241949577+243152417
2353+243403251+242612451+242037188+242830876+244502499+245701414+246036271
2340+246075324+246214718+246492326+246797802+247230952+247829568+248333032
2326+248642208+249050911+249758446+250497941+250953155+251235361+251612945
2313+252102446+252588247+253036144+253464724+253881642+254319642+254787584
2299+255243583+255684443+256123481+256530950+256891208+257232541+257581753
2286+257922862+258234309+258511778+258763481+258991579+259188837+259358957
2272+259494482+259579934+259616717+259614838+259583439+259552571+259586438
2259+259763371+260136581+260687565+261350915+262093438+262891948+263616780
2245+264276514+264885223+265443048+265939839+266389838+266810708+267204440
2232+267596238+268016352+268434166+268814777+269205930+269645108+270064464
2218+270443730+270850358+271267248+271648588+272032480+272468125+272943917
2205+273405748+273821880+274218191+274634997+275064502+275459019+275802287
2191+276138462+276504046+276885190+277272979+277689924+278147353+278609856
2178+279045333+279491997+279974405+280440245+280879002+281334076+281789738
2164+282209319+282599715+282975897+283345658+283719233+284103545+284481745
2151+284828994+285142040+285433077+285712929+285983220+286250651+286551305
2137+286941505+287433810+287995335+288626444+289350940+290154385+290984911
2124+291807897+292605229+293350864+294074211+294807285+295508933+296155518
2110+296765432+297352189+297907434+298402067+298836646+299264666+299719964
2097+300162674+300578302+300995107+301458760+301997492+302580745+303171343
2083+303768501+304361006+304950230+305585713+306283968+306994082+307684683
2070+308362387+309004767+309593374+310171132+310761898+311334441+311875360
2056+312405177+312937405+313467166+314000207+314530080+315032197+315532016
2043+316062478+316588117+317086478+317598044+318123403+318615203+319076473
2029+319538135+320013339+320502476+320994613+321469985+321929516+322411925
2016+322917379+323394545+323844376+324314056+324781746+325204467+325618917
2002+326063786+326518636+326943824+327323566+327701542+328117170+328519425
1989+328856945+329170524+329492400+329825856+330187936+330565295+330916973
1975+331253176+331631517+332054882+332503788+333001729+333523920+334002376
1962+334452459+334928392+335405950+335837081+336220609+336552606+336807758
1948+336963384+336991139+336873782+336610696+336160809+335470965+334542650
1935+333421534+332214377+331127072+330420855+330315049+330965531+332385703
1921+334317271+336510805+338803557+340954560+342887447+344690753+346394532
1908+347962928+349362157+350596284+351698140+352713028+353686901+354636803
1894+355523457+356320453+357098021+357902418+358683827+359428032+360146528
1881+360842652+361544888+362266356+362974507+363610944+364221223+364948410
1867+365766881+366515264+367139897+367719057+368351119+369037459+369698566
1854+370310331+370917106+371536889+372155466+372848535+373657418+374380989
1840+374926842+375468377+376075601+376663760+377246143+377910250+378560228
1827+379103221+379651009+380223832+380767779+381314473+381873784+382420814
1813+382957949+383503017+384051001+384587378+385103345+385611687+386161941
1800+386732410+387219304+387632801+388117761+388689014+389172769+389526774
1786+389882574+390281717+390688794+391112440+391492855+391757707+392051997
1773+392512622+392975602+393294086+393523362+393743301+394072018+394530541
1759+395030051+395600632+396256160+396989291+397883823+398860387+399697839
1746+400347395+400901043+401457325+401990814+402364585+402709731+403242408
1732+403703958+403884367+403994042+404121268+404197020+404186927+404168312
1719+404299406+404501094+404497898+404273950+403970941+403663222+403354971
1705+402988742+402585169+402248882+401864290+401238900+400437081+399486114
1691+398373913+397195128+396064425+395041882+393995930+392721515+391252506
1678+389803402+388507204+387347174+386285354+385389084+384667700+384019040
1664+383485158+383158375+382930642+382655472+382446383+382713198+383507979
1651+384023806+384100624+384444873+385169817+385896556+386632154+387618699
1637+389139771+391245609+393317777+394987353+396715103+398834454+401226312
1624+403734685+406113141+408223690+410589923+413524858+416374340+418803569
1610+421116114+423404015+425573887+427645718+429641600+431491558+433157770
1597+434684420+436126431+437491597+438772656+439970309+441069809+442051111
1583+442901459+443621862+444300576+445156783+446084005+446599327+446805978
1570+447181599+447667456+447923000+447901272+447836090+448143724+448786973
1556+449024575+448767208+448446733+448198085+447963624+447677520+447411827
1543+447383763+447639616+447739227+447230380+446393686+445686348+445055154
1529+444306884+443511402+442759655+441997928+441150636+440173118+439025902
1516+437702705+436177737+434443174+432604767+430735129+428623600+425990215
1502+422847957+419231364+414879286+409476909+403034019+395569148+387042652
1489+378677529+372616344+369556089+368473915+368038719+367497127+366524712
1475+364698220+361420438+356531365+350551960+343642418+335332637+325719453
1462+315789215+306400344+298726382+294812136+295007011+297279157+300200298
1448+303948854+308871093+314251714+318838843+321691942+322627911+322114271
1435+320817933+319259826+317711195+316352954+315338122+314790446+314755065
1421+315276247+316513374+318453662+320802317+323439598+326376271+329485391
1408+332617753+335716136+338609775+340964429+342610091+343402993+342920248
1394+340722117+336600183+330340057+321571950+310945223+300982576+294539321
1381+293549692+298600923+308964900+323898260+342832413+364329636+386309352
1367+405841308+420025697+428333011+432100435+433130379+433038366+432663979
1354+432019412+430847131+429031518+426637137+423841455+420862336+417917336
1340+415212993+413009227+411476184+410583390+410306286+410744399+411978049
1327+413946429+416559880+419760817+423491739+427708349+432351466+437393809
1313+442876507+448783188+455009924+461522426+468284641+475132814+481853004
1300+488203629+493986196+499112674+503481967+506868892+509040754+509845656
1286+509053314+506369073+501742021+495676070+489378208+484722448+483728698
1273+487584715+496035094+507579370+520358054+532920134+544391910+554437067
1259+563054146+570378279+576650964+582110618+586888333+591117784+594978903
1246+598531631+601764696+604736526+607521359+610130128+612573094+614897975
1232+617130169+619278930+621317062+623216979+625029817+626793200+628475561
1219+630083403+631666573+633180552+634564838+635886099+637211679+638491392
1205+639633731+640641442+641632725+642710694+643755805+644631974+645358545
1192+646046987+646715300+647260928+647596907+647752224+647832911+647909448
1178+647863021+647525360+646901176+646000840+644681541+642771700+640227525
1165+637109349+633495728+629587621+625832869+622692040+620302790+618508680
1151+617087387+615837391+614503570+612860067+610857708+608482475+605622788
1138+602178166+598202885+593820584+589087277+584166581+579338457+574625168
1124+569686416+564048456+557278251+548984198+538575084+525133694+507757060
1111+485790324+458543054+425059686+384668933+338003869+287547662+237492814
1097+192903477+158076432+135126123+124058831+123848340+133236033+150851027
1084+175067129+203864977+234872452+265746841+294400433+318832900+336990242
1070+346917789+346914453+335275640+310094595+270239883+217719499+159632268
1057+106668200+67600924+44581609+34482547+33911791+42167596+61154691+93934303
1042+142442463+205153774+276400847+348533116+415717746+475858544+529235752
1028+576360011+617322325+652224408+681577347+706213969+727014200+744817200
1015+760288703+773862476+785839510+796384149+805623450+813835358+821340489
1001+828259452+834465861+839909142+844882545+849677138+854202028+858226931
988+861856252+865366029+868727610+871783323+874520439+876992394+879252792
974+881293055+883057728+884688055+886566776+888827343+891117459+893108323
961+894846475+896490651+898058065+899444314+900564784+901555507+902628822
947+903720696+904597089+905249926+905870298+906442729+906785997+906896737
934+906870608+906697741+906260497+905416906+904157098+902658595+900971413
920+898841100+896059015+892678089+888812596+884340245+878900777+872217762
907+864094391+854171357+841860027+826239935+805825867+778405366+741062728
893+690437046+624287939+544576441+459115317+380021191+321555521+299041671
880+324656483+398100650+501732825+609412977+701061867+769315999+816391981
866+847682461+867971322+880919789+889332993+894920601+898288406+899865577
853+900484771+900781331+900602408+899556680+897887384+896126749+894340432
839+892199858+889538774+886590494+883634421+880639377+877320298+873561957
825+869555894+865277157+860260690+854126949+846826198+838202222+827765688
812+815111651+800543959+785579115+773442111+768129196+771427472+781154088
798+792776640+802540150+809006450+812411374+813712899+813898775+813408152
785+812249272+810548520+808600943+806604247+804469000+801955945+799250285
771+796748443+794413302+791947627+789275722+786599051+784043381+781474871
758+778768707+776127080+773770408+771454947+768858458+766168834+763706131
744+761341552+758890007+756376671+753828123+751377362+749103899+746845463
731+744575252+742453518+740354549+738106710+735869469+733806497+731603516
717+729328819+727366495+725614774+723814945+722044048+720422188+718889594
704+717334627+715742373+714168006+712663504+711237164+709892857+708633666
690+707463628+706395640+705415908+704519610+703815355+703331965+702902740
677+702174151+700440205+698339946+699654479+704544001+705192576+700883504
663+699381188+701429525+703236925+703959907+704501555+705187474+706077268
650+707238895+708518776+709816096+711292002+713066992+715019279+716965174
636+718875240+720864086+723016603+725380004+728001726+730723142+733546719
623+736242567+738626266+741107361+744286486+747981915+751589256+754841385
609+758001503+761469955+765157814+768732802+772355058+776272080+780108753
596+783639108+787452230+791877538+796347534+800525736+804688687+808945388
582+813210389+817469389+821715718+825948869+830285753+834724461+839146853
569+843716713+848455290+852926913+856999028+861210480+865890856+870674515
555+875322257+879931590+884390709+888591900+892867610+897330093+901548666
542+905374685+909278362+913740733+918396381+922577162+926410638+930331586
528+934327388+938178470+941871208+945623156+949413794+952920487+956232501
515+959865130+963772060+967440799+970831649+974211733+977379532+980154496
501+982925759+986025824+989203603+991878200+994062958+996388680+998890016
488+1001185459+1003245403+1005042710+1006688736+1008531460+1010333252
476+1011612124+1012440969+1012936975+1012927442+1012215226+1011020573
465+1010061867+1009375892+1008015605+1005382950+1001497664+996595919+991220036
451+985706106+979460895+971743142+962813466+953432530+943985429+934606959
438+925906390+918999315+914902472+914823972+920464175+932153507+947701604
424+964693983+981794915+998376965+1013829965+1026765816+1036483404+1043017045
411+1047487603+1052216424+1057254422+1061177387+1064775477+1069119537
399+1073741823
##END=
