##TITLE=42
##JCAMP-DX=4.24
##DATA TYPE=INFRARED SPECTRUM
##DATE=16/11/2015
##SAMPLING PROCEDURE=Instrument type and / or accessory
##ORIGIN=Default
##XUNITS=1/CM
##YUNITS=TRANSMITTANCE
##RESOLUTION=4
##FIRSTX=3996.3359
##LASTX=399.24785
##DELTAX=-1.9287336
##MAXY=1.1417445
##MINY=0.016473018
##XFACTOR=1
##YFACTOR=1.0633324e-009
##NPOINTS=1866
##FIRSTY=0.078878887
##XYDATA=(X++(Y..Y))
3996+74180835+74244968+74291410+74326710+74385806+74455215+74524274+74604874
3981+74674010+74721117+74764524+74824061+74943499+75114963+75257552+75340653
3965+75407491+75486822+75565019+75632270+75700965+75785383+75881587+75957457
3950+75993276+76020469+76077988+76170590+76267803+76330857+76370929+76417749
3935+76472108+76545630+76654677+76767270+76846685+76908044+76980453+77057135
3919+77111683+77136102+77149478+77178816+77245416+77327774+77376864+77412661
3904+77503253+77640159+77758988+77835586+77860530+77836189+77816135+77831361
3888+77843090+77865288+77944220+78037137+78108642+78174422+78224248+78253186
3873+78287302+78350609+78404771+78401884+78387990+78404260+78418266+78387906
3857+78339790+78402487+78606070+78750929+78756205+78725726+78710563+78743194
3842+78863669+79051094+79227435+79305435+79305764+79320626+79345129+79326210
3827+79281241+79247405+79254902+79305785+79349158+79420662+79549280+79598622
3811+79513762+79418462+79410755+79461407+79539792+79636570+79678822+79680181
3796+79710331+79716406+79681344+79691392+79770177+79852815+79884262+79871334
3780+79861784+79872953+79874690+79856809+79842732+79842942+79842711+79833539
3765+79826021+79837141+79896257+79992118+80039098+80016207+80022338+80101102
3749+80153450+80157493+80228107+80299773+80173146+79918084+79755736+79767381
3734+79859373+79898142+79856648+79824893+79845899+79846271+79786818+79712027
3719+79635386+79530361+79405507+79325860+79317122+79304531+79212090+79030123
3703+78817046+78627343+78435258+78195807+77905325+77585022+77266898+76996666
3688+76797673+76628087+76449062+76282818+76148827+76045981+75980712+75904485
3672+75775861+75658882+75548209+75364469+75123477+74866950+74590188+74315128
3657+74079923+73836352+73532361+73234115+72979445+72665680+72248087+71815220
3641+71438743+71096824+70727936+70321190+69915965+69559801+69260820+68914865
3626+68425782+67860913+67342240+66925194+66553615+66123502+65619053+65083619
3611+64538285+63996651+63474510+62954491+62405948+61816107+61202870+60614696
3595+60070336+59518493+58906048+58254319+57631682+57078378+56571000+56046291
3580+55483832+54908993+54300005+53635520+52970829+52370225+51834066+51296573
3564+50699371+50057753+49430180+48840290+48255746+47654592+47047223+46417257
3549+45725239+45000040+44361894+43858233+43373088+42825487+42263056+41736220
3533+41225479+40674414+40076063+39469310+38874971+38320367+37809041+37282916
3518+36732400+36189515+35634953+35092766+34614329+34157243+33655393+33117367
3503+32619543+32177238+31726489+31281289+30899256+30539281+30107896+29598815
3487+29121591+28759251+28400352+27910463+27395413+26997103+26670983+26300439
3472+25828092+25310468+24873626+24558104+24265063+23894998+23481684+23133997
3456+22865223+22598963+22299429+21981310+21666068+21371973+21102665+20819646
3441+20458891+20020700+19632156+19402285+19252413+19065851+18848117+18660459
3425+18527557+18396396+18220357+18041502+17867441+17627706+17372307+17218213
3410+17127363+17007015+16827613+16553635+16229850+16063237+16122800+16181342
3395+16057353+15846263+15774804+15862106+15947221+15972707+15936411+15842315
3379+15750266+15686089+15659441+15654453+15588537+15491879+15501918+15640674
3364+15812519+15932868+16021031+16145432+16276502+16307328+16248455+16277924
3348+16453490+16604514+16645992+16690067+16811684+16984749+17200954+17447152
3333+17693763+17921477+18077011+18178545+18368187+18700804+19060256+19332239
3317+19504162+19627398+19775445+19955149+20093538+20209182+20441435+20839181
3302+21306128+21728620+22043158+22268572+22489557+22801044+23225681+23644521
3287+23970377+24284573+24654812+25052381+25440247+25780454+26073226+26389920
3271+26823140+27403208+28015511+28547038+29025056+29481370+29912258+30354819
3256+30867036+31447551+32039652+32610841+33172255+33774968+34431746+35089161
3240+35729370+36351405+36946746+37570090+38294396+39086132+39865129+40631672
3225+41428064+42256354+43061599+43838908+44661421+45534590+46401446+47253872
3209+48133305+49055588+49994870+50937733+51889031+52846678+53800576+54752131
3194+55713701+56682941+57638202+58574835+59528597+60518290+61527910+62558319
3179+63611998+64653050+65642588+66604744+67598795+68621714+69617187+70585186
3163+71586489+72626365+73644561+74612035+75540873+76462957+77439904+78482169
3148+79510903+80472323+81374886+82237958+83106173+84032027+84979987+85854571
3132+86657217+87482753+88374056+89288026+90135038+90865023+91560562+92317530
3117+93125298+93951661+94752499+95471525+96157535+96886426+97617434+98291588
3101+98914726+99520662+100149447+100786732+101364486+101875466+102370981
3088+102859868+103341629+103838602+104315157+104739427+105169814+105643853
3074+106128662+106576875+106953113+107273107+107579544+107884179+108174465
3061+108426977+108622719+108763129+108876808+109013476+109180238+109314307
3047+109351191+109292333+109208476+109156177+109105609+108985210+108762421
3034+108459587+108111607+107727829+107292131+106791641+106225104+105559456
3020+104741031+103779787+102701766+101477282+100134964+98730307+97183873
3007+95368889+93233476+90748556+87854346+84495738+80645034+76227703+71151989
2991+65431578+59136411+52360983+45351902+38547349+32480044+27662475+24473024
2976+23144085+23853556+26694915+31564929+38151625+45925519+54107205+61859774
2961+68580275+73945280+77804034+80170785+81237664+81255560+80447477+79042918
2945+77287120+75404317+73562392+71840914+70237599+68757653+67445668+66385094
2930+65779432+65858658+66653287+67931885+69324064+70506493+71304892+71699558
2914+71701541+71246196+70306350+68998898+67500636+65956095+64535420+63447085
2899+62791758+62509313+62470572+62540493+62652182+62856739+63206401+63696752
2883+64337077+65151845+66209973+67644949+69560817+72035052+75140503+78798723
2868+82768879+86817589+90770060+94492188+97912085+101048934+103970694+106697378
2853+109183391+111399151+113404595+115272957+117001813+118578838+120037645
2839+121455419+122912936+124418632+125954191+127522331+129095713+130643716
2826+132132946+133501603+134754310+135958629+137116758+138175069+139169603
2812+140232916+141426836+142726476+144127111+145599202+147044976+148404580
2799+149706307+150978129+152164300+153198409+154097804+154900730+155622153
2785+156272708+156859739+157384564+157837611+158239509+158622656+158958927
2772+159217156+159422751+159596982+159725599+159813521+159884710+159938383
2758+159974818+160020713+160103295+160222804+160376505+160595875+160897294
2745+161247257+161620664+162018624+162440673+162874017+163283930+163640058
2731+163968791+164337980+164787846+165328562+165967865+166696995+167505876
2718+168374147+169229792+169990929+170634422+171181921+171647496+172092710
2704+172631254+173292278+174039149+174838655+175649723+176465611+177294588
2691+178098299+178834253+179518721+180202461+180912238+181638986+182348931
2677+183012463+183612233+184149866+184671328+185210363+185720431+186138542
2664+186494531+186865766+187246825+187590272+187915640+188248506+188561221
2650+188852719+189155511+189465844+189761952+190047424+190315981+190545258
2637+190746663+190932371+191120084+191349249+191614612+191886883+192165053
2623+192470523+192815244+193203563+193626522+194020516+194361033+194694936
2610+195022968+195315489+195568771+195794153+196013116+196250227+196513739
2596+196788182+197062065+197347635+197642496+197913688+198159586+198407403
2583+198655500+198883853+199080534+199271274+199492535+199717076+199897375
2569+200035045+200151765+200263300+200368346+200436901+200454614+200438344
2556+200404109+200383018+200407038+200463428+200533595+200640743+200822752
2542+201094827+201437040+201808528+202200139+202619708+203053668+203519131
2529+204014500+204468640+204861554+205225685+205564591+205892594+206230659
2515+206552707+206838837+207124365+207437696+207770843+208129242+208536576
2502+208986456+209462065+209976464+210514938+211040240+211567237+212123971
2488+212714520+213325094+213913471+214462890+215008021+215574508+216153230
2475+216723178+217295608+217891146+218500291+219117774+219712653+220266752
2461+220838985+221445986+222041580+222597529+223097060+223540480+223952621
2448+224347707+224706583+225026991+225345745+225665060+225943539+226164212
2434+226350257+226510867+226634706+226730181+226811965+226872447+226895290
2421+226926470+227059572+227291708+227553090+227863857+228289661+228812020
2407+229350844+229851636+230343669+230883110+231422537+231932269+232436438
2394+232931582+233373292+233728412+233984708+234148583+234234221+234263845
2380+234271483+234289266+234323165+234347128+234340556+234360007+234477876
2367+234655583+234831944+234986767+235339154+236213101+237377999+238343792
2353+238751168+238518177+238241352+238599484+239468947+240243929+240697495
2340+241043744+241488033+242032967+242491073+242847889+243206358+243523963
2326+243777357+244167946+244843824+245579176+246088852+246420218+246764674
2313+247172779+247618049+248086721+248557607+248998449+249412215+249827972
2299+250248241+250678096+251120619+251553612+251955047+252317944+252635297
2286+252905060+253156353+253423116+253702744+253963566+254169455+254303734
2272+254388348+254454913+254501858+254515312+254499897+254488237+254542890
2259+254726273+255069859+255582058+256255386+257042476+257850559+258540170
2245+259157275+259741195+260265530+260719292+261166299+261638054+262092825
2232+262498856+262865677+263221652+263599796+264002296+264395463+264760854
2218+265137485+265566274+266021886+266453254+266836415+267215428+267651364
2205+268118916+268564381+268989639+269400800+269773254+270117093+270479093
2191+270883751+271313241+271710696+272072361+272477607+272943140+273399565
2178+273813247+274210366+274624189+275069318+275541634+276024740+276491507
2164+276925762+277329046+277692028+278018433+278359441+278747031+279134788
2151+279473302+279779136+280071797+280340971+280608183+280910793+281250932
2137+281637989+282102682+282651204+283274615+283967701+284708855+285480614
2124+286282727+287086550+287856487+288595903+289304966+289972295+290602937
2110+291196892+291758222+292303633+292819195+293262615+293629184+293995752
2097+294428157+294925053+295433692+295942303+296470366+296997475+297513289
2083+298077030+298718883+299389884+300041490+300676533+301327410+301986220
2070+302596458+303145428+303704404+304325938+304970649+305581644+306134286
2056+306650044+307173930+307699106+308197459+308675688+309162690+309672451
2043+310193534+310721120+311245426+311740920+312199923+312646090+313111203
2029+313597000+314089243+314582327+315077008+315558994+316012924+316459987
2016+316920783+317391502+317870152+318360489+318828377+319241078+319645848
2002+320092575+320551046+320965906+321320759+321665887+322070937+322512171
1989+322895500+323202623+323490295+323807901+324152608+324505388+324862848
1975+325231575+325630487+326047197+326470409+326944798+327466302+327951034
1962+328389437+328849365+329339954+329810673+330207539+330503143+330714749
1948+330849700+330857296+330712955+330468473+330115441+329542816+328683303
1935+327601954+326452611+325404727+324675261+324511441+325102733+326479181
1921+328370070+330502358+332750399+334896644+336818699+338590024+340257283
1908+341781715+343135097+344348706+345462651+346477351+347400570+348291697
1894+349169203+349981855+350758126+351559511+352343742+353088315+353828375
1881+354557421+355255161+355944604+356628470+357223545+357749113+358396515
1867+359196946+359970247+360629421+361243274+361893507+362597104+363301598
1854+363945189+364522439+365066673+365611719+366247546+367027153+367788178
1840+368409207+368985868+369577020+370126299+370639534+371227715+371856563
1827+372421201+373010923+373658774+374259090+374796037+375322698+375847873
1813+376367611+376926895+377535424+378120606+378613662+379037182+379509666
1800+380063737+380568537+380956995+381361737+381901543+382466208+382916383
1786+383301253+383692850+384092351+384502839+384875574+385153549+385451451
1773+385890442+386357937+386726524+387001808+387210807+387484298+387922532
1759+388464440+389093653+389766896+390421417+391171007+392058883+392910689
1746+393624067+394256783+394884987+395428604+395704112+395869894+396297758
1732+396868254+397272211+397562574+397769807+397839371+397744499+397545309
1719+397477202+397639312+397802964+397819023+397684548+397406265+397030448
1705+396564130+396001538+395478717+395057242+394584114+394026735+393340123
1691+392418922+391303716+390090779+388866491+387694783+386545468+385310305
1678+384007681+382753376+381610647+380561558+379693833+379075916+378545051
1664+378043839+377728644+377585284+377369194+377029391+377011902+377648682
1651+378243813+378388098+378742447+379559470+380394291+381091554+381870937
1637+383139900+385144384+387323057+389121259+390864809+392920302+395235160
1624+397692648+400048370+402099799+404358125+407254353+410174880+412646943
1610+414916425+417162111+419325677+421373071+423319958+425142769+426815017
1597+428359713+429813460+431172643+432435244+433620434+434722439+435719790
1583+436591439+437294980+437859197+438557385+439452268+440064132+440299925
1570+440624257+441139875+441496578+441484050+441207841+441138474+441613676
1556+442101127+442192496+442093139+441961859+441780355+441433349+440947019
1543+440610916+440682161+440923364+440733031+440101884+439519533+439065884
1529+438452955+437628196+436729333+435812925+434904308+433987340+432936288
1516+431715728+430308870+428622244+426674152+424658457+422680431+420489735
1502+417728178+414241163+409894496+404594227+398388005+391147296+382778713
1489+374598977+368792060+365971337+365035703+364655989+364097321+363040776
1475+361120851+357854916+353159224+347471787+340804320+332676799+323254165
1462+313481023+304130503+296439423+292605711+292975223+295383523+298324931
1448+302000990+306839873+312163768+316686587+319441417+320271418+319725166
1435+318509538+317060219+315588618+314294066+313313363+312742476+312656152
1421+313130682+314341769+316300960+318693173+321353943+324293894+327403325
1408+330506758+333530202+336352101+338638063+340150051+340787055+340259385
1394+338180181+334282118+328241621+319641140+309172612+299384587+293108857
1381+292235751+297274777+307440582+322027383+340584305+361745103+383396826
1367+402599862+416481468+424540182+428194772+429262415+429245179+428920763
1354+428344494+427280718+425562113+423219676+420467201+417540816+414623708
1340+411937741+409794018+408345736+407524929+407313659+407802287+409031984
1327+410956646+413538912+416729846+420454196+424643939+429207426+434105110
1313+439402015+445156942+451328102+457831918+464538007+471261612+477840401
1300+484085834+489792638+494825217+499077966+502382214+504522658+505298790
1286+504495640+501893531+497429513+491531507+485391793+480876878+479938972
1273+483732970+492038464+503392150+515948710+528252409+539441070+549226068
1259+557646642+564837211+571019301+576417076+581154865+585339731+589111643
1246+592552049+595695870+598605606+601371283+604014312+606475780+608745262
1232+610903643+613021665+615070628+617018076+618880265+620628551+622246230
1219+623835545+625467798+627035925+628451079+629758664+631029533+632286725
1205+633454398+634476889+635467710+636559429+637609051+638464387+639151056
1192+639835763+640563015+641151476+641471603+641631919+641791787+641954962
1178+641952888+641666169+641119132+640278089+638971177+637076196+634630030
1165+631655887+628153261+624369633+620801592+617832661+615540926+613797236
1151+612392229+611154768+609899426+608390941+606496801+604160671+601317078
1138+597931102+594067148+589828693+585237039+580427669+575706865+571124123
1124+566313240+560799375+554197941+546116945+535939284+522794936+505839773
1111+484353158+457541275+424508427+384658923+338530270+288519277+238831270
1097+194503258+159767080+136786190+125686418+125468996+134855993+152447165
1084+176585512+205301288+236237737+266973777+295430133+319685255+337729082
1070+347657580+347743371+336196157+311173144+271612181+219382590+161417915
1057+108347688+68955799+45558249+35266643+34763655+43270795+62566236+95594530
1042+144232718+206877151+277786452+349351745+415810859+475108638+527630651
1028+573998994+614315012+648667497+677575401+701847703+722311210+739755785
1015+754863726+768163122+779980323+790389096+799488659+807609117+815049577
1001+821864580+827933777+833282560+838268166+843144858+847679729+851568963
988+855012676+858427296+861824596+864917631+867568508+869923136+872168794
974+874259966+876048499+877696336+879626743+881929465+884250965+886272573
961+888014133+889701039+891376678+892801586+893856645+894815234+895941427
947+897105400+898023181+898680365+899357841+900070855+900484313+900558081
934+900521926+900403875+900019565+899213780+898042576+896668622+895061033
920+892995254+890334624+887118381+883402635+879074101+873831429+867388348
907+859514867+849863895+837861994+822589926+802569587+775661486+739050955
893+689383801+624297940+545557969+460878344+382403904+324354881+301988378
880+327474178+400449216+503177629+609603570+699988205+767246349+813593167
866+844349807+864303497+877117628+885456250+890907502+894201829+895866538
853+896641436+897069357+897011396+896070184+894391125+892567502+890819832
839+888794973+886275264+883506392+880701141+877764610+874493209+870808406
825+866836771+862629203+857791861+851873059+844828008+836552335+826466604
812+813963632+799363377+784515922+772727365+767710145+771120505+780772542
798+792123369+801594405+807964503+811431815+812829872+813177130+812875556
785+811749868+809972714+808025939+806085386+804063665+801788186+799295776
771+796895743+794661912+792260142+789509712+786738935+784236658+781814709
758+779234068+776654212+774316232+772082458+769652380+767023364+764488913
744+762193478+759944681+757505074+754954254+752586397+750434910+748244354
731+745936867+743720637+741665565+739672825+737691744+735641716+733468536
717+731339472+729483785+727796318+726015464+724178107+722519116+721059007
704+719590097+718015187+716428507+714944798+713605430+712392970+711265993
690+710189577+709167253+708249248+707499742+706950239+706480558+705949777
677+705327123+704325708+703084043+703445315+705824495+706555222+704895895
663+704415619+705534244+706539751+707161453+707831529+708686081+709777968
650+710991157+712052999+713098473+714555387+716416119+718312165+720083097
636+721848031+723801253+726050106+728556474+731225793+733902287+736576594
623+739135934+741560014+744120531+747273432+750877405+754415009+757764774
609+761112353+764527871+767969341+771525275+775409353+779490238+783281713
596+786793700+790609054+794889270+799162366+803161915+807095881+811163818
582+815393191+819804574+824361979+828823587+833123869+837417762+841716195
569+846111266+850616203+854903201+858962393+863277306+867969466+872654787
555+877105745+881386072+885713541+890115058+894456261+898796959+903199877
542+907517368+911677571+915884242+920152518+924268997+928220845+932142030
528+936097745+939991464+943642186+947147615+950702596+954224393+957765248
515+961683575+965827465+969530206+972555247+975440152+978640083+981899320
501+984907769+987939313+991198998+994051503+996070140+997918820+1000062011
488+1002221906+1004263637+1006247072+1008210552+1010108111+1011565867
476+1012340653+1012757363+1013110506+1013267011+1012953778+1012223499
465+1011545351+1010885252+1009298683+1006403465+1002716195+998225663+992782764
451+986982349+980831593+973427232+964842138+956234958+947728004+938424907
438+929030721+921768459+917929954+918110450+923716748+935199751+950353712
424+966578036+982754937+998877466+1014304805+1027034799+1036621364+1043723030
411+1049006734+1054222275+1060090180+1064963116+1067939502+1070408818
399+1073741823
##END=
