##TITLE=42
##JCAMP-DX=4.24
##DATA TYPE=INFRARED SPECTRUM
##DATE=16/11/2015
##SAMPLING PROCEDURE=Instrument type and / or accessory
##ORIGIN=Default
##XUNITS=1/CM
##YUNITS=TRANSMITTANCE
##RESOLUTION=4
##FIRSTX=3996.3359
##LASTX=399.24785
##DELTAX=-1.9287336
##MAXY=1.1383145
##MINY=0.016626252
##XFACTOR=1
##YFACTOR=1.060138e-009
##NPOINTS=1866
##FIRSTY=0.082483955
##XYDATA=(X++(Y..Y))
3996+77804924+77893117+77983602+78078992+78175900+78277588+78400056+78538127
3981+78662002+78766971+78871223+78976326+79067022+79123182+79127223+79092111
3965+79086095+79177697+79350535+79523191+79641738+79701686+79723536+79760904
3950+79842744+79912665+79942716+79996754+80102089+80204633+80255951+80273338
3935+80340160+80476671+80584802+80627912+80664647+80718200+80779940+80863671
3919+80983659+81116529+81234922+81329616+81381981+81392228+81405103+81465016
3904+81567793+81668398+81733926+81753190+81729147+81717923+81787486+81893425
3888+81945003+81972855+82021045+82055236+82081043+82102633+82104671+82147590
3873+82278619+82449236+82544985+82507167+82435426+82426058+82458787+82477172
3857+82486737+82601033+82841943+82985882+82939357+82838422+82787217+82805806
3842+82871320+82976324+83132963+83277022+83331474+83321269+83305660+83302638
3827+83291359+83267288+83304761+83418937+83483699+83484015+83494670+83503911
3811+83509330+83541258+83566411+83533520+83541827+83699745+83864451+83891010
3796+83846460+83803294+83763509+83719732+83680017+83664703+83672378+83692084
3780+83737878+83795943+83815235+83797180+83808713+83888065+83988312+84052624
3765+84055815+83997392+83951162+83973181+83987953+83950698+83970025+84103619
3749+84204259+84194033+84202109+84220346+84093197+83889330+83782133+83810751
3734+83903660+83955400+83899921+83777720+83672476+83620666+83612423+83607433
3719+83548806+83436331+83349810+83337623+83312794+83197065+83033356+82859506
3703+82699164+82543024+82315516+81989961+81634656+81324001+81071037+80861605
3688+80664520+80433470+80177948+79948542+79779022+79701307+79717056+79713697
3672+79607927+79446509+79214165+78894465+78591961+78360630+78135469+77865730
3657+77574843+77295363+77035295+76795326+76522635+76119042+75596452+75080397
3641+74668694+74344826+74013817+73614173+73176164+72776359+72428097+72046080
3626+71574147+71052027+70538833+70062578+69591152+69065083+68493191+67925130
3611+67380437+66844403+66271851+65652128+65051977+64503053+63964243+63414461
3595+62847968+62255393+61640407+60956062+60168202+59383983+58716378+58154259
3580+57636055+57093249+56477644+55813514+55165855+54587041+54053568+53443277
3564+52714582+51972650+51306886+50702189+50102783+49499323+48896259+48262086
3549+47565818+46845796+46184298+45587363+44991823+44360848+43706424+43079989
3533+42513042+41966487+41398422+40821577+40262564+39724822+39184816+38602879
3518+37976219+37358843+36809367+36351332+35934769+35476512+34931967+34289572
3503+33632301+33080960+32629408+32193711+31731133+31275231+30852405+30421147
3487+29973112+29540269+29086386+28588876+28140136+27780748+27417079+26984762
3472+26490732+25972095+25538642+25238393+24938047+24559252+24182939+23856449
3456+23544558+23214910+22866350+22505413+22142558+21815980+21541430+21254536
3441+20895345+20498170+20151120+19886766+19649856+19388624+19134348+18955291
3425+18818244+18657413+18520855+18419588+18273706+18051723+17802168+17589150
3410+17410069+17247388+17082655+16833710+16524590+16344980+16354421+16387972
3395+16310524+16171007+16115504+16145006+16119855+16016788+15929192+15894409
3379+15885264+15887240+15913052+15932416+15863395+15724435+15683102+15819855
3364+15997096+16087384+16149762+16276889+16429497+16488352+16440956+16450881
3348+16626184+16854996+17002344+17079837+17165211+17324037+17568516+17825626
3333+18027693+18159488+18235412+18338895+18560470+18874917+19168364+19380500
3317+19566963+19791128+20035955+20248093+20414745+20581537+20827100+21218001
3302+21701527+22109452+22379529+22611846+22885336+23222849+23625977+24027290
3287+24380182+24726432+25092143+25492676+25932723+26341952+26688119+27028626
3271+27434092+27933332+28459434+28953505+29457979+30014872+30580273+31078729
3256+31550719+32105708+32734834+33343179+33910175+34501682+35142109+35821992
3240+36550929+37271538+37898001+38500253+39251265+40127196+40957212+41736751
3225+42546910+43368342+44188864+45062095+45977059+46883378+47781889+48661094
3209+49537734+50468239+51434749+52400194+53379438+54381464+55377097+56348790
3194+57332307+58345149+59361557+60386834+61425408+62464910+63518383+64585498
3179+65658636+66724401+67765371+68820377+69912490+70988200+72022339+73058636
3163+74126341+75203189+76269454+77313545+78296809+79241153+80248431+81329974
3148+82413907+83469186+84466317+85381382+86288351+87283900+88323725+89290024
3132+90167616+91032762+91930820+92826797+93681169+94506544+95327625+96148768
3117+96968219+97810777+98669949+99457956+100165824+100909351+101709397
3103+102451413+103097590+103759087+104486998+105167246+105732405+106263274
3090+106828179+107393696+107920988+108428805+108920424+109388442+109871725
3076+110374890+110845529+111268260+111653152+112005083+112347540+112685492
3063+113002108+113290414+113537594+113734257+113881921+114006702+114149938
3049+114276469+114301102+114228384+114135144+114061063+113982743+113837293
3036+113592855+113281777+112931793+112545228+112103888+111562850+110901303
3022+110137381+109283648+108313997+107183231+105899887+104518350+103022827
3009+101320422+99344124+97049679+94369696+91252097+87677921+83620926+79001704
2993+73720141+67722431+61047087+53893050+46597169+39536034+33192072+28161211
2978+24879678+23514328+24195556+27088741+32173299+39098222+47240622+55793812
2963+63918652+70976540+76589963+80616632+83140040+84334262+84384610+83520202
2947+81992146+80054292+77984417+76015984+74239104+72625202+71101834+69674187
2932+68528064+67936087+68081741+68942579+70269031+71691366+72901140+73749862
2916+74152169+74038829+73450619+72478684+71189585+69682705+68099170+66634717
2901+65500879+64794031+64471273+64410980+64487690+64642087+64866123+65167776
2885+65588216+66206807+67103523+68311365+69863920+71882434+74507986+77772848
2870+81567835+85706726+89971804+94136446+98077185+101770603+105172904+108250999
2855+111050668+113638023+116019200+118164308+120091663+121881734+123585643
2841+125198287+126753738+128322893+129939936+131599302+133262800+134891496
2828+136485277+138035878+139505152+140879212+142170904+143388297+144533345
2814+145635198+146758754+147954375+149263791+150718771+152283273+153865627
2801+155373639+156765985+158065816+159282759+160381759+161362212+162248969
2787+163046049+163770334+164422231+164971493+165424654+165829885+166199371
2774+166493518+166736249+166992038+167223243+167369171+167463191+167541763
2760+167594430+167626984+167649276+167685091+167769201+167907876+168153348
2747+168547475+169010278+169462793+169892242+170281069+170624735+170986393
2733+171410768+171847413+172278043+172764657+173340596+174014041+174808043
2720+175703543+176622684+177495258+178270819+178909110+179419479+179872317
2706+180381955+181026233+181770337+182552195+183354785+184169913+184998984
2693+185853778+186721784+187575608+188404202+189203011+189942631+190607614
2679+191256517+191942458+192612107+193197689+193731179+194281298+194841045
2666+195346677+195775578+196158164+196527384+196878148+197181010+197457714
2652+197765172+198106153+198447416+198774032+199084175+199377886+199642656
2639+199869799+200075830+200276604+200487836+200714965+200961420+201241034
2625+201540972+201872156+202257189+202669785+203100443+203539857+203939255
2612+204277678+204567187+204822483+205074983+205360401+205674873+205983077
2598+206270927+206541938+206796982+207047148+207288248+207504779+207729870
2585+208022260+208372406+208692416+208928357+209118519+209302005+209460358
2571+209598949+209758202+209918664+210037689+210119930+210182942+210218686
2558+210199795+210134407+210080503+210067783+210073883+210114195+210231843
2544+210413304+210666352+211042698+211518348+212008589+212474541+212933423
2530+213385980+213815204+214236205+214655815+215052992+215428663+215800047
2517+216162464+216493634+216790115+217081704+217410442+217789079+218183656
2503+218572090+218979569+219451341+220009077+220601040+221162615+221711145
2490+222294955+222908691+223516129+224113448+224716655+225322323+225932910
2476+226560884+227195169+227815539+228420082+229028869+229650603+230267149
2463+230889248+231540752+232198342+232833484+233429327+233955536+234410342
2449+234831470+235238162+235620805+235970586+236280377+236552555+236800613
2436+237021627+237214333+237386040+237520105+237599099+237643431+237691867
2422+237750002+237812607+237919713+238109608+238399187+238798374+239251872
2409+239704837+240203061+240772802+241369164+241961085+242518259+243048531
2395+243582710+244121781+244630576+245045589+245307338+245419897+245443904
2382+245440447+245432744+245429118+245439744+245451213+245427656+245381609
2368+245366794+245410508+245590479+245863866+246152658+246782079+247978543
2355+249291502+249964919+249823067+249578073+249952578+250840431+251671245
2341+252253130+252760715+253218375+253561703+253843776+254274589+254847815
2328+255331056+255699685+256153662+256784545+257437412+257917477+258241296
2314+258581588+259003321+259449482+259889206+260342873+260821953+261303226
2301+261748207+262160831+262595860+263049190+263467409+263845652+264203093
2287+264525956+264798190+265033036+265253572+265480771+265709207+265914592
2274+266098021+266260703+266369608+266399632+266376158+266335734+266304755
2260+266346023+266535749+266905334+267454468+268152342+268936154+269747627
2247+270486123+271167326+271780781+272313470+272805763+273308879+273821159
2233+274302854+274708618+275062152+275429319+275830895+276258166+276684621
2220+277071129+277419293+277775694+278179631+278626046+279091773+279573299
2206+280045492+280473605+280860760+281239959+281655310+282099279+282522501
2193+282913423+283287647+283655151+284022769+284395502+284794717+285252264
2179+285752006+286238733+286690376+287134457+287588771+288035213+288489696
2166+288967961+289414825+289805044+290180027+290568981+290968533+291351246
2152+291694012+292015133+292335888+292643599+292929411+293203978+293494457
2139+293850633+294292352+294793163+295342382+295961150+296668497+297455288
2125+298291135+299136989+299953466+300738149+301506556+302239513+302937696
2112+303620193+304266426+304860483+305399104+305876722+306311751+306746499
2098+307219985+307699291+308152339+308610139+309125765+309692413+310263306
2085+310828802+311411924+312019615+312640772+313280146+313968827+314708953
2071+315451075+316146671+316772383+317346986+317935590+318561386+319168768
2058+319723946+320272913+320847376+321401768+321903590+322391329+322905689
2044+323430760+323942619+324449670+324964143+325497058+326027442+326513662
2031+326980177+327478626+328011737+328543583+329041920+329500394+329949957
2017+330438652+330941542+331399651+331850676+332349210+332844370+333290869
2004+333727107+334179762+334627638+335046109+335421429+335773894+336160712
1990+336568669+336921668+337225247+337528854+337868359+338247980+338631199
1977+339000447+339370088+339757440+340162277+340602535+341107534+341635895
1963+342126276+342588686+343064224+343549517+344002706+344393881+344719696
1950+344976975+345125096+345106176+344929607+344638847+344181722+343478507
1936+342528667+341371785+340107993+338946051+338161762+338013388+338676994
1923+340130764+342092570+344349914+346753637+349005612+350997244+352827543
1909+354536344+356119737+357556950+358821894+359957664+361035356+362071611
1896+363056084+363959399+364774358+365590723+366434862+367214344+367937547
1882+368677589+369436268+370176225+370879356+371552773+372171709+372778332
1869+373511655+374334936+375083158+375734450+376364041+377017611+377696341
1855+378374817+379034740+379665034+380260637+380841566+381497582+382278554
1842+383028182+383654146+384253966+384853589+385403146+385956750+386615886
1828+387287616+387860084+388437555+389057475+389630308+390139833+390638001
1815+391155117+391697449+392285406+392899310+393480998+393997186+394474129
1801+394991245+395538833+396005038+396394723+396866157+397449195+397943512
1788+398270873+398586511+398996830+399473662+399951083+400319741+400550004
1774+400841494+401324651+401787201+402073913+402274547+402486116+402826324
1761+403311673+403837110+404421440+405065340+405758716+406623067+407605460
1747+408461013+409124478+409697985+410273601+410793612+411103179+411366726
1734+411878220+412417515+412700516+412833681+412907137+412919450+412862974
1720+412781590+412815774+412931904+412906603+412714516+412447173+412134233
1707+411767572+411302013+410757770+410268822+409790248+409151634+408405773
1693+407557670+406511548+405289278+403996644+402740386+401506984+400172407
1680+398716556+397274396+395961971+394755893+393617986+392649340+391898054
1666+391244878+390674434+390282781+390025053+389753044+389487838+389628003
1653+390381482+391015233+391232986+391653482+392433358+393207021+393956002
1639+394923973+396436216+398604418+400820073+402660268+404534028+406754012
1626+409201139+411748934+414161005+416278944+418646795+421632431+424572047
1612+427071209+429430430+431776580+434000612+436092491+438080047+439918274
1599+441603854+443202821+444744300+446179067+447467428+448625491+449682296
1585+450655749+451536603+452277712+452895524+453629493+454514704+455116829
1572+455401433+455748360+456163795+456406399+456394902+456255552+456436957
1558+457046335+457356604+457166597+456848962+456582210+456341742+456051151
1545+455727754+455531337+455574376+455584356+455148371+454406530+453728615
1531+453096382+452339418+451501210+450659657+449791819+448857188+447798051
1518+446559447+445163531+443613056+441873586+439978545+437943340+435615322
1504+432859388+429693753+426027926+421546072+415940085+409262844+401557782
1491+392749305+384081641+377814129+374687794+373593629+373122448+372518158
1477+371473161+369548687+366128500+361086548+354987734+347960502+339464263
1464+329571967+319311407+309579516+301593674+297506508+297738177+300173947
1450+303254459+307101494+312084975+317524428+322154122+324999283+325886799
1437+325327319+323998336+322400690+320793879+319376064+318327721+317774903
1423+317737965+318249401+319493599+321468617+323859830+326538401+329525554
1410+332711064+335962946+339210611+342222783+344619309+346234188+346946680
1396+346369827+344083528+339851080+333407617+324372223+313460033+303268768
1383+296688738+295685879+300864877+311482175+326767315+346121882+368099274
1369+390625773+410691089+425240179+433684383+437447842+438451797+438340699
1356+437940754+437276417+436079700+434199728+431697980+428800699+425758559
1342+422758615+419969368+417647367+415992513+415012707+414688859+415093134
1329+416312650+418329498+421041803+424348334+428193992+432534979+437281533
1315+442396127+447947830+453972569+460391576+467110337+474037070+481039873
1302+487922020+494429832+500375127+505625725+510040618+513460748+515673592
1288+516463925+515592967+512774428+507944157+501631722+495114690+490334120
1275+489334410+493295242+501964902+513847172+527013980+539923453+551680457
1261+561941916+570708675+578167450+584586316+590173524+595051248+599373203
1248+603320991+606963766+610274654+613277663+616095246+618773733+621265614
1234+623604510+625852269+628014961+630067736+632008852+633876090+635675635
1221+637379319+638985061+640529633+642026021+643443920+644768771+646054320
1207+647344199+648540804+649567838+650544833+651582381+652543634+653346112
1194+654056552+654753442+655421321+655958592+656275524+656433849+656560408
1180+656650759+656554786+656178482+655551871+654594498+653101259+650983826
1167+648294208+645080305+641348022+637261924+633333927+630100065+627660135
1153+625792672+624275987+622907339+621445529+619707099+617639312+615203429
1140+612251022+608643724+604478351+599948650+595084195+589971794+584913536
1126+580010680+574908850+569067736+562043062+553478709+542800240+529052699
1113+511276747+488800343+460933148+426697210+385449446+337950727+286812634
1099+236286899+191432440+156467453+133429714+122316665+122088693+131476819
1086+149140479+173455770+202396286+233616607+264778034+293756655+318499399
1072+336907725+346984715+346949070+335047627+309460322+269214629+216400725
1059+158141450+105195189+66299225+43429896+33413546+32903055+41142869+59937615
1043+92380488+140663511+203501766+275253171+348185761+416332946+477473730
1030+531851167+579948722+621807327+657512890+687597399+712890992+734229939
1016+752435214+768218775+782078537+794349817+805206065+814721495+823113580
1003+830762334+837836541+844157297+849673551+854730234+859609983+864172574
989+868182882+871794341+875335352+878789554+881913724+884611270+887012519
976+889268711+891327615+893076839+894709513+896664066+899027195+901364180
962+903316597+904963607+906531005+908068212+909441695+910536254+911488229
949+912531569+913614545+914450363+914994775+915525975+916105808+916485934
935+916555764+916411495+916127397+915620768+914713208+913358279+911720770
922+909847122+907492483+904514607+901012109+897013664+892346609+886726566
908+879873262+871499337+861224384+848489934+832387530+811445690+783430430
895+745278696+693530213+626011494+544782623+457908972+377858011+318937127
881+296314149+322177202+396379515+501269699+610470368+703715377+773464200
868+821626919+853473190+874025626+887221108+895858496+901502940+904796680
854+906336135+906977082+907255276+907023973+905909680+904086971+902135847
841+900219751+897983575+895239307+892247937+889262920+886164219+882618260
827+878590804+874333394+869801500+864581375+858317686+850903271+842154673
814+831515560+818464067+803333598+787890639+775542220+770251872+773704612
800+783552941+795172872+804922305+811473127+815008516+816368674+816515530
787+815949191+814745052+813004430+810921856+808765798+806601475+804127417
773+801396474+798812331+796370995+793766555+790894940+787964910+785197815
760+782535015+779840505+777200981+774688466+772134065+769395476+766654975
746+764161463+761754255+759200754+756589848+754058161+751583034+749115105
733+746697833+744362590+742103981+739870559+737635845+735454711+733273296
719+731005185+728779522+726780834+724920736+723039105+721189915+719497082
706+717914673+716273903+714549079+712879467+711371328+710034165+708826035
692+707667606+706520085+705455269+704535340+703722124+702996616+702346729
679+701723267+701024128+699898927+698503348+698640702+700714224+701262909
665+699706980+699474721+700767130+701767515+702281453+702786171+703405979
652+704297796+705510255+706804801+708070560+709487785+711231275+713234743
638+715269752+717209012+719140794+721241528+723636311+726292477+728959775
625+731561573+734064192+736559840+739312598+742655308+746374098+749863496
611+752972204+756118526+759595948+763194869+766737117+770441795+774394586
598+778378188+782396424+786658445+791043370+795253103+799338695+803458020
584+807638067+811837399+816011936+820368974+825042720+829788431+834251282
571+838430879+842808439+847506529+852028865+856237923+860548352+865107121
557+869717334+874272166+878712078+883045334+887384943+891914250+896523507
544+900881558+904995655+909103398+913506371+918064971+922222472+926120727
530+930309376+934585846+938422312+941837944+945258468+948881172+952569095
517+956384982+960414182+964196560+967486196+970623466+973874195+977214544
503+980554781+983931001+987383235+990593258+993134897+995243390+997445101
490+999680209+1001795561+1003949820+1006161764+1008385740+1010447118+1011736097
476+1012189596+1012650403+1013331157+1013488471+1012773083+1011763759
465+1011156883+1010708332+1009400911+1006543746+1002133352+996824281+991415470
451+985834278+979271424+971389005+962744645+954055643+945259030+935730781
438+926147040+918746962+914949347+914972286+919976682+931109380+947115305
424+965310459+983322663+1000043863+1014834461+1026619801+1035722495+1043137585
411+1049210395+1054038417+1057802804+1061292596+1065126924+1069176139
399+1073741823
##END=
