##TITLE=4
##JCAMP-DX=4.24
##DATA TYPE=INFRARED SPECTRUM
##DATE=16/11/2015
##SAMPLING PROCEDURE=Instrument type and / or accessory
##ORIGIN=Default
##XUNITS=1/CM
##YUNITS=TRANSMITTANCE
##RESOLUTION=4
##FIRSTX=3996.3359
##LASTX=399.24785
##DELTAX=-1.9287336
##MAXY=0.55850512
##MINY=0.018803392
##XFACTOR=1
##YFACTOR=5.2014842e-010
##NPOINTS=1866
##FIRSTY=0.063930444
##XYDATA=(X++(Y..Y))
3996+122908080+122898985+122902809+122926372+122975790+123093031+123266723
3983+123416208+123522592+123622502+123693276+123745716+123861039+124038197
3969+124219868+124386742+124497094+124517878+124552413+124683978+124822878
3956+124927070+125036276+125101049+125043753+124964627+125060225+125232843
3942+125316767+125352792+125341748+125331406+125372616+125376498+125372831
3929+125484873+125623357+125649656+125696510+125862968+126003300+126010534
3915+125999576+126024643+126006638+126002011+126099414+126181963+126224777
3902+126296225+126252050+126163041+126274739+126431715+126307039+126219864
3888+126404084+126390906+126282001+126368074+126361786+126390534+126600466
3875+126700504+126737746+126675523+126532556+126552982+126545146+126413438
3861+126324515+126451826+126870143+127058975+126527385+126075307+126193579
3848+126393370+126352504+126238743+126355469+126558854+126445008+126227370
3834+126246893+126322151+126313944+126234460+126160749+126309317+126371569
3821+126183467+126281056+126406290+126295251+126352403+126603717+126658420
3807+126355698+126268565+126391966+126197963+126111632+126288977+126311394
3794+126229375+126181304+126163771+126216297+126268723+126261532+126246420
3780+126130468+125954083+125904135+126001467+126124839+126104141+126037778
3767+125988904+125885973+125847857+125813508+125675167+125669781+125901428
3753+125970154+125594924+125353594+125723267+125754321+125173900+125066886
3740+125468215+125645502+125415631+125119211+124926884+124929734+124996813
3726+124951306+124851210+124702370+124442935+124169276+124110146+124220083
3713+124076714+123605499+123247458+123156859+123070070+122647499+121968974
3699+121381219+120832124+120220234+119640114+119032743+118171923+117310925
3686+116894528+116705716+116472408+116398289+116470446+116190534+115920356
3672+116014242+115854466+115555281+115563474+115609204+115440303+115264455
3659+115131478+114772900+114472777+114520877+114365040+113723892+113129370
3645+112902901+112759640+112451575+112045211+111676148+111332974+111080178
3632+110949673+110484782+109754360+109419137+109380018+109165345+108548119
3618+107759156+107167791+106648083+106078720+105546693+104975597+104411061
3605+103980684+103529515+102880131+102155626+101470160+100744029+100061593
3591+99556789+98959251+98092730+97319703+96773416+96183305+95453750+94673711
3576+93879319+93096414+92431633+91830012+91030077+90114626+89382551+88745729
3560+88044665+87320725+86604578+85866178+85099510+84354371+83622603+82812505
3545+81949365+81164549+80481361+79776307+78957436+78125630+77403223+76707136
3530+75914506+75110173+74381915+73633223+72842584+72072041+71309900+70553624
3514+69837125+69148100+68424705+67699297+67031493+66332592+65583148+64918904
3499+64340596+63709905+63019225+62376925+61773271+61133427+60483635+59841063
3483+59138054+58395493+57723546+57125836+56509921+55840580+55189278+54587489
3468+53971767+53385480+52878352+52336630+51715096+51100158+50524049+49979664
3452+49471282+48975501+48477858+48003360+47542802+47021413+46422643+45832565
3437+45346131+44985808+44648207+44240300+43817145+43442359+43105714+42767766
3422+42414261+42070207+41705215+41278035+40859733+40525795+40234937+39928902
3406+39609778+39285126+38980527+38770832+38656473+38499665+38198884+37862403
3391+37638348+37487030+37292131+37061691+36872249+36750259+36658350+36558458
3375+36459551+36364687+36256839+36172843+36150050+36174118+36245859+36355885
3360+36465138+36528543+36531844+36528639+36554594+36642275+36840081+37076305
3344+37240833+37352299+37487488+37687776+37951079+38231757+38496141+38755401
3329+39029093+39338010+39692943+40053173+40366824+40661919+41000985+41382428
3314+41759503+42102529+42420496+42765699+43202644+43731868+44295300+44852875
3298+45387022+45862366+46288117+46782848+47395336+48014282+48561811+49065534
3283+49606786+50234301+50890413+51515907+52124700+52742460+53417949+54212617
3267+55070066+55875606+56630217+57382131+58121752+58874411+59716366+60620021
3252+61510584+62395102+63290800+64207576+65154533+66124336+67123610+68137675
3236+69135982+70131497+71172705+72277719+73407191+74528370+75627375+76699831
3221+77783803+78922879+80109919+81314700+82518578+83706678+84878828+86046997
3206+87221303+88401861+89575186+90744336+91937872+93172367+94426658+95651700
3190+96825490+98013762+99257948+100495537+101683974+102822062+103934059
3177+105087459+106272795+107411592+108523510+109669305+110808467+111902201
3163+113012966+114174252+115322603+116379553+117304630+118181248+119159395
3150+120232424+121291694+122269375+123164852+124043110+124927672+125810385
3136+126689761+127523974+128340281+129194533+130023002+130779994+131490390
3123+132140726+132754694+133386767+134030614+134707736+135433402+136118545
3109+136709479+137261367+137817824+138370929+138900471+139378547+139814797
3096+140249601+140680136+141092179+141467280+141779084+142074716+142390674
3082+142658446+142847536+143025354+143237534+143463251+143656825+143791312
3069+143869106+143903541+143902667+143885464+143854667+143777948+143660435
3055+143526405+143365905+143183404+142966382+142667484+142311963+141956973
3042+141571530+141116114+140612670+140055153+139416692+138700981+137907263
3028+137030006+136082592+135076076+134003012+132824093+131472987+129940840
3015+128293299+126559542+124677919+122574189+120235861+117664855+114830697
3001+111711084+108305099+104551436+100409629+95859512+90852639+85366122
2988+79428286+73071660+66371639+59576718+53209221+47852027+43763434+40849810
2972+38899536+37621263+36714267+36210404+36554050+38272666+41602634+46244357
2957+51337642+55758092+58709124+60008281+59763048+58134973+55459406+52334994
2941+49593024+48045826+48084770+49571714+52026954+54928818+57997767+61187042
2926+64516938+68003975+71597919+75164590+78553285+81567432+83957791+85587584
2910+86477467+86787280+86808422+86744473+86607421+86355835+85915231+85126876
2895+83799010+81811698+79172761+75929847+72079332+67733897+63405714+60063614
2880+58809975+60260318+64115917+69438139+75369680+81480679+87565171+93433851
2864+98960633+104145538+109014972+113603407+118073589+122653401+127449332
2851+132383102+137224239+141710415+145720892+149299889+152527275+155421516
2837+157985875+160324002+162588189+164833053+167038913+169193522+171282957
2824+173281764+175173442+176963134+178675175+180313019+181845538+183287660
2810+184725942+186214888+187711010+189144193+190519020+191856218+193098291
2797+194206464+195208095+196106264+196877723+197515067+198047961+198528945
2783+198981467+199395157+199744676+200022145+200252560+200440577+200563462
2770+200626373+200669831+200732742+200823742+200940182+201072105+201181569
2756+201266983+201377263+201499346+201556699+201505305+201369557+201216176
2743+201103833+201071805+201189519+201553963+202159594+202886062+203642008
2729+204350414+204912142+205328310+205728822+206249927+206948721+207805795
2716+208775899+209795477+210758577+211581459+212261732+212856506+213412218
2702+213916894+214383883+214841791+215230901+215497226+215686016+215847118
2689+215962540+216014436+215995643+215858763+215617018+215411111+215391330
2675+215635954+216156730+216874217+217641794+218358779+219003171+219577117
2662+220106803+220651514+221218628+221753728+222250812+222737124+223208339
2648+223656779+224085896+224507923+224949344+225391224+225762858+226074619
2635+226403311+226737145+227010088+227226451+227425683+227608141+227767682
2621+227894248+227961456+227996378+228060478+228124291+228102490+228033907
2608+228034179+228095586+228137053+228130035+228091632+228062984+228053316
2594+228037001+228013953+227980750+227937034+227903158+227860372+227813533
2581+227849070+227997524+228175112+228323924+228476689+228664877+228874250
2567+229080357+229275277+229463895+229648345+229814889+229950594+230077619
2554+230199402+230269904+230291734+230330208+230429559+230585060+230757907
2540+230945035+231206934+231548775+231891762+232192379+232486335+232823091
2527+233193580+233553627+233901613+234276600+234687267+235094583+235497158
2513+235922078+236330124+236708133+237127195+237587552+238041435+238494860
2500+238921012+239283365+239612286+239919978+240183024+240420271+240666758
2486+240915593+241162395+241416817+241663418+241910965+242197673+242504377
2473+242803118+243113804+243416928+243688109+243980260+244339705+244733213
2459+245104604+245453478+245808455+246168673+246522332+246869200+247204811
2446+247521685+247828733+248142628+248465805+248778755+249080790+249403308
2432+249734334+250014711+250234813+250453053+250699282+250940440+251136391
2419+251272297+251367551+251459081+251571438+251705654+251867572+252072175
2405+252305627+252537818+252761128+252983923+253212304+253436933+253667806
2392+253917788+254180145+254413826+254587747+254719012+254828734+254904278
2378+254935046+254919175+254831942+254660971+254478055+254351631+254218705
2365+254115773+254270758+254761096+255464631+256248753+256809879+256472120
2351+255563466+255460563+256318625+256924786+256854914+256795040+257010357
2338+257362841+257757122+258170855+258661680+259237474+259814729+260350302
2324+260874100+261326909+261644012+261931637+262298158+262696364+263058789
2311+263426198+263827326+264220375+264569736+264888015+265196237+265489134
2297+265780254+266075241+266340922+266563086+266770039+266968597+267127335
2284+267231270+267309507+267399175+267498010+267583639+267648125+267691670
2270+267720175+267749539+267795920+267862756+267955174+268086037+268246179
2257+268404144+268550706+268702254+268854030+269023253+269180559+269330817
2243+269463113+269598704+269756869+269925949+270111415+270331001+270589979
2230+270860357+271093523+271303913+271531922+271756521+271932018+272064286
2216+272203944+272350650+272461918+272533366+272555253+272517094+272483977
2203+272526777+272673598+272945867+273325280+273772990+274263270+274739026
2189+275143677+275492981+275834378+276186232+276540291+276861606+277129865
2176+277389415+277662315+277898975+278098766+278312708+278527940+278724665
2162+278938120+279176557+279413704+279651310+279895333+280135001+280375300
2149+280616114+280850712+281093875+281327356+281513767+281677032+281868056
2135+282089361+282315708+282546582+282778859+282988218+283170676+283358205
2122+283582175+283829091+284081479+284361885+284669133+284946789+285172334
2108+285404840+285693783+286027703+286383137+286738715+287074898+287427267
2095+287779751+288102040+288384136+288649330+288888425+289061315+289146714
2081+289156884+289118210+289042350+288936468+288809872+288671790+288554247
2068+288492969+288504085+288639761+288920339+289331579+289848187+290375165
2054+290871089+291392338+291953922+292492016+292938006+293248550+293409494
2041+293505292+293628793+293788906+294021470+294350148+294734717+295150455
2027+295636897+296225640+296877265+297560517+298248439+298881816+299445836
2014+299934111+300376549+300843682+301318205+301739988+302113357+302451144
2000+302728799+302991644+303323272+303627312+303815730+304076282+304399832
1987+304656689+304886903+305141125+305424252+305693428+305935932+306177835
1973+306428934+306701232+306938580+307116799+307332575+307525490+307630513
1960+307715397+307788363+307805093+307743930+307573332+307294072+306957373
1946+306602483+306132657+305667702+305497476+305488022+305534661+305735368
1933+306083297+306522584+307054260+307726140+308471587+309319077+310377789
1919+311330676+312239617+313244012+314054662+314645868+315175597+315719277
1906+316224282+316664657+317070484+317449954+317792038+318086854+318444351
1892+318805315+318974395+319225293+319620863+319902587+320120139+320348692
1879+320583089+320792390+320985735+321252103+321400929+321458082+321848295
1865+322396730+322754342+323002547+323280719+323582266+323854020+324057277
1852+324179747+324225011+324341207+324292935+324173559+324538505+324921814
1838+325007414+325164060+325570861+325952737+326128692+326541509+327007696
1825+327269824+327651099+328011547+328201254+328407920+328743329+329042241
1811+329254465+329549653+329866785+330078178+330160455+330207036+330426565
1798+330821047+331145685+331128869+331106638+331564002+331984897+331976732
1784+331958340+332079750+332149851+332272837+332432778+332346261+332176780
1771+332502736+332896444+333100475+333233286+333109012+333129438+333407208
1757+333532628+333753991+333938655+333845234+333963808+334324342+334551491
1744+334588017+334474342+334442428+334867305+334927323+334607899+335053689
1730+335614958+335682682+335560126+335412045+335440894+335391762+334921192
1717+334756180+335157824+335472263+335437628+335173809+334739994+334596067
1703+334719224+334255243+334130682+334321706+333962490+333776966+333448976
1690+332877193+332486063+331663209+330797069+330857430+330903152+330340192
1676+329413203+328992595+329009468+328612322+328392622+328725883+328754416
1663+328483951+328610804+329096615+329544496+329205592+328906307+330296074
1649+331365815+331116951+331183815+331881650+332354025+332700922+332998746
1636+333516270+334835993+336130277+336717501+337242331+338080540+338858760
1622+339795518+340882792+341428076+341989919+343288528+344399637+344962998
1609+345512407+346232873+346942138+347552682+348149762+348754777+349291209
1595+349768569+350255755+350715210+351086201+351391673+351649132+351837320
1582+352033615+352237932+352005598+351763666+352306458+352496680+351867687
1568+351583242+351593097+351534798+351304096+350245442+349613412+350339923
1555+350481959+349819362+349017163+348297728+347585026+346758849+345948600
1541+344916732+344176814+344143210+343331958+341645514+340394632+339314090
1528+337816578+336343933+334918127+333172725+331740043+330378723+328670392
1514+326917627+325143147+323226689+320492905+317307660+314977267+312676927
1501+309309710+304973019+300113332+295286074+289962578+282980282+274541040
1487+265665748+256883819+248337405+240419097+233717779+228206668+222994912
1474+216758694+209596332+203286273+198758358+195665759+193134817+190334657
1460+187735834+188191106+194841545+206261701+218367488+229092977+237681747
1447+243596235+246669267+247662289+248083757+248954137+250660091+253093759
1433+255129508+256233340+257037086+257922822+258782230+259792269+260947782
1420+262157554+263872676+265832622+267509699+269059751+270678128+272276309
1406+273698878+275063893+276287244+276876560+276730484+275508909+272795122
1393+268998616+264173335+258176470+252354099+248937837+249422387+254532715
1379+263609659+274139941+283337808+290048579+294583743+297814051+300693567
1366+303360686+305331060+306558021+307147853+307066063+306506570+305735053
1352+304816487+303776138+303050401+303512721+305719956+309085167+312483066
1339+315576352+318571977+321649793+324984610+328645583+332587448+336754056
1325+341107105+345522148+349831566+354015391+358094709+361881045+365178075
1312+367966261+370141582+371575381+372295302+372442839+372268689+372050506
1298+372007563+372249580+372811939+373728758+374993505+376469531+377927050
1285+379132955+379869092+379967812+379450775+378701117+378397162+379133585
1271+381093159+383973935+387225816+390387255+393203114+395534309+397264728
1258+398273650+398454246+397699947+395857343+392811068+388565477+383251635
1244+377196185+371038691+365641827+361837214+360446416+362237683+367424271
1231+375343926+384730956+394282080+403033986+410487024+416629134+421678298
1217+425805057+429176629+432004292+434433662+436535416+438412111+440156253
1204+441752342+443136551+444274389+445324707+446327842+447217158+447943010
1190+448532068+449001923+449353604+449616048+449840475+450021330+450105583
1177+450103664+450025827+449817299+449433704+448845763+448040728+447020920
1163+445792670+444416711+442962429+441440424+439804800+437923206+435598056
1150+432678205+429102660+424836185+419909319+414589690+409351880+404607243
1136+400553765+397211386+394453710+392079687+389965214+388046979+386142352
1123+383935289+381086284+377178681+371619155+363706661+352713802+337996229
1109+319262707+297052733+273436176+252072977+236787817+229434202+228965264
1096+232752503+238654486+245734428+253540552+261194469+267070555+269079375
1082+265093878+253181164+232037967+202333114+168568611+138972177+121556659
1069+118703249+124748207+129304713+124764350+111411333+95524639+83895532
1055+80647418+87599376+105640930+135076377+175005608+222515647+272714421
1042+320144318+360570633+391787306+413311535+425723554+429846617+425700750
1028+411861636+385529745+344300000+291173955+238828236+205196472+201732726
1015+226120929+265927532+308783218+349001607+385727101+418528519+446115933
1001+467257082+481640163+489864173+492890595+491603616+486546975+477894593
988+465577226+449198533+427844330+399998970+363664721+317321296+262456925
974+206046312+159215300+132177252+130594642+155522800+203518278+266474908
961+334142743+397840837+452170610+495026582+526987786+550123832+566701972
947+578549026+587073839+593342859+597991383+601355850+603722739+605292129
934+606147097+606333824+605907543+604907445+603259846+600866830+597651160
920+593408864+587899300+581002375+572734647+563412620+553839522+545320324
907+539625923+538291446+541044968+545081629+546438222+542063229+530588541
893+512281558+489740873+468785419+456746912+457342559+468382572+486475585
880+510294654+537231359+561943555+580209974+591135138+595623634+594612076
866+588300485+576658092+561553772+548782881+546080754+556431355+574594698
853+592424007+605585884+614165530+619629315+622939122+624657079+625341821
839+625470565+625255419+624667794+623752493+622671894+621487418+620204737
825+618855306+617394034+615681749+613759360+611783170+609687805+607343433
812+604730916+601829457+598703398+595795464+593669446+592473396+591923986
798+591501315+590842528+589870505+588511677+586765530+584719898+582484846
785+580202468+577828645+575133680+571976738+568354383+564303054+559934879
771+555743061+552684668+551209588+550444631+548780246+544986232+538898266
758+531767230+526530680+526322009+531259933+538153822+543878246+547414829
744+549133130+549685634+549564568+549058990+548300221+547417236+546557226
731+545642555+544544596+543359318+542247836+541190901+540186047+539083733
717+537917935+536892798+535950111+534950242+533994261+533184328+532355945
704+531373666+530379641+529536705+528808361+528091475+527401806+526832916
690+526395634+526022123+525712038+525546510+525535853+525581117+525642309
677+525614234+525009419+523994653+524699793+527971269+530028876+528992337
663+528161548+528771405+529752825+530660218+531685011+532948727+534456753
650+536150990+537846430+539476152+541246879+543318294+545529339+547634730
636+549628166+551655922+553857571+556350740+559111481+561946879+564808632
623+567652395+570523774+573665933+576970526+580174794+583397683+586794808
609+590260746+593756020+597489242+601442194+605384260+609333030+613400516
596+617620180+621866831+626047878+630296648+634610850+638994609+643540917
582+648161652+652812925+657539084+662221240+666842261+671355452+675869100
569+680564205+685354020+690138621+694762965+699157209+703555980+708123888
555+712737862+717272939+721835061+726579612+731511577+736512355+741327838
542+745710451+749877518+754261449+758772692+763043406+767224453+771695130
528+776170849+780434746+784878436+789052378+792666827+796422108+800686291
515+805003416+808542348+811297761+813798780+816252129+818518808+820254699
501+821623783+822361294+822072982+820982070+818813538+815570481+811862869
488+807586884+802914239+799646201+799542553+802459940+806723608+810141990
474+810881163+808612077+804296500+799342418+796865635+800153670+810317945
461+826639343+847351432+869800444+889166598+903282508+914308570+922912853
447+929213042+934023426+938412399+943628151+949013842+953600428+958494177
434+963864628+968974611+974907133+982083433+989746632+997570489+1004550608
420+1010252228+1018365428+1027802505+1032831473+1035601840+1041072328
409+1049399242+1057412633+1063066010+1066355592+1068848074+1073741823
##END=
