##TITLE=4
##JCAMP-DX=4.24
##DATA TYPE=INFRARED SPECTRUM
##DATE=16/11/2015
##SAMPLING PROCEDURE=Instrument type and / or accessory
##ORIGIN=Default
##XUNITS=1/CM
##YUNITS=TRANSMITTANCE
##RESOLUTION=4
##FIRSTX=3996.3359
##LASTX=399.24785
##DELTAX=-1.9287336
##MAXY=0.54632467
##MINY=0.013864133
##XFACTOR=1
##YFACTOR=5.088045e-010
##NPOINTS=1866
##FIRSTY=0.073632203
##XYDATA=(X++(Y..Y))
3996+144716101+144867278+144943394+144950628+145014590+145194746+145348940
3983+145406767+145451751+145554503+145746345+145988941+146163577+146238536
3969+146288806+146357381+146464424+146609656+146744755+146852911+146955165
3956+147056394+147151488+147224221+147237180+147247211+147395489+147551953
3942+147513045+147451617+147517438+147666771+147857837+147940659+147890052
3929+147928447+148082978+148175772+148225530+148346967+148446996+148421912
3915+148370440+148392903+148438166+148528793+148738222+148872984+148787467
3902+148670921+148571947+148458798+148570585+148868327+148856174+148620358
3888+148734927+148928907+148917514+149041089+149031410+148771272+148719478
3875+148832539+148991507+149023210+148787496+148753744+148916094+148825628
3861+148568476+148516859+148958852+149471646+149127587+148351682+148147218
3848+148296521+148347758+148283737+148324285+148491043+148453175+148286461
3834+148322235+148385435+148339763+148332631+148375053+148556205+148683192
3821+148471508+148512275+148761461+148551124+148308572+148437726+148556615
3807+148347436+148269226+148562238+148512393+148230860+148292494+148370440
3794+148340012+148367204+148348417+148255022+148141141+148068349+148129309
3780+148158742+148022003+147927788+147982290+148063824+147986097+147779554
3767+147634307+147526400+147522300+147607187+147495356+147311715+147410088
3753+147593115+147321950+146909697+147199649+147529915+147011468+146598395
3740+146868535+147035820+146689916+146226968+145990347+146069538+146274266
3726+146215956+145920718+145706354+145583336+145444737+145369251+145436039
3713+145294277+144661305+143958500+143548839+143321867+142895103+142097013
3699+141224448+140405653+139548448+138731366+137968040+137006956+135928388
3686+135200689+134782579+134372888+134168570+134284370+134143516+133812430
3672+133916413+133897772+133434985+133178595+133148664+132996593+132806626
3659+132651787+132262187+131839391+131877962+131914541+131312086+130483099
3645+129986486+129726435+129425911+129028418+128574754+128063043+127663779
3632+127526454+127093642+126026760+125161179+124845221+124634767+124150322
3618+123373348+122665454+122072261+121404475+120701450+119895556+118977508
3605+118151692+117348733+116413934+115502066+114706546+113832780+112898647
3591+112159980+111423663+110315487+109117576+108206499+107417979+106541907
3578+105584674+104550300+103454014+102474611+101683228+100786494+99622600
3564+98467440+97438382+96402002+95359318+94374036+93369585+92268965+91208636
3549+90253980+89199325+88007799+86868221+85838137+84860674+83860324+82802601
3533+81722965+80616524+79479588+78391774+77378032+76378993+75422938+74538812
3518+73601274+72537965+71442543+70402268+69411670+68464871+67565354+66616292
3503+65597858+64646870+63785031+62930418+62079796+61293758+60531178+59656585
3487+58709305+57856886+57050449+56138721+55222233+54458540+53751861+52948079
3472+52055229+51166999+50389619+49766059+49183977+48515052+47770048+47017134
3456+46285261+45600544+44986198+44414476+43825595+43180876+42542637+41977625
3441+41401136+40729612+40047300+39469208+38980056+38511979+38056575+37640940
3425+37243389+36820116+36407267+36025311+35597876+35071376+34503132+34025083
3410+33705895+33445709+33102550+32675533+32248593+31905160+31678006+31481141
3395+31217375+30929487+30729994+30628296+30500466+30296142+30086461+29885112
3379+29652329+29433203+29271457+29125977+28952181+28777675+28716669+28806027
3364+28916005+28948755+28939153+28941821+28968223+28989839+28979358+29002005
3348+29119860+29262488+29365992+29462751+29608344+29841277+30134508+30393703
3333+30584268+30773265+31013284+31314478+31683486+32072742+32407821+32696305
3317+33004144+33353665+33693514+33989913+34285653+34631791+35050506+35535964
3302+36051266+36536834+36952042+37380124+37942248+38584580+39192182+39771636
3287+40348864+40902923+41450253+42044556+42707864+43433001+44159404+44805423
3271+45450234+46221929+47062663+47878680+48686826+49525810+50389348+51255452
3256+52129068+53023774+53955513+54937080+55966933+57051368+58160163+59230589
3240+60272197+61342516+62454913+63616655+64855200+66151895+67470063+68802582
3225+70132809+71443737+72746750+74075461+75458009+76885827+78332139+79769138
3209+81202769+82676032+84170609+85620713+87029231+88462123+89962571+91512770
3194+93074105+94632168+96179314+97720983+99292979+100900755+102503817+104074429
3179+105608608+107113449+108612119+110149439+111748239+113354405+114899984
3165+116388872+117869808+119358783+120828561+122266168+123670271+125051969
3152+126451255+127880031+129315061+130722151+132036885+133248282+134463662
3138+135748276+137043520+138292418+139495000+140666787+141803356+142901033
3125+143968940+144995583+145993041+146996752+147995411+148971372+149937450
3111+150884916+151781116+152631174+153469416+154289748+155071921+155836770
3098+156584076+157266162+157875763+158459855+159064125+159686847+160264862
3084+160767406+161221187+161611944+161917052+162183648+162453729+162715581
3071+162945554+163117715+163240133+163358964+163481587+163551230+163506407
3057+163373255+163239460+163099089+162877433+162578124+162237140+161838651
3044+161368704+160832261+160212278+159503864+158728457+157880492+156952561
3030+155955454+154839400+153518822+152034708+150509930+148934925+147199064
3017+145237402+143047671+140645452+138018018+135132158+131937545+128392137
3003+124523990+120341283+115793343+110820710+105394618+99418889+92846600
2990+85731732+78174745+70279726+62176969+54141630+46703144+40479545+35771872
2974+32478713+30338747+28953468+27919451+27248447+27371336+28828689+31968093
2959+36566882+41742556+46334722+49527659+51083986+50997276+49355212+46487474
2943+43048376+39998966+38264086+38262669+39768986+42220279+45147183+48345962
2928+51800868+55514550+59416142+63405132+67424010+71372827+74978887+77904034
2912+79939227+81088031+81557327+81655445+81603454+81458500+81211247+80750847
2897+79828085+78213462+75813007+72685035+68903050+64439016+59432919+54508836
2882+50694079+49105771+50458604+54526306+60324246+66941755+73913675+81014339
2866+88078673+94955251+101499257+107627569+113439065+119193651+125146243
2853+131455678+138082521+144720523+150997538+156702731+161781762+166289836
2839+170341551+174032543+177473164+180798908+184079609+187319412+190513747
2826+193630194+196593238+199366988+202003750+204536515+206927239+209186468
2812+211394649+213580353+215749510+217946035+220138753+222222218+224156599
2799+225974887+227689604+229246993+230605892+231787153+232796370+233612163
2785+234274494+234878194+235457732+236000926+236503015+236909997+237175626
2772+237333525+237446967+237557114+237661125+237763306+237897468+238088959
2758+238321011+238533076+238702396+238827567+238876154+238839780+238711753
2745+238505019+238307847+238212870+238316735+238743515+239548501+240648814
2731+241825931+242835748+243584138+244145035+244676778+245364984+246349307
2718+247640085+249087810+250507508+251821804+253014296+254063050+254959484
2704+255730454+256433948+257100775+257722061+258284481+258748527+259068571
2691+259246663+259297007+259238024+259116660+258935903+258664358+258392314
2677+258333858+258642832+259305090+260206766+261240291+262303483+263281041
2664+264120659+264885127+265647048+266389727+267098668+267803275+268488816
2650+269133268+269763047+270382108+270959786+271498338+272023505+272538218
2637+273016058+273441270+273841794+274230164+274588603+274915500+275201718
2623+275423564+275561153+275626843+275660317+275657916+275599108+275532305
2610+275510311+275507470+275497718+275504102+275511190+275454842+275336583
2596+275222189+275129761+275033964+274912103+274778790+274687621+274627466
2583+274572232+274571294+274632005+274727363+274890694+275128794+275397440
2569+275680203+275966772+276240866+276496479+276733057+276947698+277107837
2556+277192329+277240652+277297029+277364183+277443110+277565646+277744792
2542+277946489+278150382+278407343+278772576+279211876+279653547+280076914
2529+280514105+280996280+281510377+282023244+282513853+282992367+283499992
2515+284046598+284599412+285147950+285692476+286228890+286790080+287395083
2502+287996776+288551172+289048693+289491536+289899088+290285877+290649499
2488+290980145+291265016+291519868+291793171+292112776+292456395+292795066
2475+293129607+293472026+293816964+294166441+294577420+295070636+295575127
2461+296045353+296497655+296961380+297434534+297890527+298326751+298739282
2448+299111486+299478916+299882017+300278850+300641038+301027680+301471548
2434+301912868+302289318+302616391+302922114+303194538+303452436+303728960
2421+303974850+304127346+304212101+304276942+304352384+304474158+304657141
2407+304894626+305177681+305482642+305771760+306003124+306212377+306454782
2394+306780215+307171894+307563251+307906959+308188550+308385180+308474475
2380+308443783+308272368+307959558+307523070+307019282+306584053+306270218
2367+305986489+305831739+306086503+306712504+307396698+308038807+308675733
2353+308978703+309035343+309429043+309849072+309583295+309072478+309112835
2340+309566426+310172396+310853895+311565794+312267209+312936056+313592311
2326+314234771+314819508+315305959+315745199+316233963+316773774+317267810
2313+317688132+318119670+318590159+319046562+319462725+319833523+320162294
2299+320491300+320836121+321157776+321445282+321705406+321930210+322124380
2286+322296234+322439914+322549915+322638917+322708677+322718781+322656459
2272+322590067+322575599+322586347+322584883+322595895+322668116+322799788
2259+322955915+323120769+323284247+323422773+323536669+323689428+323821862
2245+323951104+324093993+324240895+324397695+324601384+324875389+325191070
2232+325500365+325787726+326045594+326266972+326489169+326739131+326964052
2218+327119857+327230619+327326269+327387331+327376290+327307935+327218318
2205+327150490+327163523+327293761+327586890+328064994+328643873+329224598
2191+329781366+330310048+330801741+331249709+331656470+332045045+332425420
2178+332772759+333055551+333299567+333578961+333885006+334144339+334366507
2164+334608415+334869886+335140728+335432540+335728950+336015842+336308708
2151+336608105+336898159+337166776+337413457+337635889+337814625+337969786
2137+338157249+338401236+338694425+338976250+339205769+339439857+339707888
2124+339978877+340251652+340540067+340831850+341118800+341409030+341700578
2110+342000327+342327751+342683671+343046943+343420903+343834753+344260258
2097+344698327+345115398+345497500+345835292+346115125+346328186+346492923
2083+346600610+346611329+346528711+346378441+346169071+345925319+345660832
2070+345385713+345182845+345140028+345283942+345615525+346105519+346710522
2056+347393515+348111155+348815322+349470669+350047556+350507122+350833521
2043+351032172+351132274+351204348+351320499+351546357+351920552+352418366
2029+352996689+353647379+354387247+355201590+356031310+356825328+357583119
2016+358320586+359005980+359594612+360105868+360612468+361140652+361637500
2002+362057265+362411076+362710591+362992855+363301712+363592118+363859036
1989+364144229+364412699+364669074+364936520+365197698+365455069+365703448
1975+365911266+366087513+366325379+366645511+366911726+367059477+367168833
1962+367276608+367339721+367324082+367220612+367019267+366696909+366212713
1948+365562170+364857622+364165462+363477402+362973174+362795346+362870525
1935+363137560+363547221+364051361+364652703+365429999+366437312+367614253
1921+368970458+370380550+371577494+372599333+373547575+374379930+375097833
1908+375740703+376350480+376907043+377368951+377778144+378181010+378533211
1894+378858673+379261101+379621180+379872957+380156685+380432419+380649667
1881+380866388+381078364+381227726+381316289+381514589+381863451+382165776
1867+382448480+382841301+383238750+383570890+383870316+384140280+384390710
1854+384588834+384660059+384610447+384660557+384818060+384791351+384758315
1840+384927709+385114909+385298858+385635186+386105734+386499873+386905054
1827+387447969+387861496+388149295+388485330+388786894+389014803+389258643
1813+389542928+389790839+390010430+390257434+390520427+390775016+390959932
1800+391057895+391194254+391489317+391778668+391853906+391939628+392179807
1786+392325332+392345130+392398109+392397846+392298945+392297949+392415008
1773+392478648+392575323+392711301+392735433+392800566+392877971+392885351
1759+392998368+393083006+393126614+393339645+393555048+393669559+393795989
1746+393885840+393937678+393915010+393735893+393789048+394177623+394332871
1732+394341569+394458628+394425827+394256111+393998213+393740579+393688448
1719+393651108+393464904+393294778+393087253+392763401+392434688+392021542
1705+391580954+391409657+391166109+390758674+390592121+390150713+389362142
1691+388574830+387681793+386982751+386412218+385477067+384519044+383778883
1678+383035120+382117717+381253059+380843105+380558263+380096179+379885228
1664+379907778+379763103+379521312+379460982+379849557+380519810+380891047
1651+381308469+382098271+382627597+382860484+383256674+383738555+384397621
1637+385451852+386650026+387810478+388977081+390019363+390997243+392161181
1624+393332587+394280214+395280937+396401502+397396427+398371612+399362671
1610+400190340+400900804+401616599+402338162+403030000+403691438+404323033
1597+404892394+405380807+405798141+406153915+406445141+406678028+406825809
1583+406809467+406680166+406689187+406742957+406486992+406230236+406154706
1570+405789326+405149970+404476319+403797075+403424754+403176491+402598608
1556+402101028+401619703+400794172+399756401+398634225+397498637+396392306
1543+395416827+394408694+393031140+391715761+390446772+388670128+386696533
1529+384921881+383007503+380926953+378922108+376718203+374372462+372120819
1516+369691143+367049227+364379957+361761616+358739091+354704157+350398791
1502+346399762+341968463+336464073+329888232+322833497+315396776+306361094
1489+295168424+282947354+270849669+259341259+248804082+239826402+232473368
1475+225681831+217737778+208340670+199719203+193675178+189788361+186441604
1462+182573311+179247494+179862630+187552782+200793715+215514895+229150215
1448+240285865+247892067+251796998+253058519+253472895+254647962+257020236
1435+259799185+262064797+263563042+264556795+265435745+266379916+267495707
1421+268976262+270797216+272726472+274638185+276505441+278368567+280259341
1408+282162151+284007969+285661227+287017930+287846887+287686162+285958252
1394+282294614+277062121+270676702+263107342+255500320+250622927+250867792
1381+257235991+268754328+282276837+294345792+303160507+309000697+313230914
1367+316882808+320205961+322878979+324461423+324905291+324521519+323641573
1354+322476786+321107783+319605029+318473130+318832975+321473280+325755159
1340+330246671+334221041+337894402+341740935+346034265+350787541+355946730
1327+361459056+367204299+373015642+378775851+384406437+389762314+394662580
1313+398993689+402664356+405514003+407381815+408234085+408258100+407842025
1300+407384422+407148459+407265664+407850811+408980337+410573119+412413460
1286+414197894+415606492+416371605+416307350+415448110+414262383+413619893
1273+414367141+416795236+420471614+424652044+428761044+432462227+435502412
1259+437672726+438853855+438910173+437643234+434873219+430516718+424597043
1246+417210754+408744111+400128282+392547208+387065251+384774364+386729715
1232+393280252+403587383+415937372+428585675+440278093+450307059+458560057
1219+465297823+470756760+475163341+478851902+482077589+484907027+487365638
1205+489530681+491485504+493261913+494786925+496127666+497271484+498265413
1192+499133996+499831310+500345935+500722092+500939164+501008808+501009921
1178+500932135+500728418+500394375+499906752+499201238+498211878+496925727
1165+495361646+493534102+491480056+489275711+486977357+484528322+481760942
1151+478449417+474391785+469458865+463545224+456709318+449383096+442211156
1138+435716878+430163755+425535884+421613880+418216222+415269901+412626491
1124+409982701+406933056+403023586+397747251+390415962+380082678+365743395
1111+346702088+322834844+294980960+265693848+239395215+220681815+211623260
1097+210798300+215050600+221811341+229929825+238953192+247924897+254880410
1084+257290757+252630583+238723673+214353388+180821957+143769220+112189881
1070+93775095+90203512+95686559+100104643+95970991+83531274+68886488+58321525
1055+55268677+61214794+77435200+105313977+145420063+196021212+252445111
1042+308375721+357998199+397502796+425433762+442002371+447896361+443007576
1028+425668582+392755406+341981173+277981633+216397769+177272273+172224974
1015+198427019+242995990+292818788+341340880+387053742+428864835+464640046
1001+492397840+511463133+522473026+526575671+524832590+518058303+506660187
988+490551173+469242408+441791039+406607653+361630032+305744845+241870842
974+178919161+128779394+100496666+97949228+121935178+170937314+239188217
961+316981592+393999472+462293778+517734042+559952688+590868927+613110295
947+629121990+640726752+649176526+655341886+659733706+662701378+664563069
934+665517578+665600518+664771414+663054809+660477938+656959971+652330285
920+646327114+638640257+629079173+617717841+605009969+591976898+580347711
907+572468147+570309255+573505479+578444959+579898688+573752834+558346376
893+534255558+504787718+477313389+461220306+461183552+474373364+496727925
880+526930566+561682356+593871918+617791233+632109869+637968305+636538825
866+628069429+612563572+592393002+575134049+571004402+583956642+607178467
853+630055764+646975344+657969246+664798475+668763121+670674190+671240476
839+671005129+670243091+669090077+667570453+665700971+663612660+661406792
825+659074933+656599629+653939467+651062291+648046063+644933833+641547422
812+637642462+633204251+628502929+624140571+620873825+619047746+618302636
798+617744257+616578357+614623066+612148288+609443201+606493101+603237309
785+599856579+596354368+592437459+588009030+583107271+577611521+571612216
771+565866066+561606093+559323084+557846512+555233384+550094052+542154744
758+532848102+525817733+525005440+530653773+538797385+545466181+549379517
744+551034855+551302828+550780823+549767096+548461499+546951540+545281500
731+543541758+541807756+540120789+538513656+536941785+535267411+533567674
717+531857629+530104122+528383885+526798366+525245473+523590428+521922379
704+520393735+518996002+517657194+516393418+515214104+514073742+512983812
690+511961474+511011065+510240242+509671027+509125827+508602885+508281201
677+508053586+507552082+506752206+506339206+507105227+508578519+509220774
663+509024027+508933473+509411840+510295008+511343234+512526296+513857490
650+515232848+516601880+518105689+519874601+521816303+523717531+525566571
636+527558120+529809909+532319947+535020290+537833035+540702245+543477737
623+546132218+548998499+552331901+555928766+559419320+562781834+566282521
609+570056101+573960300+577843237+581768990+585919020+590367423+595045550
596+599773581+604324721+608847980+613579291+618395474+623260333+628297044
582+633397074+638223801+642631261+646951681+651677310+656767090+661907652
569+667067250+672284309+677659165+683049542+688144183+693094440+698105263
555+703021021+707832578+712777154+717776730+722777713+727974740+733111495
542+737888024+742642940+747634844+752584165+757370183+762058150+766544039
528+770962511+775530813+780049386+784225833+788245655+792421985+796784343
515+801122804+804996076+808096415+810644702+812919745+814742192+815955068
501+816635045+816597031+815511903+813241253+809798085+805271721+799876365
488+793968728+788214670+783827711+782235573+784063058+788148599+791994517
474+793214773+790510975+784624775+778037571+773681012+775235311+785865122
461+805280741+830315525+856285372+877752460+893285144+905214695+915267091
447+923530133+929749263+934617577+938897113+942818415+946833609+951623728
434+957402211+963736086+970553951+977999194+985671819+992808498+999078411
420+1006445752+1016575406+1026479905+1033740291+1039254023+1043998689
409+1048748275+1053288051+1057435739+1062430278+1067962754+1073741823
##END=
