##TITLE=4
##JCAMP-DX=4.24
##DATA TYPE=INFRARED SPECTRUM
##DATE=16/11/2015
##SAMPLING PROCEDURE=Instrument type and / or accessory
##ORIGIN=Default
##XUNITS=1/CM
##YUNITS=TRANSMITTANCE
##RESOLUTION=4
##FIRSTX=3996.3359
##LASTX=399.24785
##DELTAX=-1.9287336
##MAXY=0.56121922
##MINY=0.018797489
##XFACTOR=1
##YFACTOR=5.2267613e-010
##NPOINTS=1866
##FIRSTY=0.063935108
##XYDATA=(X++(Y..Y))
3996+122322611+122352233+122487980+122683069+122775810+122754899+122750708
3983+122790863+122844390+122963202+123139105+123295921+123436900+123596566
3969+123761008+123864041+123884325+123919121+124032603+124139014+124143447
3956+124120255+124198769+124341559+124425775+124477277+124630031+124794872
3942+124780688+124692936+124691083+124768928+124869780+124914269+124941096
3929+125068105+125218008+125248641+125293172+125530769+125780041+125794966
3915+125679104+125618222+125562429+125511540+125584951+125670494+125638335
3902+125604723+125574203+125499138+125560875+125737591+125688996+125551382
3888+125728311+125880708+125803262+125867608+125869161+125710122+125726914
3875+125817303+125918853+125969414+125858028+125905668+126041728+125933279
3861+125707927+125623382+125932523+126394760+126205786+125585793+125416376
3848+125593633+125703736+125674300+125705717+125869503+125862020+125698191
3834+125711505+125781067+125718561+125608828+125529287+125681213+125922460
3821+125856788+125877429+126026618+125827281+125653588+125838856+126017139
3807+125859810+125815150+126161468+126201808+125965580+125993063+126027388
3794+125971567+125972508+125928062+125807966+125661713+125573790+125656695
3780+125743492+125668042+125599406+125661428+125775323+125758445+125589484
3767+125425370+125306871+125343021+125455490+125314968+125108246+125265689
3753+125574774+125399013+124946085+125116300+125461178+125073992+124648134
3740+124787901+124954068+124807915+124601350+124519329+124563475+124636345
3726+124557047+124337311+124101809+123860620+123660812+123591734+123650406
3713+123582226+123229580+122857190+122621717+122442792+122119724+121575067
3699+120997126+120400781+119745707+119179818+118663734+117900339+117006792
3686+116462370+116222920+116000440+115939337+116104934+115978609+115647451
3672+115728653+115766043+115435470+115244065+115211622+115081469+114923585
3659+114769905+114398464+114026616+114118309+114241462+113759590+113025781
3645+112593508+112367122+112053006+111645358+111293039+110998088+110762786
3632+110637537+110244693+109418691+108845482+108692322+108530568+108086399
3618+107394633+106805716+106391974+105955424+105444558+104787695+104040971
3605+103417471+102872222+102269014+101670360+101084066+100357505+99570775
3591+98998356+98494054+97713917+96862200+96224489+95641472+94953164+94211286
3576+93481268+92763360+92104608+91512811+90777619+89848577+89025982+88385299
3560+87756902+87088109+86383428+85606000+84755131+83950711+83258696+82525806
3545+81682827+80864124+80120186+79376206+78588464+77806053+77085621+76400784
3530+75689012+74924526+74135480+73364238+72625910+71880746+71103538+70371532
3514+69714135+69032362+68268047+67503412+66826742+66155105+65423034+64734056
3499+64098710+63416054+62714638+62071859+61411596+60663383+59943008+59341742
3483+58771088+58139770+57481988+56878993+56324914+55690096+54926990+54191901
3468+53595164+53078304+52567854+52008622+51374574+50744930+50215248+49779265
3452+49338250+48828656+48296383+47780581+47288947+46807578+46283340+45728099
3437+45229364+44840920+44510903+44142562+43717826+43295684+42935084+42618559
3422+42244063+41786745+41367311+41037212+40724821+40409621+40134200+39878371
3406+39551297+39128058+38708553+38420096+38276847+38179758+38003941+37713424
3391+37448707+37324128+37207536+36984233+36734868+36555491+36430299+36333111
3375+36293319+36264222+36150366+36003136+35963933+36057885+36166000+36182232
3360+36151332+36168174+36238485+36338353+36462586+36612699+36794645+36966161
3344+37073713+37169408+37322642+37509211+37710576+37957945+38275689+38631040
3329+38950694+39249829+39593509+39937777+40217614+40464491+40741367+41099316
3314+41520011+41909342+42248646+42611937+43046292+43539945+44063609+44574928
3298+45033675+45502747+46069217+46675145+47222720+47722115+48237710+48785115
3283+49359465+49984636+50644759+51286213+51899862+52541205+53276344+54065857
3267+54801926+55496760+56251410+57082101+57912974+58687224+59451097+60268492
3252+61098892+61919099+62799047+63749556+64718874+65715063+66749717+67760823
3236+68703471+69635812+70651551+71757992+72895679+74045982+75208615+76342753
3221+77419993+78478068+79582870+80757363+81958099+83118929+84227814+85343421
3206+86522298+87749184+88961908+90149294+91355339+92574863+93769434+94946293
3190+96114542+97279777+98477327+99723913+100994061+102220035+103343404
3177+104418577+105547790+106724578+107885950+109029453+110160975+111266917
3163+112355497+113425689+114475731+115530848+116582266+117587121+118545627
3150+119507547+120499637+121482013+122410891+123302193+124193310+125088404
3136+125941803+126711570+127451616+128247255+129079914+129878860+130622669
3123+131338140+132053340+132751121+133408262+134041326+134671126+135299615
3109+135897271+136434102+136948597+137478671+137990058+138476100+138963410
3096+139431163+139864291+140272018+140665290+141046175+141390013+141707564
3082+142008979+142244067+142409122+142573265+142765888+142945768+143083141
3069+143180315+143219886+143188540+143125121+143080233+143056755+143004640
3055+142884801+142721414+142534164+142316253+142073154+141774647+141384795
3042+140925880+140437486+139946113+139441569+138853221+138122869+137288785
3028+136408971+135477827+134480256+133420421+132290923+131032719+129576632
3015+127954991+126222905+124337781+122251224+119957147+117418724+114589968
3001+111480374+108126248+104449467+100348581+95796321+90795843+85338233
2988+79416105+73060235+66402723+59677753+53311279+47879793+43714077+40770536
2972+38855441+37642849+36793480+36327299+36635588+38236866+41474788+46073387
2957+51104772+55500231+58512818+59864194+59621968+58003142+55341815+52190105
2941+49398187+47856383+47948159+49444971+51851550+54699699+57749676+60948861
2926+64267764+67710240+71274402+74849910+78248148+81257289+83659944+85306124
2910+86224703+86604433+86642785+86510210+86349581+86147927+85733629+84919737
2895+83564758+81588931+78997944+75795758+71942312+67585555+63269580+59928133
2880+58645052+60038878+63805941+69038292+74893608+80912254+86917751+92809003
2864+98455260+103724510+108562526+113063313+117456591+121964092+126677815
2851+131550307+136393976+140939950+144998328+148540103+151647295+154445104
2837+157033825+159437976+161689503+163877382+166048313+168216336+170370161
2824+172416135+174298665+176071106+177770763+179367016+180858155+182315497
2810+183781704+185236779+186676630+188096239+189465572+190778571+192025299
2797+193160613+194169845+195083142+195887990+196546399+197083744+197545353
2783+197973777+198394917+198761248+199042921+199260633+199417149+199533025
2770+199636400+199718692+199768612+199814869+199913768+200071196+200232759
2756+200354922+200449943+200526405+200527916+200458097+200377558+200272729
2743+200156040+200114659+200248396+200639531+201267863+202017402+202750349
2729+203367391+203863782+204289755+204705949+205205889+205894860+206807259
2716+207848065+208857909+209751948+210525792+211194479+211809953+212397489
2702+212898555+213307921+213705897+214090745+214397249+214631781+214825759
2689+214968448+215039494+215026850+214910047+214706718+214522647+214487966
2675+214707873+215206102+215867819+216557660+217226176+217864272+218479091
2662+219088706+219674902+220211305+220709506+221185669+221657685+222128232
2648+222577382+223020860+223477024+223921114+224331649+224707787+225059664
2635+225409060+225745428+226037577+226300918+226535836+226711268+226843494
2621+226952543+227045626+227128702+227168843+227144311+227092281+227067877
2608+227074278+227087278+227128317+227178864+227172093+227132593+227115858
2594+227107619+227079709+227031713+226974666+226911361+226858462+226835426
2581+226837621+226891761+227027080+227226489+227477585+227746044+227974589
2567+228172144+228369287+228559416+228752367+228935525+229063561+229165068
2554+229280403+229378618+229434824+229459983+229505271+229644681+229857817
2540+230066634+230287183+230569981+230899435+231237029+231564958+231886458
2527+232214757+232566506+232942829+233326708+233706053+234077188+234453369
2513+234857860+235287068+235728550+236195633+236670214+237098296+237480806
2500+237851856+238208764+238536679+238847973+239166294+239472770+239720658
2486+239947736+240239472+240566218+240849544+241097176+241351194+241627821
2473+241914454+242177994+242422576+242697178+243006448+243336814+243702646
2459+244074722+244419628+244763850+245131706+245498935+245838339+246154251
2446+246464804+246782854+247094975+247403731+247725830+248026718+248287065
2432+248557362+248858250+249136615+249386586+249638209+249867909+250067845
2419+250247996+250407164+250547515+250652316+250741778+250883498+251077191
2405+251275245+251489151+251730055+251953796+252178279+252413367+252650308
2392+252877500+253106943+253352722+253593598+253775630+253854601+253817767
2378+253677501+253477821+253266424+253043538+252784245+252544111+252480136
2365+252677164+253072988+253624844+254338861+255080218+255575597+255535284
2351+255288023+255460590+255732341+255462928+255154200+255580728+256406588
2338+257090384+257553918+257963683+258355601+258667009+258979785+259430091
2324+260007690+260544008+260899463+261140338+261439430+261796424+262101417
2311+262390673+262752429+263159713+263537804+263861158+264153920+264438159
2297+264711107+264971398+265223591+265462585+265684360+265885493+266062080
2284+266217912+266354558+266471161+266569062+266635118+266651768+266643272
2270+266662459+266725493+266804635+266875167+266949662+267064783+267238690
2257+267442703+267626560+267762150+267861249+267996896+268145801+268296045
2243+268447715+268604203+268762002+268933799+269162102+269453610+269759231
2230+270020633+270213385+270391939+270612887+270839793+271011390+271141650
2216+271277069+271406872+271504688+271571571+271603245+271601734+271602190
2203+271642531+271760246+272004942+272380780+272829917+273289317+273723144
2189+274116573+274474650+274824375+275186044+275539418+275845067+276111487
2176+276374799+276624455+276841013+277050072+277288695+277543113+277779712
2162+278002085+278224543+278469154+278738966+278998601+279232007+279459569
2149+279699931+279937271+280156081+280355361+280530950+280692741+280848031
2135+281021682+281242544+281487012+281724552+281952826+282177679+282393125
2122+282606403+282837500+283079744+283345879+283650958+283945459+284201359
2108+284464130+284745631+285014161+285298970+285653740+286059742+286486498
2095+286852017+287135828+287379098+287618862+287836103+287996411+288086814
2081+288109964+288076979+288001115+287891155+287756476+287617978+287508730
2068+287460350+287492166+287643522+287937853+288332793+288809641+289357590
2054+289910957+290433477+290942397+291435980+291864390+292182583+292384600
2041+292506820+292616723+292759356+292963083+293270414+293695574+294194146
2027+294725931+295300737+295912348+296526867+297131836+297719043+298287776
2014+298846018+299368851+299832699+300255264+300647753+301011618+301364706
2000+301712121+302032452+302349904+302674625+302939078+303170403+303429069
1987+303677642+303926757+304201530+304479781+304745260+304996342+305239727
1973+305465977+305693995+305938006+306135263+306291437+306491943+306706162
1960+306829722+306840128+306791348+306713860+306574022+306332747+305982851
1946+305579473+305173186+304792928+304569243+304547747+304658250+304907906
1933+305276219+305703830+306191711+306814669+307591692+308451648+309449647
1919+310519574+311442593+312250263+313003652+313670172+314280101+314857587
1906+315397526+315853048+316207590+316534507+316888708+317229537+317552149
1892+317915672+318222005+318452503+318743156+319029048+319247344+319463530
1879+319701783+319912524+320047259+320227809+320526217+320802045+321082976
1865+321472642+321857490+322175654+322472437+322749719+322986175+323152242
1852+323250029+323307219+323442467+323616432+323619938+323667036+323923477
1838+324173191+324365971+324642626+325028386+325362801+325706054+326168390
1825+326544029+326837077+327163709+327439565+327648852+327894945+328210686
1811+328487541+328685681+328870108+329081048+329346300+329618735+329803846
1798+329937213+330167284+330439690+330589450+330752723+330994996+331110430
1784+331146894+331274102+331380157+331395552+331479085+331632608+331707872
1771+331825274+332019765+332133888+332268024+332369346+332384114+332515828
1757+332643749+332728222+332929812+333104204+333212083+333372106+333505530
1744+333595277+333627664+333549862+333693121+334100378+334267728+334355365
1730+334602513+334701155+334633474+334466153+334301397+334334582+334399412
1717+334358102+334373782+334386127+334279274+334129372+333877178+333607137
1703+333613438+333570503+333366604+333394286+333226993+332783901+332326069
1690+331732362+331299362+331003492+330433447+329909302+329596925+329235598
1676+328670713+328132086+327982098+327908801+327650620+327618547+327787978
1663+327782875+327665844+327673171+328036352+328605512+328853401+329143855
1649+329808123+330226583+330359123+330629107+330944563+331396579+332190735
1636+333076949+333913926+334772657+335522881+336243455+337182496+338139498
1622+338883992+339695311+340639769+341498727+342405154+343367402+344148188
1609+344785172+345431194+346082291+346689626+347281708+347900703+348508038
1595+349035433+349473251+349859011+350217859+350560655+350861201+351043433
1582+351131869+351329125+351558084+351519111+351479170+351587847+351449520
1568+351112482+350759593+350359693+350204744+350212841+350008429+349863487
1555+349658733+349096928+348343568+347534843+346741598+346031858+345528753
1541+345043581+344180289+343315173+342488601+341230853+339820410+338605512
1528+337295108+335885976+334576085+333090975+331484872+329972992+328278596
1514+326341470+324358986+322501402+320482227+317750431+314795037+312046821
1501+308909337+304912154+300108042+294973022+289570897+282947233+274695484
1487+265694595+256765577+248201537+240285628+233505661+227975558+222903230
1474+216893771+209650298+202991923+198413491+195528344+192973350+189949091
1460+187452256+188317743+195005525+206051134+218012692+228856626+237584623
1447+243498006+246508024+247462831+247816319+248826690+250754151+252975857
1433+254842735+256138942+257016574+257778600+258583249+259524400+260748534
1420+262224834+263819334+265480432+267144495+268803683+270467517+272102558
1406+273650274+275014988+276114052+276755313+276644669+275425295+272753825
1393+268821729+263968467+258215763+252504341+249006356+249501222+254670852
1379+263711769+274176129+283429925+290132503+294552167+297780110+300602964
1366+303194152+305286567+306554521+306998526+306838474+306298279+305538334
1352+304627317+303643345+302964537+303386875+305504037+308873387+312402076
1339+315530636+318442040+321461837+324774795+328445062+332436030+336636143
1325+340948753+345326308+349716350+353996746+358031960+361757335+365098775
1312+367915157+370062168+371472441+372168867+372283333+372086162+371865499
1298+371811930+372043284+372645858+373627577+374904369+376355239+377816686
1285+379054875+379806696+379917911+379445454+378732264+378406202+379069045
1271+380935267+383770323+387056825+390263130+393096219+395453544+397198317
1258+398197228+398391947+397664416+395815727+392757044+388526226+383209744
1244+377133487+370980426+365572999+361737806+360349201+362143523+367304059
1231+375223161+384668710+394282551+403047525+410487641+416621144+421674457
1217+425822397+429227156+432088612+434526362+436611137+438470147+440182134
1204+441721611+443092512+444303219+445430137+446396034+447198144+447893459
1190+448523573+449061773+449473847+449756460+449930139+450054953+450172526
1177+450245852+450177258+449909442+449482428+448927921+448201531+447241536
1163+446035248+444653314+443200135+441696437+440057633+438154206+435819689
1150+432899105+429322976+425060456+420152855+414893506+409731088+404994087
1136+400882068+397478022+394690890+392356088+390326877+388462679+386574447
1123+384393452+381585366+377710232+372182552+364311118+353336298+338586753
1109+319837602+297704361+274162615+252775949+237499081+230291958+230005581
1096+233936551+239954435+247116784+254982060+262632718+268388928+270238274
1082+266150687+254182715+232972835+203183078+169354002+139714817+122243042
1069+119321296+125353356+129979897+125510927+112134072+96134378+84425007
1055+81191261+88212090+106376799+135993177+176110007+223768917+274097500
1042+321664424+362124194+393180978+414519805+426856745+430885203+426551724
1028+412555795+386154590+344865312+291653820+239198224+205403772+201751153
1015+225968414+265648865+308442696+348636958+385417594+418381398+446106806
1001+467313322+481794536+490165911+493295497+492024607+486951309+478302539
988+465988064+449625032+428361184+400609832+364260143+317862559+263006362
974+206608464+159718095+132541135+130758245+155496386+203343230+266178626
961+333846217+397701450+452204103+495187891+527300548+550570400+567190387
947+579074798+587708914+594095011+598796090+602138071+604459531+606026804
934+606896112+607042365+606545219+605514890+603898581+601558362+598351515
920+594104533+588624293+581698571+573345899+564041642+554566271+546079948
907+540351904+538973534+541699656+545772617+547261090+543038683+531667782
893+513476246+491049073+470186951+458385245+459374150+470755570+488991154
880+512715160+539379393+563710135+581564691+592232152+596644831+595555545
866+589105645+577345990+562178897+549329159+546497496+556764913+574926401
853+592789453+606062840+614826902+620435035+623806381+625576926+626373706
839+626575324+626308761+625726372+624949948+623928914+622671081+621305483
825+619836282+618239358+616571162+614806604+612865572+610718019+608352541
812+605721925+602752904+599571601+596708463+594720278+593677976+593193203
798+592774742+592095706+591037781+589644186+587972797+586009471+583770859
785+581346367+578768493+575944641+572818875+569314334+565262185+560763579
771+556500118+553522544+552220293+551576096+549896781+546031482+539870153
758+532655062+527380203+527166041+532086072+539020289+544837852+548394793
744+550094179+550730223+550718591+550207418+549381331+548422904+547447941
731+546448517+545423605+544400632+543305759+542167950+541068801+540082491
717+539125375+538155201+537154066+536070369+534917393+533832783+532916321
704+532139384+531448260+530805032+530141106+529415828+528705660+528091854
690+527554395+527116377+526870969+526775120+526696206+526635710+526653727
677+526698829+526551265+526094944+525981705+527262744+529385038+530362282
663+530322198+530428024+531068060+532035325+533129001+534257059+535496703
650+537059815+539021030+541155184+543137497+544922753+546696035+548558950
636+550570514+552813630+555270567+557838405+560420383+562978642+565608117
623+568465496+571522555+574732309+578102287+581451395+584730370+588106506
609+591514058+594903821+598488987+602290938+606301178+610626961+615000125
596+619073371+622876178+626730472+630903444+635414423+640156099+644862253
582+649391478+653913461+658484823+663048601+667634502+672186421+676723628
569+681363298+686052461+690691503+695266514+699993252+704977942+709873455
555+714449778+718923922+723563193+728297743+732961817+737564767+742135672
542+746607536+750864839+754994761+759254858+763731739+768317983+772849945
528+777185477+781421740+785788461+790144691+794344861+798490179+802530468
515+806251795+809613219+812796973+815831281+818560653+820868885+822617706
501+823713777+824164225+823956049+822909186+820602208+816975647+812697704
488+808236274+803981081+801147707+801113553+804243196+808986469+812550139
474+813232938+810877552+806197114+801034810+798343869+801185453+810947685
461+827252758+848910462+872182481+891393740+905002512+915067342+923380842
447+930892944+937573428+943059997+947545488+951558751+955523433+959844426
434+964709263+970017819+976048689+983120265+990861810+998308911+1004773693
420+1011365056+1019461144+1027631242+1034168666+1039808958+1045936987
409+1052520369+1058443815+1063542087+1067867641+1070792131+1073741823
##END=
