##TITLE=4
##JCAMP-DX=4.24
##DATA TYPE=INFRARED SPECTRUM
##DATE=16/11/2015
##SAMPLING PROCEDURE=Instrument type and / or accessory
##ORIGIN=Default
##XUNITS=1/CM
##YUNITS=TRANSMITTANCE
##RESOLUTION=4
##FIRSTX=3996.3359
##LASTX=399.24785
##DELTAX=-1.9287336
##MAXY=0.56975853
##MINY=0.019016163
##XFACTOR=1
##YFACTOR=5.3062899e-010
##NPOINTS=1866
##FIRSTY=0.06523674
##XYDATA=(X++(Y..Y))
3996+122942285+123077388+123170353+123215242+123230210+123265186+123337456
3983+123435055+123564429+123718922+123873107+124001695+124105739+124226197
3969+124361805+124481168+124589116+124646600+124650728+124717310+124850995
3956+124959209+125029541+125045941+124980706+124954660+125094298+125236871
3942+125276059+125326621+125383375+125454366+125542025+125543358+125522704
3929+125631031+125793514+125840972+125849944+125921470+125948316+125890397
3915+125922551+126064548+126165124+126257809+126393894+126356938+126137968
3902+126022116+125992672+126012175+126228870+126495172+126433223+126294526
3888+126376834+126298710+126189148+126328309+126369828+126392392+126578674
3875+126707192+126818397+126788883+126615434+126596928+126535358+126319505
3861+126171540+126302403+126769183+127026527+126543487+126088431+126192082
3848+126410926+126420221+126322102+126356854+126429221+126260238+126091436
3834+126161936+126269449+126348261+126388980+126377916+126487337+126436396
3821+126175500+126319884+126523114+126417511+126424082+126627509+126679503
3807+126435526+126444147+126645313+126435428+126221274+126248541+126206783
3794+126181060+126230232+126241746+126208061+126101153+126005224+126071526
3780+126118086+126039484+125990313+126044315+126096688+125977718+125860840
3767+125856530+125835272+125861542+125871076+125752191+125738417+125983376
3753+126122228+125810896+125572353+125927353+125950914+125350603+125231072
3740+125634611+125774053+125471651+125160600+125011372+125027673+125046573
3726+124933879+124825174+124748664+124585718+124363869+124259573+124262535
3713+124081308+123683932+123365580+123190362+123029325+122664230+122086399
3699+121540133+121016837+120450254+119873420+119190000+118250122+117410418
3686+117099515+117008459+116820358+116746944+116795547+116489706+116215274
3672+116333639+116193187+115854700+115770868+115757676+115602818+115453393
3659+115341345+115038073+114785707+114824397+114657919+114056731+113506379
3645+113258224+113017006+112600051+112152135+111799894+111481205+111284890
3632+111239271+110770237+109918845+109455041+109312693+109035018+108465085
3618+107805437+107319400+106897488+106455658+105965395+105256336+104487035
3605+103921848+103425603+102833717+102236987+101631952+100895858+100167851
3591+99630571+99016170+98118927+97318412+96792246+96246892+95545416+94761884
3576+93927284+93112553+92481711+91957418+91210864+90282688+89500090+88834320
3560+88116619+87363648+86630762+85865659+85029255+84249781+83557390+82757332
3545+81823954+80938982+80180479+79510335+78859301+78168251+77428766+76660412
3530+75857742+75022939+74205997+73441196+72724197+72008434+71236943+70438934
3514+69703612+69019744+68305511+67612635+66972048+66244940+65459955+64788435
3499+64177313+63507998+62810748+62129744+61454981+60775002+60118450+59507819
3483+58856301+58110540+57368896+56680896+56024252+55407174+54835307+54319492
3468+53808963+53212493+52533307+51840013+51210115+50693935+50244899+49761540
3452+49241182+48765932+48334486+47888143+47382265+46789881+46203850+45713994
3437+45243847+44751968+44308465+43929424+43597364+43296970+42950869+42516084
3422+42071742+41691581+41353711+40998256+40616975+40260876+39950657+39687149
3406+39456304+39143698+38712533+38355638+38186622+38053096+37792069+37482931
3391+37273116+37129936+36992204+36864557+36683252+36449178+36296158+36255541
3375+36203284+36074587+35929807+35838435+35837023+35895217+35936381+35963684
3360+36035444+36133384+36196102+36217374+36241869+36346517+36561759+36800010
3344+36982811+37127668+37274025+37451683+37674272+37942691+38264603+38599292
3329+38874830+39102600+39364384+39697536+40061968+40404994+40722419+41065259
3314+41445041+41786754+42074280+42400035+42830948+43359266+43936416+44485733
3298+44953222+45386560+45877866+46424905+46976915+47553611+48174317+48787727
3283+49382197+49991669+50595426+51202182+51876446+52607114+53341962+54060522
3267+54754009+55453274+56195883+56960726+57723358+58511215+59368806+60283144
3252+61174715+62014123+62874031+63805654+64776690+65741253+66689992+67639987
3236+68607176+69613019+70687250+71834971+73019979+74174594+75251570+76274571
3221+77308490+78422211+79615502+80804904+81962103+83116979+84286906+85484606
3206+86691209+87883594+89081365+90292931+91513272+92755363+93991115+95190234
3190+96399047+97646025+98865215+100013701+101139126+102268664+103397050
3177+104556342+105754246+106968121+108183366+109348547+110439304+111521784
3163+112645207+113785479+114902507+115965392+116946453+117881671+118874723
3150+119936113+120968705+121933352+122864652+123769568+124621972+125456459
3136+126349454+127284854+128184042+129014401+129779848+130489903+131162258
3123+131825753+132520925+133262306+134000359+134687709+135338722+135961667
3109+136532056+137057696+137583125+138130529+138691118+139248645+139763965
3096+140196246+140566087+140924246+141281675+141623841+141968394+142340242
3082+142683799+142926947+143114395+143327945+143562978+143760718+143891187
3069+143972850+144017641+144022766+144005018+143972288+143921165+143843476
3055+143740541+143638477+143497828+143241270+142893754+142525331+142137546
3042+141710446+141261919+140792429+140261888+139642538+138916336+138091102
3028+137206615+136278138+135283316+134194729+133008949+131709732+130257412
3015+128639646+126864508+124928122+122808010+120476552+117924145+115139098
3001+112059548+108629084+104832599+100673742+96076742+91023044+85533083
2988+79585047+73198637+66488629+59704176+53295560+47819085+43640220+40735081
2972+38836929+37571720+36584477+35939713+36189187+37898153+41236571+45832398
2957+50824580+55172386+58141083+59519516+59379351+57850907+55191377+51955473
2941+49069896+47499238+47648529+49222845+51619025+54394601+57419349+60653786
2926+64033477+67531303+71116878+74697630+78105782+81107039+83482741+85145950
2910+86137746+86568434+86629561+86531794+86388428+86192618+85808968+85006677
2895+83606161+81557602+78892621+75618321+71697790+67297934+62983011+59653397
2880+58365599+59785727+63599384+68838418+74726800+80861799+86967304+92847796
2864+98402205+103585109+108380537+112914696+117435545+122066264+126845215
2851+131779053+136682225+141270400+145381124+149004132+152198229+155043968
2837+157632994+160051774+162370552+164630696+166859837+169060291+171187551
2824+173208589+175128799+176947029+178657985+180301334+181897014+183398436
2810+184828824+186273380+187746692+189213811+190627196+191945467+193170954
2797+194309191+195332347+196216343+196984738+197691999+198329364+198837411
2783+199224368+199559766+199893802+200209122+200462787+200654672+200795209
2770+200901120+200990112+201044816+201082236+201158928+201276086+201415078
2756+201577337+201715374+201787447+201808087+201749943+201599241+201438092
2743+201347064+201359981+201514854+201893091+202541057+203347378+204116798
2729+204726755+205177430+205559037+205979286+206508225+207196335+208090046
2716+209148895+210219805+211160007+211952188+212663366+213295746+213816950
2702+214280192+214737017+215165732+215547858+215873891+216102086+216220031
2689+216283468+216326630+216316423+216219736+216046919+215872543+215857505
2675+216115776+216604488+217234580+217927744+218628377+219325711+219989937
2662+220603502+221194419+221752367+222254517+222731084+223219375+223724066
2648+224203329+224609508+224982058+225384545+225800412+226188183+226545289
2635+226889365+227218838+227514163+227773866+228004237+228185816+228323418
2621+228465878+228597513+228644803+228611526+228574359+228577897+228602076
2608+228625763+228646993+228659448+228678277+228700040+228693933+228659560
2594+228601093+228532419+228474555+228422758+228379722+228355867+228367773
2581+228430846+228529133+228647695+228800111+229010193+229262229+229498835
2567+229710405+229931678+230157837+230361432+230521528+230619310+230673817
2554+230735710+230823312+230920799+231011574+231082860+231174057+231357405
2540+231612811+231875870+232151187+232465116+232807352+233155472+233492667
2527+233821031+234182630+234577548+234945212+235291675+235671429+236087549
2513+236513105+236938492+237363402+237788620+238220101+238651751+239066944
2500+239474134+239880033+240247150+240566499+240870347+241145720+241365097
2486+241560295+241787170+242045301+242302139+242550525+242799333+243068668
2473+243359935+243643873+243917561+244219162+244554967+244904674+245284090
2459+245676144+246040537+246388783+246745004+247112991+247465899+247782552
2446+248082974+248394910+248711788+248994883+249249672+249529538+249847652
2432+250163547+250441222+250693006+250976439+251292727+251548414+251705140
2419+251806797+251891830+251985259+252080317+252168635+252300340+252523789
2405+252794949+253028339+253214467+253381837+253568807+253800259+254084113
2392+254386332+254663474+254892034+255076056+255222953+255322223+255355473
2378+255342218+255318011+255260050+255124891+254974118+254905149+254947159
2365+255166031+255546683+255980973+256577885+257339948+257791340+257264295
2351+256242389+256143034+257037139+257597995+257490300+257563903+257914732
2338+258227960+258505691+258835122+259251832+259758292+260326168+260939031
2324+261606121+262229683+262601433+262736452+262901406+263219408+263573298
2311+263927300+264317164+264705061+265038536+265330196+265625311+265937078
2297+266233400+266483892+266700433+266923573+267161344+267379036+267566512
2284+267740818+267883587+267976117+268046856+268115826+268178196+268241942
2270+268301336+268332760+268351097+268407598+268537394+268730683+268933210
2257+269098698+269237676+269375026+269494431+269624170+269760087+269885445
2243+269983817+270089518+270257617+270476124+270716254+270983988+271252144
2230+271487219+271701176+271929062+272176240+272406176+272583122+272704548
2216+272812384+272951025+273098484+273184303+273192278+273179809+273185173
2203+273214098+273328476+273591099+273958947+274382761+274852097+275308234
2189+275698125+276057632+276424524+276772096+277091137+277402005+277712284
2176+278003832+278239104+278445198+278671315+278880947+279054214+279259494
2162+279534670+279828998+280084292+280319451+280584406+280849107+281082357
2149+281329844+281592468+281813221+281968683+282089436+282239619+282449055
2135+282681491+282900587+283114067+283338639+283580847+283843274+284104578
2122+284341029+284556783+284789499+285071107+285352714+285589698+285824408
2108+286082988+286355777+286653278+286982765+287340054+287702818+288061482
2095+288397568+288729892+289027477+289265052+289458734+289601194+289669686
2081+289663199+289618661+289563564+289464687+289319138+289179570+289080159
2068+289033964+289045309+289178727+289483671+289917819+290427172+290964185
2054+291493392+292012180+292522235+292990138+293390841+293727349+293973657
2041+294137544+294275539+294417550+294609042+294899242+295285033+295732465
2027+296243446+296830137+297477822+298162126+298804279+299352665+299897710
2014+300469349+300995158+301444049+301826078+302180193+302537341+302889967
2000+303231838+303558770+303875171+304158603+304388567+304678402+304996909
1987+305272478+305534849+305781382+306029206+306278322+306505057+306722356
1973+306965631+307257740+307528086+307724043+307939573+308157911+308307898
1960+308396974+308429633+308406494+308339097+308208487+307981556+307651648
1946+307280880+306833055+306393571+306218479+306231313+306342911+306606770
1933+307007473+307486722+308022331+308674397+309403154+310245926+311327956
1919+312299230+313166658+314104571+314874946+315452763+315991630+316558747
1906+317075822+317494189+317864395+318249035+318639853+318967094+319308937
1892+319642608+319815509+320093213+320497454+320765357+320980971+321214586
1879+321429161+321613941+321817677+322116498+322287153+322364070+322791619
1865+323368593+323715323+323929926+324167332+324413668+324649304+324865705
1852+325011338+325063459+325193086+325168177+325067783+325453603+325866859
1838+325970341+326108421+326469107+326813927+326999044+327469783+327994722
1825+328275907+328649118+329010141+329215421+329428002+329750497+330035951
1811+330233115+330490347+330777908+331015117+331145755+331198998+331375185
1798+331734102+332085914+332127504+332125987+332571706+332991365+332985327
1784+332956122+333066344+333131915+333266990+333478560+333458903+333298386
1771+333556853+333877494+334060505+334207009+334088615+334095158+334350874
1757+334464578+334679266+334828016+334675755+334753627+335100834+335340065
1744+335411253+335327428+335313752+335771911+335853096+335485979+335837145
1730+336335321+336400163+336305948+336177247+336205442+336158994+335721700
1717+335580869+335934169+336153743+336049586+335789378+335414005+335323244
1703+335471152+335006028+334859974+335037986+334682888+334501141+334159944
1690+333547923+333101502+332222842+331288103+331267940+331278358+330740474
1676+329831373+329379757+329362066+328953528+328731876+329081189+329133365
1663+328857347+328955437+329412136+329830755+329472878+329164564+330538087
1649+331589816+331301554+331317870+332006526+332519333+332916638+333235005
1636+333729024+335007545+336280561+336868965+337402272+338242038+339021680
1622+339991523+341153166+341770382+342369822+343705405+344883560+345500636
1609+346043883+346729198+347425212+348044675+348657454+349292782+349877648
1595+350396829+350903008+351368778+351751227+352084505+352375969+352599615
1582+352860217+353172742+353051820+352858335+353400881+353636265+353098156
1568+352848169+352829102+352754965+352523906+351468806+350869338+351640865
1555+351804218+351123481+350295200+349586268+348921200+348146557+347356917
1541+346290416+345488448+345430487+344624896+342946599+341725057+340685066
1528+339210729+337742093+336290306+334504090+333077239+331754097+330044207
1514+328256924+326471578+324575308+321853313+318654905+316317073+314027036
1501+310650560+306265208+301329138+296433927+291060928+284012412+275475154
1487+266486083+257582830+248920859+240913256+234137600+228539313+223243596
1474+216955753+209733943+203316838+198679828+195540449+193030333+190260529
1460+187650497+188064721+194709992+206204995+218429430+229270008+237963122
1447+243976842+247148515+248220661+248651496+249452958+251080539+253502674
1433+255608970+256813438+257668116+258531218+259350484+260339282+261481155
1420+262695958+264439096+266417225+268089934+269619536+271219260+272831311
1406+274294499+275680743+276896949+277483106+277336798+276101075+273378378
1393+269586203+264749038+258714088+252867120+249490420+250074948+255293159
1379+264460579+275072457+284323871+291023523+295503568+298687850+301522679
1366+304126702+306046757+307245075+307799921+307668750+307051730+306230919
1352+305302498+304287472+303573906+304029145+306270347+309747637+313268820
1339+316411737+319412391+322509563+325875564+329578157+333593809+337846362
1325+342253534+346725688+351151675+355450703+359546249+363274284+366541324
1312+369362056+371573154+372986750+373643224+373738170+373539433+373302195
1298+373242942+373497113+374107000+375061285+376311526+377768115+379264104
1285+380529313+381303002+381455825+381013897+380300500+379975394+380654812
1271+382541843+385353308+388553512+391704574+394551815+396912618+398658762
1258+399679320+399835681+399016218+397112113+394015700+389709848+384320589
1244+378190751+371967033+366474573+362538085+361053189+362867684+368193814
1231+376271257+385763250+395413682+404325078+411968035+418248983+423383229
1217+427585261+431018098+433890866+436372366+438529350+440417925+442100463
1204+443622034+445018667+446263349+447403397+448380316+449201717+449927638
1190+450563220+451073724+451458336+451714276+451881645+452044352+452180831
1177+452215148+452133906+451931828+451575298+451033005+450291694+449341565
1163+448166162+446787361+445311451+443815716+442201193+440269933+437867512
1150+434908055+431309309+426977369+421965140+416586918+411308303+406527611
1136+402449224+399078252+396285995+393916514+391839536+389933016+388014561
1123+385794449+382938418+379041834+373512839+365600491+354513324+339622019
1109+320711692+298354151+274609833+253165577+237894181+230670714+230506237
1096+234817958+241313903+248830238+256834078+264440753+270036667+271611763
1082+267126663+254707872+233104573+202996001+168879471+139008192+121395454
1069+118422349+124471873+129147734+124735465+111428818+95501720+83821761
1055+80625053+87825401+106349810+136453805+177153559+225406884+276156902
1042+323900833+364380437+395344066+416469394+428541006+432359635+427804049
1028+413389381+386393580+344509591+290803865+238035406+204135403+200430479
1015+224525205+264082089+306934937+347489380+384788240+418217981+446326478
1001+467845910+482532328+491004969+494190880+492940554+487821193+479065596
988+466574325+449918989+428267403+400148712+363509668+316836395+261727463
974+205212294+158338725+131202401+129389746+153955802+201559097+264324381
961+332267184+396724609+452020427+495741909+528353114+552017201+569082115
947+581310060+590053244+596441579+601191717+604601948+606914843+608408810
934+609229087+609420607+609006003+607959553+606223238+603757969+600491350
920+596212541+590637071+583615373+575218441+565800612+556154028+547562599
907+541784881+540423294+543317657+547616572+549187203+544927377+533514205
893+515230642+492690118+471876585+460461645+462262267+474632841+493557461
880+517436770+543808812+567628474+584920122+595024950+599002383+597683929
866+591041172+578965094+563395888+550223993+547366136+557931847+576489379
853+594699928+608259076+617157554+622717973+626039633+627837054+628603526
839+628740791+628486311+627888725+627025370+625994421+624795204+623425248
825+621929541+620345880+618665281+616915150+615125423+613138841+610793090
812+608097042+605134777+602091523+599320553+597225855+595955309+595284541
798+594820344+594162438+593018149+591380122+589472619+587427234+585207627
785+582804082+580228395+577404911+574209845+570529352+566325635+561790549
771+557562737+554583510+553166376+552420685+550783219+546943220+540637897
758+533199574+527726883+527461789+532603111+539853677+545750856+549158053
744+550724078+551354352+551452303+551076733+550344016+549465945+548512671
731+547412023+546259815+545148102+543926476+542628691+541544386+540506529
717+539374372+538303434+537286695+536229068+535189020+534248945+533348521
704+532421026+531516278+530665335+529823322+529031633+528474372+528206413
690+527988833+527612084+527156705+526822416+526703966+526733733+526734351
677+526481724+525671501+524693907+525651506+529158620+531124702+529932618
663+529263928+530150703+531279715+532216701+533176771+534286799+535561388
650+537005200+538656482+540472887+542279182+544039703+545918786+547994332
636+550177770+552432255+554811705+557290565+559825141+562508776+565416337
623+568347151+571369568+574715266+578171214+581340894+584258621+587324903
609+590776582+594426465+598034001+601715616+605752751+610056497+614223539
596+618186257+622160375+626267491+630575224+635060324+639660392+644351952
582+649133823+653822350+658143563+662345708+666967623+671686703+676094915
569+680469708+685089377+689907250+694706701+699472846+704306950+709170596
555+714013350+718744055+723352155+728002995+732658722+737200323+741685198
542+746061115+750442368+755054062+759636663+763907553+768062744+772417656
528+776860745+781080526+785235493+789328792+793437311+797765994+802044129
515+805914176+809274195+812478191+815549415+818058998+819936003+821374929
501+822838566+823776227+823237051+821716856+819765714+816961438+812883696
488+807800336+802775049+799538759+799586386+802834639+807403424+810844826
474+811350865+808836621+804656548+800137637+797734374+800505793+810284925
461+826897717+848120238+871033074+891022847+905656134+916884694+925574523
447+932293776+938048691+943012590+947753181+952318427+956511867+961718620
434+968257025+974701748+980638410+986276616+992314823+999285917+1006057515
420+1012070224+1020575834+1030254713+1036042877+1039650413+1044767078
409+1051640109+1057538018+1061061420+1063976002+1067799432+1073741823
##END=
