##TITLE=4
##JCAMP-DX=4.24
##DATA TYPE=INFRARED SPECTRUM
##DATE=16/11/2015
##SAMPLING PROCEDURE=Instrument type and / or accessory
##ORIGIN=Default
##XUNITS=1/CM
##YUNITS=TRANSMITTANCE
##RESOLUTION=4
##FIRSTX=3996.3359
##LASTX=399.24785
##DELTAX=-1.9287336
##MAXY=0.56624895
##MINY=0.018880963
##XFACTOR=1
##YFACTOR=5.2736043e-010
##NPOINTS=1866
##FIRSTY=0.064576373
##XYDATA=(X++(Y..Y))
3996+122452062+122503658+122526248+122576191+122667444+122749444+122799810
3983+122857354+122942009+123036144+123138121+123293529+123499728+123680172
3969+123822343+123975166+124126068+124207459+124225882+124272971+124372659
3956+124445362+124454178+124469210+124499783+124541588+124669193+124768245
3942+124772638+124819077+124872086+124897460+124938926+124969654+125021744
3929+125122845+125198670+125232620+125322418+125440754+125456479+125355873
3915+125310494+125405491+125520889+125603270+125707408+125757675+125733884
3902+125723782+125654088+125592236+125725576+125903943+125820489+125791738
3888+126037919+126029075+125866645+125936946+125954196+125946059+126040745
3875+126056766+126096636+126041988+125905992+126011938+126096367+125928441
3861+125733446+125849592+126380398+126710938+126228521+125680932+125670265
3848+125822777+125828372+125770800+125845198+125927805+125790565+125709188
3834+125826733+125856289+125809723+125814371+125880773+126107034+126150110
3821+125921222+126024597+126149376+125922846+125764329+125860188+125941312
3807+125789237+125829234+126007431+125801571+125641133+125749947+125771280
3794+125743180+125767042+125790085+125770645+125662438+125579549+125637686
3780+125612750+125460647+125431147+125573813+125690962+125591515+125451986
3767+125404827+125397212+125482687+125474280+125230204+125118847+125395403
3753+125649737+125418390+125152259+125439172+125457157+124891879+124721438
3740+124979671+125063521+124878867+124690569+124590062+124670252+124777343
3726+124690964+124498455+124294573+124045947+123805361+123761875+123880621
3713+123756308+123275827+122836529+122640460+122527817+122173584+121576956
3699+121067752+120608138+120025454+119377810+118687131+117802665+116961078
3686+116558725+116381170+116171058+116101894+116143197+115851877+115633725
3672+115816910+115735497+115433107+115341479+115305340+115136728+114949178
3659+114762405+114424180+114236990+114396898+114340640+113779184+113164465
3645+112820666+112551788+112185051+111796219+111442113+111056057+110783152
3632+110707616+110251005+109399768+108909319+108767685+108540852+108040246
3618+107469677+107076825+106637167+106029271+105369018+104625055+103926182
3605+103428790+102966075+102384832+101763296+101087968+100261561+99498660
3591+99032123+98534511+97715112+96927833+96363240+95763335+95040105+94305799
3576+93555140+92738389+91992604+91369613+90630878+89764312+89008030+88332582
3560+87623657+86905923+86198679+85446749+84630034+83861276+83159825+82381991
3545+81545871+80796370+80129942+79447832+78709458+77945440+77181183+76406633
3530+75607168+74807223+74035676+73270154+72500514+71750292+71041961+70348294
3514+69624005+68880269+68134759+67427558+66777914+66098552+65384788+64733767
3499+64115311+63432580+62712162+62042689+61394508+60691460+59992616+59366630
3483+58732071+58021804+57335915+56775303+56248093+55622489+54941809+54294998
3468+53657106+53032589+52478663+51936371+51341393+50757056+50223390+49720332
3452+49237064+48751066+48238108+47711912+47221700+46755332+46236991+45657963
3437+45103017+44650414+44275847+43920081+43584402+43251637+42874513+42443836
3422+41992788+41598890+41311727+41051982+40708384+40295711+39897504+39572266
3406+39335490+39104825+38809696+38519580+38287908+38073780+37808988+37498376
3391+37255560+37157024+37122110+37016987+36811190+36598231+36429408+36275701
3375+36135692+36019941+35916916+35831981+35802768+35842556+35904377+35970666
3360+36075200+36189510+36259458+36289360+36303195+36352795+36495682+36710803
3344+36914926+37054578+37170665+37343864+37598208+37908450+38234709+38523356
3329+38749069+38964183+39263822+39664582+40079474+40446754+40766705+41072468
3314+41408613+41757022+42067574+42382030+42816450+43398484+44008042+44528280
3298+44966812+45398918+45878668+46420918+47007991+47604545+48180359+48727218
3283+49293255+49930653+50585489+51184907+51767110+52399231+53104070+53864859
3267+54618478+55349393+56114195+56924760+57734666+58531969+59380362+60286148
3252+61151654+61960245+62782965+63662994+64622876+65634770+66634119+67610276
3236+68569529+69504107+70486481+71594467+72756083+73886844+75005588+76131242
3221+77257128+78401876+79570683+80719662+81846297+82995685+84171197+85360200
3206+86558380+87744091+88910942+90077821+91252753+92435611+93638601+94873599
3190+96111295+97318227+98514789+99727428+100946602+102150278+103332069
3177+104500163+105631107+106707955+107791323+108929452+110082810+111196702
3163+112270350+113333147+114398862+115458121+116466179+117425736+118419016
3150+119444127+120440819+121415755+122378978+123321757+124244404+125114806
3136+125920021+126727383+127577666+128426042+129223063+129969180+130690898
3123+131393260+132079078+132752959+133421922+134106554+134773611+135382304
3109+135971190+136575164+137157099+137677408+138177287+138694091+139162549
3096+139548118+139923557+140325925+140723333+141086000+141404249+141707268
3082+142009283+142278917+142520253+142755527+142938599+143018620+143065116
3069+143156524+143250024+143292577+143302806+143305900+143277983+143184695
3055+143039883+142889702+142750229+142552917+142228791+141838715+141470439
3042+141087710+140618828+140083812+139527392+138923517+138228614+137469513
3028+136667096+135778469+134760019+133594158+132317701+130962269+129485449
3015+127873112+126166358+124345067+122315203+120026415+117490414+114688713
3001+111580625+108172039+104451774+100374529+95844380+90822674+85349865
2988+79460067+73146653+66440593+59591301+53154747+47743304+43641059+40737372
2972+38775584+37477078+36573034+36066034+36368918+38028323+41308654+45884189
2957+50876968+55272120+58330464+59730978+59510757+57899060+55233716+52081703
2941+49286127+47706440+47781100+49298666+51690985+54498421+57515172+60703653
2926+64072708+67599094+71206101+74748041+78064335+81012946+83400850+85049524
2910+85964189+86344933+86438680+86397659+86273706+86052051+85611595+84756508
2895+83354157+81362842+78760834+75525784+71664295+67352192+63107345+59804190
2880+58480889+59828639+63632103+68923013+74786413+80807948+86842488+92730704
2864+98312955+103503972+108294176+112800597+117258135+121850941+126606786
2851+131440660+136210124+140739905+144852188+148467065+151653253+154496978
2837+157046612+159400771+161675220+163906705+166113508+168324592+170465262
2824+172457558+174346763+176152061+177844009+179440904+180970492+182453713
2810+183925871+185390117+186832465+188278260+189702991+191024897+192227449
2797+193334312+194348622+195263513+196073475+196769522+197333995+197786714
2783+198186383+198555931+198902986+199235278+199503358+199679394+199810446
2770+199911900+199963651+199998180+200070982+200181251+200300125+200420877
2756+200552607+200699412+200805895+200798492+200695936+200580764+200497381
2743+200434327+200405096+200500475+200838729+201452861+202226641+202994911
2729+203654381+204173672+204591862+205001477+205510879+206202843+207087485
2716+208078173+209054338+209956542+210765896+211469544+212095007+212674286
2702+213183292+213609521+214012115+214400297+214709462+214943083+215122637
2689+215225743+215267845+215239151+215098746+214911719+214775157+214751719
2675+214951800+215444968+216144223+216888150+217577133+218209081+218815260
2662+219414389+219997863+220555046+221103328+221615258+222044793+222437299
2648+222863995+223335886+223806916+224211572+224572304+224972877+225387182
2635+225732528+226017463+226285275+226544553+226786058+226986097+227130302
2621+227236475+227323871+227383943+227408498+227420210+227438704+227455120
2608+227461704+227468132+227489183+227515871+227517510+227479520+227413838
2594+227365224+227355009+227341163+227306295+227255180+227184625+227134908
2581+227155196+227252934+227392138+227540821+227726365+227969255+228229889
2567+228465107+228670755+228870639+229067429+229229153+229349976+229457406
2554+229562151+229654181+229720809+229775188+229864350+230005998+230172738
2540+230368567+230630275+230955602+231298928+231622517+231932317+232253166
2527+232613897+233030802+233446845+233803706+234123975+234450574+234814696
2513+235231431+235690226+236150886+236579333+236999601+237432301+237862557
2500+238291598+238695915+239016820+239274996+239547215+239831952+240092106
2486+240328610+240556665+240804613+241081777+241347808+241593580+241859640
2473+242155340+242462654+242763497+243055015+243364617+243696033+244046014
2459+244432558+244815400+245150743+245475576+245817927+246166692+246508168
2446+246818024+247097421+247393827+247721514+248034648+248329190+248637888
2432+248945682+249227989+249491534+249757763+250016674+250233144+250407032
2419+250549104+250661959+250763681+250873852+251001400+251161894+251370509
2405+251615999+251847812+252022576+252184484+252387391+252616915+252855736
2392+253120411+253437699+253792709+254097847+254249130+254239099+254163288
2378+254070212+253922235+253721249+253529758+253369856+253264348+253273814
2365+253353298+253488814+253731845+254064024+254567238+255199355+255712317
2351+256268793+256899555+256862059+255984593+255459057+255953511+256721343
2338+257247190+257608472+258032371+258545926+259042527+259505899+259982071
2324+260422358+260762336+261110875+261535424+261924058+262194639+262435551
2311+262758631+263138874+263507984+263858246+264165814+264407771+264657725
2297+264970407+265294166+265567346+265790457+265985537+266157645+266326560
2284+266507117+266659135+266750656+266814458+266884195+266946019+266977666
2270+266986030+267004085+267062858+267165739+267297638+267451634+267625833
2257+267797235+267944251+268080248+268214606+268362414+268506774+268640143
2243+268758338+268889080+269045166+269216935+269424335+269664371+269916557
2230+270185866+270450174+270681733+270899927+271126880+271330041+271465727
2216+271559255+271664085+271781405+271869479+271916130+271941447+271958034
2203+271997762+272121128+272362831+272710974+273145299+273617855+274053310
2189+274439147+274809641+275167166+275495050+275798804+276091678+276363163
2176+276607974+276848575+277112600+277390273+277631580+277831521+278046719
2162+278291785+278529164+278747471+278962246+279190556+279447517+279713266
2149+279959715+280200994+280433175+280632070+280818532+281008837+281195893
2135+281398404+281634117+281870988+282077286+282285138+282518929+282751562
2122+282982923+283233894+283490488+283730410+283960443+284206695+284478067
2108+284750287+285025614+285345700+285703535+286058884+286397732+286743191
2095+287078139+287398253+287686211+287945998+288178320+288339803+288404877
2081+288422311+288423526+288364217+288241218+288110759+287984624+287855748
2068+287763011+287773833+287942748+288232317+288613492+289104866+289654137
2054+290204736+290739850+291233880+291674450+292082892+292453641+292724730
2041+292883529+292976238+293055185+293216330+293526412+293954549+294439537
2027+294983185+295588431+296203906+296819127+297431296+298013937+298602568
2014+299176139+299669633+300106162+300527008+300922001+301274580+301606759
2000+301937639+302256029+302570887+302844943+303043979+303308004+303622834
1987+303908701+304193353+304467438+304725783+304975313+305236852+305493304
1973+305696946+305906720+306146671+306354890+306564974+306767175+306930524
1960+307046741+307089295+307074771+307023260+306890852+306649488+306319259
1946+305952834+305507009+305074746+304885995+304852936+304933014+305208031
1933+305628256+306096007+306581871+307184744+307923331+308823232+309950058
1919+310940209+311818155+312758716+313519767+314083137+314610651+315174445
1906+315691589+316099579+316446932+316807112+317170062+317470397+317833573
1892+318241280+318456394+318706235+319081985+319367258+319602801+319824019
1879+320024891+320210591+320399624+320671674+320848840+320962232+321391047
1865+321917204+322224998+322450312+322724736+323002776+323239167+323440011
1852+323612684+323742154+323936500+323910702+323751224+324077695+324470314
1838+324576049+324725326+325117069+325507907+325709741+326134176+326592293
1825+326842953+327217431+327574730+327761220+327964664+328297267+328595906
1811+328797146+329046478+329312623+329527341+329674810+329801143+330064716
1798+330463551+330788157+330789853+330771401+331173429+331510723+331451300
1784+331437568+331593429+331684470+331815380+332017553+332022724+331925523
1771+332222297+332508051+332612288+332708020+332605280+332661227+332952011
1757+333064923+333258505+333427477+333347766+333465651+333782430+333983812
1744+334059453+333993786+333945864+334317884+334374735+334120430+334612341
1730+335137085+335118126+334932907+334764924+334802759+334813468+334439950
1717+334308729+334649978+334882187+334787698+334520424+334157785+334092400
1703+334232720+333751377+333627276+333846515+333491138+333246723+332834098
1690+332191837+331784751+331032205+330235863+330243718+330182600+329567832
1676+328650751+328258076+328321285+327974271+327732314+327982126+327956837
1663+327657209+327712789+328102243+328530832+328328914+328217302+329646299
1649+330646283+330306701+330277597+330905364+331367351+331755477+332117325
1636+332671513+333953323+335179102+335751232+336337942+337256323+338064363
1622+338973193+340050514+340657258+341280758+342559121+343620845+344170879
1609+344732610+345472751+346209840+346850039+347459383+348048749+348571572
1595+349053989+349544402+350016223+350422065+350755601+351020558+351220357
1582+351461100+351762056+351665787+351522981+352081180+352285529+351712099
1568+351435923+351386362+351311455+351199109+350373635+349875677+350491180
1555+350455832+349674832+348804600+348068246+347419994+346724187+346043892
1541+345066626+344257371+344121967+343291774+341630116+340385321+339330068
1528+337906920+336503438+335103489+333361499+331926314+330560837+328838457
1514+327060355+325268211+323358436+320650765+317467543+315088123+312749703
1501+309395475+305093989+300227635+295364954+290053057+283134489+274727105
1487+265784890+256870762+248204750+240214173+233478676+227972532+222809263
1474+216611734+209400433+202978932+198365922+195253214+192743561+189965236
1460+187382584+187862825+194545426+205986344+218095068+228827181+237425237
1447+243335090+246425603+247471927+247931909+248810137+250522939+252971304
1433+255029903+256146557+256920747+257751166+258566242+259551109+260716759
1420+261983905+263748161+265687378+267297101+268814879+270488602+272189819
1406+273667699+274999692+276180629+276799946+276706616+275475780+272703628
1393+268871815+264062566+258098688+252309037+248946191+249498485+254656329
1379+263752908+274294278+283491590+290157435+294604073+297745108+300557497
1366+303187718+305153948+306362745+306882291+306729708+306162183+305427948
1352+304538304+303509979+302792584+303256267+305455441+308824023+312263669
1339+315423608+318465182+321552417+324880904+328557619+332559336+336781281
1325+341139562+345569415+349960106+354211296+358244660+361936605+365207364
1312+368012519+370177786+371577368+372265094+372404594+372245823+372021328
1298+371930202+372138365+372741718+373738764+375027243+376473730+377930079
1285+379156536+379895321+380011171+379552122+378857897+378551912+379247125
1271+381185467+384063042+387294271+390443642+393280953+395620560+397334378
1258+398332074+398487058+397690886+395825360+392764883+388485154+383121379
1244+377026759+370855594+365446778+361612705+360178509+361925359+367114992
1231+375108960+384598383+394256156+403123295+410662396+416827458+421882252
1217+426047063+429481680+432369032+434835537+436967659+438845307+440523636
1204+442060826+443466539+444657309+445702898+446638543+447492500+448258806
1190+448925170+449460511+449843127+450078020+450207009+450325798+450482648
1177+450609122+450589767+450374653+449972992+449376307+448584769+447594900
1163+446396897+445037015+443583831+442084080+440485123+438575744+436166966
1150+433195467+429602475+425310765+420357552+415042603+409831524+405092266
1136+401020418+397637453+394815599+392420299+390372493+388542683+386689393
1123+384537237+381741943+377805159+372167497+364241033+353286078+338571617
1109+319803448+297557516+273913244+252562211+237378077+230216916+229983605
1096+234036522+240252686+247641577+255638032+263258765+268883259+270569132
1082+266293444+254123306+232747987+202828313+168891424+139197827+121704984
1069+118757871+124772907+129407829+124952418+111602113+95685962+84077662
1055+80934090+88079866+106403517+136209714+176553778+224408192+274808116
1042+322315191+362672536+393638110+414855972+427046822+430961114+426500518
1028+412273758+385573615+344025105+290625469+238075778+204313977+200717778
1015+224901233+264501469+307292117+347651468+384689170+417814812+445616350
1001+466930226+481466193+489790955+492922073+491728986+486702222+478035108
988+465640758+449086937+427530086+399556383+363170296+316788633+261885997
974+205512051+158789408+131782728+130066367+154729073+202408342+265129574
961+332787476+396749674+451530074+494896328+527302089+550681996+567344123
947+579325962+588060212+594450617+599095471+602410819+604732681+606288294
934+607145302+607315065+606859858+605829188+604179991+601809585+598555214
920+594219425+588631551+581668112+573359060+564042677+554436161+545809679
907+540056563+538775544+541657555+545825390+547240117+542921960+531612786
893+513528981+491180648+470446559+458830213+460137172+471995334+490609648
880+514373217+540759011+564741734+582366151+592854090+597104263+595898743
866+589309246+577344643+561971278+549024605+546262512+556723155+575060700
853+592993223+606266254+614957894+620509092+624040090+626073061+626912664
839+626993024+626698143+626061024+625038944+623790532+622489620+621195828
825+619871351+618428763+616764534+614879059+612909155+610885226+608628522
812+605962557+602947120+599813912+596940264+594826706+593638480+593035268
798+592564351+591922033+590893397+589402096+587618626+585690315+583587268
785+581244157+578631201+575783153+572663733+569078879+564967783+560521738
771+556230990+553091960+551716452+551163198+549600803+545779784+539606500
758+532352701+526964823+526649655+531647485+538664271+544352229+547782013
744+549548982+550259623+550198194+549630359+548857328+548053555+547233958
731+546321963+545315932+544218690+543004638+541791546+540555114+539509638
717+538638106+537705823+536603156+535399333+534250834+533272607+532418820
704+531594928+530782508+530007443+529298553+528714556+528317670+528028101
690+527623587+527032525+526478366+526197613+526171335+526227000+526226830
677+526205920+526379187+526549515+525897081+525384911+527520226+530448351
663+531091065+530376976+530359910+531341584+532755294+534135041+535424424
650+536891765+538620587+540396824+542120786+543941328+545904337+547884979
636+549881500+551982738+554276740+556767178+559308081+561878823+564607404
623+567440928+570353569+573546059+576900230+580119620+583259667+586523644
609+589978125+593594626+597339410+601150144+605018633+609058128+613304232
596+617613348+621770049+625880072+630233662+634763684+639316028+643758230
582+648110916+652668007+657357958+661873738+666367649+670817988+675202208
569+679824175+684701804+689570673+694238867+698764537+703339260+708046730
555+712856883+717699304+722495555+727229190+731882860+736410000+740898315
542+745372051+749672746+753756434+757848994+762146524+766574315+771119426
528+775683072+780032763+784373186+788646133+792757851+796858154+800959078
515+805021178+808688032+811731951+814307214+816827434+819319794+821057319
501+822072336+822514996+822101157+820900159+818842887+815859266+812011234
488+807376213+802790244+799867883+799810975+802595729+806911626+810550280
474+811351793+808825583+804309124+799469528+796970274+799869522+809883718
461+826615185+847702560+870039421+889181192+903341070+914389892+922807109
447+929548229+935904443+941538319+946572317+951092505+954821974+959243153
434+965053629+970979842+977288078+984515203+991931305+999221837+1006015852
420+1011497992+1018340495+1027017272+1033892100+1039590230+1045886033
409+1052513450+1058501940+1063161826+1066523514+1069379982+1073741823
##END=
