##TITLE=23
##JCAMP-DX=4.24
##DATA TYPE=INFRARED SPECTRUM
##DATE=16/11/2015
##SAMPLING PROCEDURE=Instrument type and / or accessory
##ORIGIN=Default
##XUNITS=1/CM
##YUNITS=TRANSMITTANCE
##RESOLUTION=4
##FIRSTX=3996.3359
##LASTX=399.24785
##DELTAX=-1.9287336
##MAXY=1.2860768
##MINY=0.22485411
##XFACTOR=1
##YFACTOR=1.1977523e-009
##NPOINTS=1866
##FIRSTY=0.56368423
##XYDATA=(X++(Y..Y))
3996+470618345+470767686+471012573+471327478+471616904+471796800+471965599
3983+472221832+472544998+472867169+473172419+473551470+474002130+474414771
3969+474778644+475166055+475546001+475807708+476064937+476418160+476718883
3956+476937146+477166707+477437073+477698581+477980593+478264047+478399155
3942+478625531+479001944+479272758+479475645+479566862+479716302+480183534
3929+480620161+480749049+480876793+481223198+481450917+481549649+481831212
3915+482278588+482540893+482679833+482949204+483142387+483211111+483501084
3902+483843658+483986082+484338011+484685262+484613453+484556673+485010717
3888+485232713+485142492+485653366+485969565+485948216+486336374+486539360
3875+486561306+486764441+486849438+487289399+487644712+487429385+487558870
3861+488056756+488547377+488522993+487768077+487732844+488974997+489503040
3848+489176839+488920953+489040386+489322895+489350912+489459596+489974253
3834+490221280+490180772+490426257+490748228+491051439+491236361+490976893
3821+491233574+491784509+491556292+491780677+492411333+492472144+492263335
3807+492478663+493193918+493136092+492883491+493399641+493556098+493531067
3794+493725146+493730271+493701757+493759383+493898323+494195065+494387999
3780+494389790+494666278+495050255+495175709+495131071+495146100+495480412
3767+495722861+495864738+496015622+495948341+496200096+496815574+497051802
3753+496747049+496853842+497784076+498100026+497247424+497380591+498308635
3740+498125754+497462950+497255784+497500273+497858124+498193432+498065639
3726+497797412+497830804+497826773+497801244+497833193+497789301+497363423
3713+496774917+496688577+496814728+496574269+495843986+494799993+493870107
3699+492971772+491736337+490352109+488800177+486880889+485057197+484165281
3686+483778169+482853807+481785031+481304811+481119441+481013743+481424443
3672+481124368+480242106+480440365+480893613+480951240+481099884+481308842
3659+481183636+481092817+481684707+481997970+481529444+481390703+481626733
3645+481486996+480865298+480227774+479779652+479385871+478995275+478604680
3632+477850460+476740381+476417911+476316642+475423930+474171028+473033031
3618+472332606+471623523+470411029+469150961+467892735+466513781+465257296
3605+463888992+462292969+460765123+459311126+457674645+455964812+454449705
3591+452804765+450680599+448638743+447029234+445323333+443347214+441358306
3578+439428866+437526448+435685588+433831739+431711455+429434266+427453669
3564+425536470+423282123+420966019+418784923+416605172+414290386+411927504
3551+409642278+407204128+404548013+401953555+399489628+397034782+394488396
3537+391869330+389349866+386891487+384302503+381594833+378847103+376050106
3524+373277544+370640912+367988977+365213578+362426559+359671514+356924157
3510+354182771+351485303+348695024+345706861+342803544+340100377+337394051
3497+334639851+331915684+329226377+326506614+323699565+320880125+318143915
3483+315396857+312569729+309773554+307089770+304446444+301686696+298722145
3470+295716863+292957065+290464598+287956555+285317384+282693765+280180870
3456+277765088+275390984+273001777+270586817+268166309+265772349+263401828
3443+261050640+258732645+256365682+254007179+251878335+249929985+247943217
3429+245942765+244052663+242214266+240305527+238352101+236462422+234590186
3416+232609041+230604856+228746105+227008530+225316587+223626859+221823595
3402+219924884+218245880+216927340+215614473+214038878+212380775+211021204
3389+209966287+208925429+207763694+206549932+205369075+204293432+203365213
3375+202527217+201642442+200664224+199791654+199256880+198995036+198756767
3362+198449277+198182531+198014628+197886822+197718459+197517053+197489857
3348+197747197+198072926+198284422+198453245+198706132+199157813+199850947
3335+200643298+201420620+202184643+202892010+203562091+204405773+205530733
3321+206727563+207809502+208834088+209930930+211138746+212339570+213406157
3308+214444054+215749780+217455109+219307217+220983608+222467737+223937260
3294+225507804+227234756+229139587+231117298+233045942+234943484+236889918
3281+238912914+240961190+242994437+245029027+247071232+249196542+251528496
3267+254011085+256505394+259012939+261582540+264168413+266725051+269333492
3254+272068508+274853362+277594946+280349345+283258359+286339208+289453473
3240+292557113+295697032+298817691+301914017+305146147+308554964+311994758
3227+315414349+318839986+322254351+325665134+329126725+332619493+336091485
3213+339596320+343146740+346708232+350298611+353902875+357470090+360986944
3200+364504768+368066210+371637431+375171727+378687884+382203941+385715893
3186+389248124+392797498+396304225+399758277+403224496+406692756+410079875
3173+413412579+416763172+420106151+423382447+426592557+429780621+432964506
3159+436125250+439207915+442157413+445043511+448018189+451059500+454008749
3146+456828512+459560392+462207824+464835250+467547523+470281544+472882346
3132+475340427+477728042+480092218+482439872+484726268+486933787+489104233
3119+491265970+493422731+495598353+497762429+499817273+501778960+503733780
3105+505668793+507528912+509331604+511109464+512841889+514537937+516175015
3092+517688181+519138844+520608019+522085206+523518054+524863716+526134084
3078+527391465+528656659+529851934+530913345+531859055+532723103+533560926
3065+534420047+535267524+536035030+536695644+537256282+537716547+538092910
3051+538447079+538772932+538950837+538970593+538944666+538892464+538745213
3038+538454444+538014184+537445932+536733962+535867674+534844084+533616114
3024+532148630+530450044+528508014+526227740+523513177+520360047+516803581
3011+512801033+508208138+502850324+496647273+489585996+481565374+472466968
2997+462289735+450928671+438101767+423628180+407418983+389260714+368840011
2984+345875858+320598089+294365951+269433493+247611243+229731925+216262870
2970+206467299+198363322+191454062+187730054+189839676+199010002+213930891
2957+231209237+246958069+258582383+265251422+266809774+263154477+254653311
2943+242921334+231327028+223731637+222154051+226062720+233454776+242358655
2930+251810831+261705158+272054549+282705832+293536116+304439402+315086406
2916+324888943+333181599+339472956+343661173+346118332+347475912+348275367
2903+348816796+349168999+349084575+347939362+344997254+339846931+332579532
2889+323171223+311095975+296376605+280546807+266740478+259060712+260313092
2876+269786691+284150374+300321353+316791884+333021932+348685967+363475405
2862+377177479+389727100+401312797+412442011+423704916+435423781+447526374
2849+459639119+471258456+481965375+491560423+500081768+507704031+514599594
2835+520928050+526874022+532598843+538147103+543524971+548767582+553838558
2822+558676141+563272968+567616000+571687719+575538687+579264399+582921736
2808+586542546+590143451+593681404+597082657+600319440+603432063+606439784
2795+609282638+611892995+614203775+616180391+617939738+619615284+621182344
2781+622597625+623896110+625105121+626224506+627236601+628137972+628960069
2768+629688013+630311852+630922951+631598145+632328627+633076825+633836319
2754+634612584+635305395+635787208+636062451+636193777+636234335+636267278
2741+636408956+636821846+637678379+639034441+640760049+642595137+644255007
2727+645569466+646604453+647581265+648707369+650144447+651977544+654134454
2714+656410797+658598163+660585428+662324373+663801858+665117263+666415600
2700+667713587+668898164+669864775+670633575+671307724+671916982+672399392
2687+672701557+672817905+672771276+672573863+672307677+672252190+672698920
2673+673689268+675070809+676636824+678197465+679662261+681042708+682388916
2660+683740400+685072028+686332743+687540310+688739318+689914787+691036711
2646+692119471+693206062+694313206+695381285+696341278+697219508+698097192
2633+699029864+699990603+700873611+701613398+702249429+702828679+703337613
2619+703766676+704122238+704398526+704618382+704845405+705106863+705375836
2606+705642520+705924332+706215749+706469843+706673924+706853123+706998383
2592+707113935+707220081+707332945+707476613+707640783+707809930+708011523
2579+708294729+708681443+709169476+709766691+710428797+711059205+711639599
2565+712223228+712831939+713438857+713983223+714448862+714894347+715334657
2552+715743615+716113907+716461308+716844539+717320230+717875196+718436780
2538+718981593+719595031+720329394+721117204+721899938+722683916+723470482
2525+724274316+725116070+725971807+726830282+727739366+728700403+729620435
2511+730496675+731454180+732503797+733524551+734486832+735434583+736354416
2498+737231850+738050912+738781444+739457335+740112275+740739398+741362739
2484+741990011+742581702+743141743+743720545+744335725+744973447+745624556
2471+746299303+747000424+747696320+748368081+749051188+749776744+750527629
2457+751294637+752074485+752821290+753525596+754251002+755014925+755770239
2444+756502861+757224436+757931778+758629963+759330836+760034445+760721085
2430+761386775+762048782+762703076+763334130+763908105+764400866+764844808
2417+765242271+765552200+765805597+766096366+766468301+766910402+767393707
2403+767884726+768361015+768804509+769185103+769600232+770108369+770680802
2390+771284536+771898322+772478467+772978991+773403476+773784169+774164762
2376+774537592+774812288+774998902+775130079+775111517+774937294+774799847
2363+774879021+775228910+775735654+776198954+776623141+777188506+777794181
2349+778159497+778496696+779190054+779930588+780325713+780661717+781158509
2336+781720491+782218327+782700887+783279241+783925423+784513033+785024207
2322+785560809+786134535+786654815+787049044+787387586+787821278+788385549
2309+789040440+789765000+790527380+791270303+791952564+792588346+793211836
2295+793839904+794455482+795034483+795563472+796035729+796454591+796845535
2282+797220953+797579749+797909982+798170296+798344220+798485997+798647679
2268+798822499+799006625+799247731+799579505+799968957+800361891+800732283
2255+801072070+801387273+801782895+802329400+802519050+802674860+802869387
2241+803160256+803534081+803931196+804338811+804800967+805324830+805871086
2228+806402712+806881688+807323790+807798934+808302792+808779031+809214065
2214+809597644+809886175+810066618+810195357+810310908+810419294+810581175
2201+810893691+811418251+812141169+812985112+813877376+814793228+815702412
2187+816541628+817284302+817978556+818687043+819407323+820069679+820656791
2174+821229174+821801955+822347515+822875856+823407184+823960706+824534333
2160+825080291+825611817+826223961+826918514+827594753+828233272+828867212
2147+829462088+829999885+830529819+831063187+831556545+831999890+832448809
2133+832956996+833487030+833965857+834409102+834866332+835338241+835830902
2120+836344862+836846381+837337052+837859472+838401698+838931283+839475400
2106+840062413+840678588+841306308+841973441+842729551+843497406+844208928
2093+844830676+845368722+845868947+846313934+846623365+846780121+846823117
2079+846797339+846725680+846607242+846433765+846216198+846000025+845799775
2066+845678153+845875416+846402116+847068154+847823070+848659897+849548578
2052+850452288+851345149+852182971+852918181+853504099+853888773+854127738
2039+854307385+854489819+854773871+855168199+855688230+856396965+857272011
2025+858233845+859259874+860309889+861266049+862137413+863041819+863892878
2012+864666705+865451778+866158224+866732696+867265268+867836854+868381568
1998+868836310+869267662+869625164+869926832+870403669+870796703+871054777
1985+871396555+871797253+872202031+872547988+872862794+873222984+873633734
1971+874002483+874191486+874337294+874665137+874911269+874997957+875094200
1958+875132717+875052100+874914454+874703654+874332616+873791186+873123755
1944+872182922+871330469+870998146+870830642+870885979+871339625+872047962
1931+872874837+873768594+874738489+875670863+876825382+878245539+879224691
1917+880424992+881963488+882987427+883692878+884396836+885174942+885869943
1904+886438941+887016101+887605702+888099657+888528621+889181720+889725936
1890+889875825+890354452+890949129+891263935+891646120+892045524+892379140
1877+892771080+893398998+894120473+894236622+894200892+894976808+895832744
1863+896262205+896650462+897157157+897725558+898256139+898694259+899119242
1850+899654799+900189560+899830664+899418819+900205286+900801455+900983690
1836+901631017+902612955+903186632+903508205+904457797+905050384+905338516
1823+906262629+907060540+907535585+908204509+909086522+909653729+909984061
1809+910617454+911453087+912207008+912596658+912788049+913476580+914610995
1796+915284000+915038366+915130031+916277384+917008214+917043347+917367011
1782+917864748+918330735+919179008+919896303+919736661+919451913+920119842
1769+920685058+921166075+921557516+921349902+921646494+922230123+922528506
1755+923308902+923633859+923242716+923522687+924226147+924717514+924937370
1742+924947423+925507464+926675120+926060240+925012315+926111795+927116724
1728+927409335+927702941+928150616+929050046+929235764+928150516+927737975
1715+928267859+928745491+928999087+928945840+928765795+929337879+929658358
1701+928278508+927896223+927454023+926218488+926419434+926341206+925979622
1688+925442572+923041670+921000262+921245697+921107951+919683911+917779950
1674+917055987+916494951+914726546+913974516+914102907+912935051+911474983
1661+911422134+912187202+912082499+909323895+907266363+909221979+909347881
1647+906914036+906193457+906942899+907418640+907535486+906635160+906008037
1634+907592614+909214415+909743702+910630293+911834775+912716987+914414727
1620+916174074+916316896+917010802+919504762+921368016+922271526+923238536
1607+924374841+925450634+926427496+927399681+928324789+929142606+929932357
1593+930736738+931458213+932090611+932688970+933223034+933800791+934664591
1580+935269917+934563968+934310671+935837721+936060563+934903058+935004975
1566+935797612+936712070+936641107+933812337+932105838+933273495+933218157
1553+932241096+931386055+930965950+930770577+930222081+928901650+926256309
1539+924853469+925407439+924101041+921671674+920683963+919656442+917886843
1526+916346058+914242444+911225169+909123745+906986791+904404251+902371900
1512+900586376+898071615+892982675+887382860+884462027+881514918+876364569
1499+869456963+861783990+854506142+846117666+834471755+820117103+804175188
1485+787212965+769829991+753227859+738692267+726113285+713914648+699801849
1472+684193300+669932553+658316599+649647108+643222907+636638168+629151510
1458+626289995+636020898+656623089+679763232+701091775+718731779+731306033
1445+738327598+741302674+742780309+744125324+746818189+751630443+755852698
1431+758161636+759917351+761597176+763044505+764725126+766090992+767055662
1418+769236956+771838754+773624775+775160086+776897986+778620209+780086449
1404+781830320+783718257+784871780+785285914+783812509+779571891+773611787
1391+765553245+754793825+743831469+736628017+736099725+743999073+759162336
1377+776897538+792157840+802895513+809366890+813124152+816488431+819947658
1364+822740897+824945978+826345136+826502340+825806294+824747471+823346572
1350+821558262+820011355+820147559+823101933+828060592+833188149+838003289
1337+842753836+847523094+852543062+858038572+864008231+870261046+876655289
1323+883093623+889379979+895403482+901136764+906348123+910873936+914747845
1310+917727897+919564279+920269431+920018622+919243900+918394931+917743822
1296+917485548+917809211+918770348+920226933+922023902+924026992+925887858
1283+927188981+927730012+927499208+926705576+925931053+925976736+927398884
1269+930052586+933300467+936595822+939613197+942134029+944003355+945024308
1256+944995445+943687455+940737261+935892959+929172663+920761296+911074285
1242+900945870+891562418+884174691+880030864+880284957+885381462+894534906
1229+906113934+918479330+930297623+940597225+949157784+956342176+962372348
1215+967345339+971507678+975102612+978345217+981390958+984199425+986724338
1202+989101552+991469510+993656129+995526649+997112719+998554574+999905162
1188+1001033007+1001826440+1002430771+1003055904+1003659538+1004060136
1177+1004254215+1004375340+1004381411+1004094772+1003487156+1002695415
1165+1001808526+1000733430+999371993+997847928+996304456+994616171+992502804
1151+989798841+986403560+982097105+976730583+970460948+963637641+956675096
1138+950068262+944311691+939604538+935701169+932314746+929468459+927160815
1124+924988826+922365082+918949100+914518335+908333099+898998216+885011817
1111+865193205+838649322+805157972+766904878+730057112+702941095+690927131
1097+693050103+704007084+718593734+733670657+747319758+757877037+763761451
1084+763210119+753518778+730773561+690804613+631758882+559051758+488639191
1070+440879928+426105917+435098624+445350056+438227968+411100331+375829976
1057+349518291+345932216+371217549+423423203+494428407+573929427+652794366
1043+724262373+784427937+831851395+866531651+889395704+901933581+905582060
1030+900693169+885215947+854007708+800516009+724249832+641366420+582751245
1016+572599590+608984155+669038448+730683787+785136673+832374512+873250453
1003+907253723+933412336+951352664+961859881+966397539+966041031+961033405
989+951253634+936761237+917527250+892620893+859659875+814736896+753144953
976+672694341+579624688+492042484+434707780+426166679+468827547+548925383
962+644690639+737652155+818249271+883559412+933904599+971359283+998837331
949+1019117352+1034182530+1045309903+1053585614+1059967616+1064843766
937+1068313992+1070734003+1072455629+1073506640+1073741823+1073091709
926+1071645475+1069562564+1066748325+1062778969+1057308341+1050275728
914+1041809422+1032187502+1022040176+1012604571+1005807739+1003634755
903+1006307964+1011122408+1013800892+1010960974+1001127558+984318161+962715718
889+942588771+932980386+938905656+956784875+979184632+1001318751+1020954231
876+1036283257+1046380122+1051589690+1052633634+1049838404+1042557968
864+1029708769+1012512907+997034988+991776154+1000186924+1017050066+1034232394
851+1047450342+1056414783+1061973294+1065064717+1066744642+1067702097
839+1067960669+1067419040+1066366338+1065233715+1064072329+1062558914
827+1060694465+1058948554+1057425883+1055611795+1053203727+1050565353
816+1048082938+1045653771+1042932291+1039792995+1036543123+1033556104
804+1030856620+1028357883+1026121002+1024071433+1021944729+1019552088
793+1016814485+1013816219+1010836266+1007893437+1004614604+1000952091+997170146
779+993258616+988905881+983811168+978242804+973052345+969115834+966648149
766+964776933+962098349+957453202+950376797+941827982+934901466+933163815
752+936930832+942833907+947596895+950285431+951230046+950935743+949880553
739+948377688+946660241+944839684+942836694+940681426+938573433+936447825
725+934284893+932701709+930629049+928254721+926003509+923948266+922030969
712+920116657+918200255+916431253+914859216+913296635+911612231+909874979
698+908210879+906684327+905243865+903743488+902140299+900613348+899352236
685+898307794+897275097+896055487+894612836+893257470+892399842+891962717
671+891014817+888891000+887193161+887456212+888080647+887982812+887528966
658+887240436+887140610+887033917+886948622+886982262+887064969+887142203
644+887351708+887827350+888491795+889140914+889666120+890144350+890732856
631+891567095+892641893+893664140+894800545+895999652+897195674+898660719
617+900352387+901937363+903444806+904896614+906328317+907999483+909837059
604+911587947+913429603+915533615+917542478+919287692+921237038+923486658
590+925539213+927247901+929112449+931345448+933574466+935633093+937651411
577+939691824+941857044+943869789+945602364+947447802+949412177+951038655
563+952516539+954485491+956782287+958825885+960772444+962956674+965051429
550+966793857+968481545+970383416+972286182+973853541+975266732+976967757
536+978913320+980525566+981677398+982949956+984349811+985392162+986282734
523+987249246+988154349+988751215+989227056+990173562+991174610+991534601
509+991232137+990647114+989942360+988685129+987199382+985704380+983609724
496+980532732+976354170+971556845+966466014+960747761+954726348+949929222
482+947814661+948105878+949141860+949376247+947699607+943904126+938578310
469+932268665+927278854+926619783+931219247+939652013+949612426+960092372
455+969106677+975059018+979621558+983221467+985131400+985821026+986555738
442+987853079+988523297+988311104+988818197+989992223+990565999+991076774
428+991822434+991879066+991518079+991691158+991774960+993323010+996588408
415+997864151+996464596+994031248+992317285+991853487+992343162+994192980
401+996432050+997467236
##END=
