##TITLE=23
##JCAMP-DX=4.24
##DATA TYPE=INFRARED SPECTRUM
##DATE=16/11/2015
##SAMPLING PROCEDURE=Instrument type and / or accessory
##ORIGIN=Default
##XUNITS=1/CM
##YUNITS=TRANSMITTANCE
##RESOLUTION=4
##FIRSTX=3996.3359
##LASTX=399.24785
##DELTAX=-1.9287336
##MAXY=1.3192787
##MINY=0.22846937
##XFACTOR=1
##YFACTOR=1.2286741e-009
##NPOINTS=1866
##FIRSTY=0.58377004
##XYDATA=(X++(Y..Y))
3996+475121970+475282834+475447433+475670343+475935797+476158173+476383848
3983+476702179+477081635+477445858+477749442+478019651+478363936+478803206
3969+479239663+479613637+479903201+480125674+480374101+480677491+480983403
3956+481251186+481454400+481631806+481864418+482128708+482324015+482520971
3942+482829503+483120426+483313695+483460345+483610487+483864784+484205188
3929+484473068+484673856+484947557+485243428+485422969+485608961+485924916
3915+486212637+486376993+486540816+486676502+486714098+486871324+487220412
3902+487526567+487781882+488063248+488226052+488332001+488626950+488876153
3888+488859562+489020716+489359665+489508401+489724907+489996377+490124544
3875+490317862+490537667+490781145+491062851+491156768+491275136+491561450
3861+491759328+491730076+491535012+491677392+492412679+492819156+492544290
3848+492339572+492513389+492809841+492957607+493074568+493412013+493690420
3834+493738979+493872337+494132698+494379087+494595253+494686018+494890591
3821+495312009+495441728+495537489+495888033+495982145+495849466+495960314
3807+496345155+496480987+496450037+496808924+497112265+497088834+497165870
3794+497264251+497276039+497361953+497540329+497768818+497951366+498028742
3780+498211727+498524237+498677047+498654635+498716342+499007992+499311188
3767+499428634+499464484+499444643+499528955+499886242+500192639+500245080
3753+500413608+500957518+501288026+500988808+500936367+501407121+501396497
3740+500930740+500733977+500838956+501025725+501279148+501432444+501403386
3726+501391986+501437974+501459707+501460872+501377917+501115180+500776279
3713+500665188+500696139+500447324+499900455+499243126+498590988+497842749
3699+496772492+495399766+493871221+492259480+490683977+489403083+488441733
3686+487492754+486404208+485404923+484864263+484907924+485230379+485074706
3672+484399476+484159830+484403891+484580957+484817644+485182789+485349037
3659+485258709+485295093+485464786+485453482+485466483+485661790+485631713
3645+485204765+484679920+484279362+483941674+483547811+483088311+482493805
3632+481764388+481242406+480855430+480072069+479020391+478040802+477230177
3618+476472138+475491045+474335989+473150711+471906104+470644906+469315695
3605+467829210+466310804+464805157+463190893+461517154+459912835+458264759
3591+456411140+454467096+452600039+450761508+448916669+447102490+445277978
3578+443398551+441483226+439518176+437389789+435129305+433003392+431035965
3564+428975106+426795976+424628537+422437958+420168645+417841265+415464790
3551+413004731+410431058+407816296+405271293+402826757+400399249+397874136
3537+395261338+392642938+390018158+387369317+384704297+381942303+379047145
3524+376186940+373469358+370785394+368016245+365165718+362287879+359447951
3510+356686515+353940020+351083647+348112690+345194757+342404141+339643820
3497+336836686+333987008+331173544+328400804+325568638+322669745+319781913
3483+316885178+313948471+311093602+308378300+305679225+302858872+299849470
3470+296766549+293909012+291368302+288867032+286217536+283559672+281034146
3456+278547915+276015840+273504771+271022033+268527239+266050274+263633656
3443+261277290+258912094+256446650+253967283+251735009+249760451+247787349
3429+245735561+243733813+241808640+239871436+237933431+236050681+234181175
3416+232239702+230250615+228328837+226508546+224776763+223065671+221181271
3402+219136857+217330513+215943888+214598474+213034153+211411787+210065064
3389+208983236+207896606+206723286+205534224+204375846+203302702+202353468
3375+201473909+200519472+199437839+198475943+197922829+197702563+197515346
3362+197222010+196933658+196766718+196656064+196447756+196184825+196182605
3348+196530298+196905740+197114812+197286566+197558399+198014455+198693226
3335+199469929+200238615+201021237+201784842+202506036+203332185+204381352
3321+205551082+206699710+207797788+208917964+210111489+211267199+212305585
3308+213382586+214762127+216529105+218433273+220152321+221644773+223092837
3294+224663756+226451521+228436072+230471317+232464794+234435253+236417742
3281+238435645+240475984+242527311+244597291+246673771+248852488+251259670
3267+253801763+256349506+258911876+261497046+264087795+266700326+269393191
3254+272193922+275033024+277843748+280672712+283649878+286804038+290011949
3240+293194124+296333318+299406197+302529285+305888285+309420833+312942757
3227+316429851+319923784+323430185+326943062+330458947+333995134+337591936
3213+341234459+344858815+348462942+352059962+355648517+359254949+362896720
3200+366561826+370232025+373884761+377477318+381011006+384569314+388190153
3186+391811259+395384970+398923679+402463868+406017786+409523410+412953163
3173+416353712+419736264+423120950+426514270+429842344+433088966+436301243
3159+439455354+442508659+445469210+448406815+451452600+454577653+457596564
3146+460477799+463276322+465967586+468595932+471283170+474022460+476697862
3132+479228748+481637676+484027831+486430501+488787474+491067314+493264975
3119+495386086+497498319+499679486+501876323+503969345+505960979+507928212
3105+509876816+511771766+513607388+515398233+517147989+518838901+520454911
3092+522003539+523514134+524982282+526386298+527756937+529095608+530351907
3078+531568426+532823464+534059387+535167047+536129998+537008975+537875000
3065+538748447+539579495+540316382+540964833+541543865+542026795+542410472
3051+542743745+543025935+543201013+543256025+543220757+543112286+542932794
3038+542659529+542247910+541675573+540950523+540084061+539053680+537816543
3024+536352083+534650207+532671671+530353653+527630129+524458747+520849551
3011+516775519+512101547+506668081+500400122+493254545+485124333+475914549
2997+465599240+454038110+440992873+426331189+409917711+391452057+370613858
2984+347172273+321387493+294637628+269213748+246958023+228721804+214993454
2970+205027184+196792344+189755918+185947910+188080117+197359612+212438385
2957+229930052+245925362+257759586+264542274+266112247+262374714+253688173
2943+241706232+229882996+222137333+220506042+224475241+232030739+241124120
2930+250748749+260824727+271367652+282206860+293222746+304310477+315141341
2916+325131697+333601561+340040740+344336906+346844288+348218106+349080516
2903+349748518+350171537+350021006+348744308+345672084+340384322+332952867
2889+323355987+311080237+296116594+279979606+265893291+258067948+259324441
2876+268914821+283474680+299903269+316700957+333303604+349307671+364355481
2862+378240038+390957435+402746956+414058980+425448185+437337833+449699546
2849+462060385+473856503+484710871+494467717+503145234+510881437+517867024
2835+524293615+530315766+536074258+541676107+547148770+552469302+557595545
2822+562487382+567132975+571524999+575645505+579530537+583261400+586920417
2808+590590204+594259264+597832756+601260859+604531010+607651988+610633933
2795+613438811+616016074+618327834+620372393+622201029+623849639+625349028
2781+626754208+628090017+629339135+630467122+631439629+632281980+633069222
2768+633807128+634454221+635041936+635666423+636387836+637169936+637953054
2754+638704253+639352219+639817006+640104339+640261661+640325260+640385365
2741+640562820+640966434+641771771+643105979+644832595+646648036+648300333
2727+649640459+650675206+651621517+652746010+654210908+656073453+658254718
2714+660535188+662699765+664646331+666344277+667826590+669185199+670476281
2700+671695565+672808367+673773743+674587618+675283368+675874964+676326411
2687+676612676+676737690+676690440+676497462+676270914+676239624+676680058
2673+677665324+679023302+680534771+682054001+683526175+684946151+686344588
2660+687737009+689059962+690275560+691418439+692534928+693664612+694808024
2646+695928103+697012769+698079436+699111418+700091008+701038581+701948896
2633+702833646+703727031+704575495+705304815+705923529+706468796+706961284
2619+707405259+707772005+708046143+708281569+708552941+708854876+709133574
2606+709387725+709649346+709923630+710180303+710401078+710574555+710692437
2592+710800763+710913358+711011206+711126566+711280250+711452999+711647966
2579+711922006+712317180+712827519+713425422+714042923+714631123+715217722
2565+715827025+716444283+717052131+717609284+718095173+718551956+718992973
2552+719402749+719786813+720151618+720507934+720905921+721406510+721996214
2538+722625309+723280310+723958353+724655704+725388419+726177942+727021263
2525+727882146+728724594+729536431+730339585+731207453+732158664+733105945
2511+734018881+734954907+735941046+736954060+737959749+738927066+739838934
2498+740714709+741557594+742312625+742955497+743542436+744132431+744734409
2484+745330953+745889415+746412999+746970879+747588962+748228002+748886010
2471+749579577+750272853+750933432+751585279+752265651+752993952+753759267
2457+754535643+755296059+756008884+756690663+757399074+758143530+758895941
2444+759633993+760337359+761007252+761684810+762402584+763121280+763769440
2430+764361085+764970824+765602927+766191030+766708113+767194051+767660827
2417+768056098+768353763+768600444+768885205+769264710+769728333+770219510
2403+770688081+771129923+771570260+771967326+772383941+772865465+773406852
2390+773979431+774530035+775006514+775386891+775688971+775946082+776211439
2376+776516575+776822682+777121997+777364069+777435429+777341171+777185110
2363+777124811+777358344+777832931+778251729+778577920+779063858+779674373
2349+780118301+780531278+781257590+782038526+782486092+782813058+783223561
2336+783631202+783943712+784319869+784930579+785656551+786235680+786604075
2322+786955540+787472380+788109819+788645627+789024598+789434810+789989198
2309+790665882+791429403+792241677+793055552+793822807+794528357+795189566
2295+795834379+796474923+797105037+797697458+798209738+798627615+799003917
2282+799378037+799742842+800074660+800339144+800536440+800709140+800873885
2268+801041928+801263431+801552995+801852553+802140662+802470054+802851984
2255+803211841+803513679+803907009+804498265+804728209+804889170+805079092
2241+805356722+805708235+806109182+806558979+807074218+807611627+808120026
2228+808624690+809130178+809613157+810080758+810525462+810937371+811334679
2214+811720733+812062204+812315725+812479839+812594956+812699595+812836979
2201+813109273+813621117+814353929+815211707+816123721+817031271+817869741
2187+818629332+819350890+820062649+820779938+821486360+822127486+822692255
2174+823235971+823788224+824325730+824851787+825387643+825939023+826502046
2160+827055755+827618486+828230991+828866684+829494615+830129046+830758724
2147+831342994+831882926+832421305+832959490+833458089+833923507+834384656
2133+834846096+835315201+835799927+836277764+836728434+837178037+837654031
2120+838133323+838618631+839139740+839676372+840192533+840698603+841236691
2106+841821350+842431623+843050725+843683410+844384690+845125556+845834210
2093+846444094+846957442+847398798+847777187+848068740+848259098+848367764
2079+848392116+848322551+848189048+848016250+847799987+847546272+847315844
2066+847255495+847502612+848024497+848686580+849426573+850252333+851136695
2052+852011258+852843033+853617663+854299150+854858486+855287812+855587903
2039+855806786+856039738+856336627+856691827+857157633+857819716+858664784
2025+859612017+860599999+861571003+862500674+863409292+864270369+865060327
2012+865824575+866575531+867234606+867772403+868260719+868758833+869260926
1998+869726441+870111524+870444215+870812513+871216807+871572007+871883159
1985+872238068+872671274+873090218+873423976+873731635+874085380+874471531
1971+874806841+875053667+875278663+875528884+875745148+875882241+875965971
1958+876012833+875994108+875868075+875623966+875261587+874743776+874040362
1944+873250403+872570759+872138037+872022968+872237486+872703195+873331999
1931+874062677+874863017+875716138+876672297+877816777+879033830+880253308
1917+881507230+882673249+883677434+884542682+885291989+885977648+886619162
1904+887231764+887833887+888379154+888861551+889359375+889868744+890289240
1890+890649583+891041846+891455356+891885167+892316433+892703651+893060306
1877+893464115+893940884+894354201+894640709+894974952+895486650+896115939
1863+896727474+897256538+897769886+898329804+898855958+899264035+899597794
1850+899939702+900235136+900389499+900444026+900558803+900907891+901500894
1836+902191890+902875997+903534393+904201036+904783075+905256740+905858669
1823+906626992+907382605+908075832+908759648+909420761+909984269+910476853
1809+911010478+911637051+912269930+912791427+913264510+913824913+914443724
1796+914978222+915371164+915708900+916129299+916666902+917234582+917712419
1782+918113414+918562726+919067632+919519564+919889318+920156518+920294485
1769+920487948+920875748+921305558+921692970+922011690+922252694+922589363
1755+923012964+923312279+923466157+923596556+923824753+924192469+924603748
1742+925006102+925437950+925771417+925906278+925964007+926072575+926432918
1728+927098396+927725357+928175542+928536952+928742252+928656678+928296724
1715+928031076+928208239+928641446+928938141+929029536+929038851+928967345
1701+928714698+928125867+927315727+926702156+926293011+925904920+925496357
1688+924882883+923853181+922396094+920993339+920059981+919369761+918531291
1674+917490528+916392134+915403376+914619238+913965305+913297109+912557020
1661+911910461+911543812+911244885+910646740+909657885+908529025+907620408
1647+907049914+906634948+906389674+906453321+906657942+906805805+906974236
1634+907298971+907901773+908878210+910068388+911238385+912403433+913596036
1620+914718880+915926134+917341210+918774915+920206291+921621076+922834054
1607+923859002+924880457+925956051+927001277+927955495+928827341+929635831
1593+930384750+931091366+931775570+932432026+933025029+933544779+934032998
1580+934464070+934802000+934996918+935009240+934995948+935043877+935042228
1566+935061632+935207555+935181359+934569048+933403320+932304732+931691063
1553+931314615+930865691+930369226+929804651+929098131+928186118+926942966
1539+925498201+924175781+922964356+921701896+920320584+918856996+917304924
1526+915604213+913609232+911208210+908618577+906125870+903795481+901565317
1512+899293724+896642870+893101250+888665759+884264033+880240210+875768045
1499+869874983+862482337+854355423+845527812+834564828+820560666+804374270
1485+787270621+770065875+753553143+738752328+725972496+713916939+700241102
1472+684390550+669263739+657669185+649684022+643089534+635572602+628101223
1458+626344432+636290473+656087909+679207791+701175674+719319163+731900632
1445+738760963+741653355+742948706+744682647+748003201+752263565+755981330
1431+758684189+760591655+762028028+763426756+764953699+766470310+768073901
1418+769987383+772100150+774181772+776101852+777837297+779422066+780949106
1404+782513840+784036563+785293589+785718985+784260297+780245983+773944746
1391+765664148+755369990+744555208+737027749+736477291+744538520+759714764
1377+777444355+792931945+803697537+809979612+813811184+817062512+820304332
1364+823287878+825545693+826722773+826894309+826382029+825374448+823889224
1350+822043852+820495564+820611894+823428658+828266986+833487972+838304471
1337+842953411+847803092+852989926+858546320+864469556+870680756+877044961
1323+883432548+889724180+895789070+901473243+906645329+911194336+915004515
1310+917922085+919765905+920451855+920176893+919398286+918552539+917909278
1296+917650907+917939840+918841375+920267609+922084651+924108932+925987098
1283+927321160+927895050+927676749+926868161+926073157+926126229+927550716
1269+930183816+933430390+936712280+939680205+942191152+944089596+945139188
1256+945130456+943823075+940895511+936095798+929395118+920980241+911307562
1242+901213901+891847134+884469818+880363138+880628010+885673967+894776735
1229+906319721+918620649+930344582+940545647+949017379+956120121+962074114
1215+966966872+971038431+974578789+977829341+980887012+983670400+986163204
1202+988542589+990933423+993106149+994957537+996576361+998083124+999463951
1188+1000584757+1001383448+1002010991+1002667932+1003330112+1003790194
1177+1003988799+1004069328+1004050214+1003754004+1003122580+1002321949
1165+1001455827+1000392652+999046850+997571329+996040407+994293513+992155715
1151+989487202+986111200+981826677+976504690+970263316+963464255+956565358
1138+950062702+944411905+939782370+935925329+932543311+929670468+927345125
1124+925160174+922519895+919118375+914724993+908557938+899212419+885183905
1111+865314430+838773576+805349833+767159123+730290540+703070721+690970970
1097+693112795+704160674+718854182+734062007+747832150+758433191+764319171
1084+763787535+754096324+731260622+691055137+631568087+558211203+487058578
1070+438729575+423812479+432987626+443366194+436122575+408674995+373038529
1057+346514047+342981135+368598430+421427806+493343175+573875326+653608057
1043+725639126+786118040+833684443+868340277+891018754+903288440+906688504
1030+901659235+886101740+854712079+800866414+724066339+640550886+581473611
1016+571274923+608028630+668663120+730856668+785685707+833137332+874121085
1003+908154906+934295832+952158199+962510813+966832981+966191661+960901303
989+950959968+936393172+917061979+892020126+858909767+813802355+751953189
976+671104406+577432566+489173382+431382628+422851275+466048891+547040735
962+643761465+737493749+818597315+884216201+934704395+972133429+999514694
949+1019741698+1034809422+1045922501+1054069401+1060232963+1064983971
937+1068450495+1070823574+1072449189+1073474040+1073741823+1073123885
926+1071698234+1069579355+1066654605+1062578099+1057102719+1050199359
914+1041904790+1032391325+1022282820+1012869773+1006136300+1004041773
903+1006725422+1011488946+1014153481+1011377952+1001619504+984884154+963414871
889+943435469+933917929+939925963+957902622+980338155+1002410143+1021928105
876+1037110316+1047010416+1052054045+1053056387+1050219928+1042802638
864+1029847584+1012707163+997403188+992251670+1000614252+1017378613+1034554737
851+1047864992+1056826786+1062201845+1065098749+1066696422+1067687703
839+1068024566+1067523734+1066527214+1065472868+1064298020+1062733432
827+1060888448+1059137867+1057525059+1055681724+1053383450+1050894624
816+1048546771+1046213860+1043467341+1040236096+1036975551+1034059242
804+1031457093+1029065969+1026926133+1024978887+1022951694+1020554457
793+1017686757+1014599688+1011679304+1008840129+1005598018+1001908244+998095251
779+994180385+989832991+984709416+979102764+974028476+970353741+968011128
766+966036133+963243723+958634368+951638157+943157693+936399576+934855750
752+938682617+944546476+949251689+951890319+952834059+952558708+951455075
739+949897958+948161736+946295504+944276753+942174756+940114963+938048962
725+936017015+934525388+932425137+929995300+927737388+925699232+923794773
712+921900016+920016709+918238670+916584433+914969393+913346397+911696429
698+910036370+908464990+907017897+905545674+903953046+902390592+901010929
685+899792227+898703923+897658018+896478707+895266506+894395824+893852303
671+892689679+890290987+888512463+888947125+889760079+889753384+889303199
658+888952170+888765887+888628697+888630734+888809644+888966530+889006891
644+889145828+889585341+890214339+890805401+891304583+891825498+892492238
631+893360980+894415422+895445221+896558945+897681789+898847808+900284520
617+901956222+903543707+905079965+906652121+908150249+909605977+911158535
604+912961799+915153833+917446480+919308152+920937163+923046437+925547488
590+927704982+929438875+931282113+933354615+935341834+937185751+939106218
577+941128463+943136057+945092326+947042288+949167474+951418983+953397276
563+955022406+956653940+958554421+960648753+962814591+965055816+967263568
550+969178505+970901531+972799296+974809024+976557665+977974002+979465532
536+981227950+982848617+984154931+985460566+986838870+988066887+989010724
523+989798354+990574924+991294638+991997180+992869123+993674412+993984981
509+993769300+993247609+992558844+991435224+989704339+987870319+985921230
496+982892666+978546048+973820557+969120680+963854384+958077166+953257466
482+950972678+951104047+951900992+951850346+950220849+946406304+940774524
469+934829942+930454994+929929907+934471249+942929592+953181691+963532268
455+972510653+979344254+984103509+987031169+988477778+989281417+990673790
442+992605221+993581076+993510346+993586994+993943553+994213179+994811906
428+995885753+996409579+996032743+995998105+996739553+997804862+999659937
415+1001824707+1002371527+1001070065+999697290+999376242+1000453000+1002325830
401+1002758745+1001100336
##END=
