##TITLE=23
##JCAMP-DX=4.24
##DATA TYPE=INFRARED SPECTRUM
##DATE=16/11/2015
##SAMPLING PROCEDURE=Instrument type and / or accessory
##ORIGIN=Default
##XUNITS=1/CM
##YUNITS=TRANSMITTANCE
##RESOLUTION=4
##FIRSTX=3996.3359
##LASTX=399.24785
##DELTAX=-1.9287336
##MAXY=1.3483016
##MINY=0.24046776
##XFACTOR=1
##YFACTOR=1.2557038e-009
##NPOINTS=1866
##FIRSTY=0.5949893
##XYDATA=(X++(Y..Y))
3996+473829351+473957085+474116575+474323769+474548525+474794405+475077499
3983+475366336+475636709+475905041+476217042+476584438+476940631+477248313
3969+477579491+477974085+478311719+478516302+478733559+479070813+479441721
3956+479747742+479954936+480089932+480270972+480548322+480780199+480948423
3942+481171423+481410752+481644528+481862924+482026116+482231744+482501832
3929+482710450+482896948+483190959+483505856+483698953+483876195+484168307
3915+484467208+484669465+484889286+485129944+485265605+485414319+485666275
3902+485884671+486094618+486329580+486426651+486495241+486800976+487086396
3888+487116111+487290695+487596241+487715336+487926897+488222285+488394543
3875+488634014+488934624+489275722+489558532+489540019+489538643+489791738
3861+490063819+490167250+490067806+490152867+490676050+490935743+490714593
3848+490653266+490935410+491280117+491438040+491539572+491841605+492088149
3834+492126883+492257275+492498503+492712152+492931071+493087807+493331788
3821+493702933+493783533+493859717+494177272+494266273+494170769+494304342
3807+494688588+494870245+494930338+495314632+495561129+495482191+495529896
3794+495621792+495645905+495728308+495856374+496007177+496152617+496259987
3780+496449476+496697824+496832298+496901031+497056201+497341241+497567042
3767+497612990+497635869+497696675+497889724+498268321+498535229+498573820
3753+498713088+499152729+499394431+499120641+499110293+499556627+499541912
3740+499152444+499089645+499333958+499569490+499730309+499751147+499689772
3726+499758077+499906554+499977375+499954448+499827854+499589616+499384985
3713+499449351+499575376+499344686+498847325+498323905+497859392+497310625
3699+496471833+495419060+494294326+493087855+491818916+490704340+489846135
3686+489078876+488307346+487631746+487213846+487178910+487446529+487410312
3672+486899945+486681597+486811799+486834678+486898711+487091428+487123421
3659+486956906+486942808+487008645+486811704+486579352+486476349+486150107
3645+485533509+484931341+484477698+484051206+483555934+483031755+482413495
3632+481658151+481062391+480577847+479734831+478642280+477630851+476793530
3618+475972824+474896649+473683485+472526853+471363671+470139020+468800352
3605+467338269+465876614+464430434+462871566+461201720+459534105+457815368
3591+455925512+453981258+452134882+450317556+448491401+446683805+444828458
3578+442883160+440914556+438961474+436910230+434720572+432582225+430536582
3564+428414517+426202786+424009093+421808517+419547753+417234823+414890469
3551+412502825+409987685+407311726+404610562+402042685+399582749+397084127
3537+394480128+391837705+389205083+386540754+383823356+381029939+378136723
3524+375265793+372527059+369825491+367024504+364124215+361213222+358374878
3510+355620100+352855900+349950081+346914226+343946914+341129408+338365943
3497+335590683+332782433+329968131+327149130+324283326+321403354+318555089
3483+315679720+312732154+309819809+307033394+304288608+301420241+298341998
3470+295195284+292308476+289768083+287266613+284601998+281880328+279245689
3456+276704751+274187403+271669604+269154250+266647820+264173027+261753438
3443+259407375+257077428+254637428+252152548+249888840+247847256+245802776
3429+243765510+241870955+240021375+238052534+236035228+234107683+232214742
3416+230214478+228174815+226279145+224523431+222817700+221097966+219230182
3402+217203905+215379150+213988625+212658264+211093486+209470775+208130850
3389+207037705+205934759+204767994+203596315+202450269+201370962+200391644
3375+199497624+198582067+197570578+196642963+196071613+195843570+195672581
3362+195373206+195055330+194851791+194720616+194545700+194330555+194312494
3348+194582605+194898250+195138825+195383400+195676212+196122569+196807817
3335+197603793+198380818+199130656+199849047+200577478+201447479+202515347
3321+203663410+204788262+205920567+207106034+208317656+209485538+210572107
3308+211658226+212983152+214688931+216550449+218259171+219794447+221299274
3294+222874233+224614378+226569667+228628459+230644102+232600935+234555773
3281+236562944+238639251+240729822+242786762+244858322+247084103+249536872
3267+252087233+254605221+257134317+259729677+262329427+264909028+267603737
3254+270473385+273363564+276166735+278974106+281936007+285068980+288254095
3240+291423071+294580276+297697727+300842423+304204116+307747490+311262762
3227+314728574+318218618+321727459+325234876+328759642+332319819+335922027
3213+339552384+343158390+346739690+350350158+353996938+357653805+361315395
3200+364999936+368704911+372378059+375990118+379576567+383168855+386773983
3186+390393019+393997578+397564803+401129513+404700559+408204725+411633180
3173+415057411+418498825+421934305+425319043+428626125+431889063+435122333
3159+438297362+441394829+444400115+447346969+450343710+453407713+456432888
3146+459354774+462167818+464874299+467535923+470247150+472999958+475705109
3132+478289694+480754662+483174346+485575280+487904872+490133121+492302938
3119+494469148+496659803+498891612+501107567+503197450+505170800+507134325
3105+509108720+511030142+512866835+514656203+516434227+518163311+519793285
3092+521341473+522871053+524377802+525787955+527107019+528393995+529663788
3078+530955084+532280414+533532454+534619403+535565755+536458422+537351041
3065+538217791+539022739+539758004+540420408+540994475+541460413+541866779
3051+542266784+542605747+542810947+542877733+542834301+542723228+542578975
3038+542367225+542030588+541551455+540911598+540105131+539142641+538008319
3024+536662626+535077129+533238015+531104463+528616379+525759712+522547565
3011+518906314+514713211+509883716+504334192+497958788+490650180+482320982
2997+472917080+462277182+450126928+436231640+420365944+402190308+381330572
2984+357518999+331068728+303507726+277380896+254842438+236744363+223022947
2970+212496140+203400134+195676533+191500387+193533558+203002383+218553253
2957+236642285+253224711+265533933+272510318+273939411+269891937+260921529
2943+248699077+236548728+228350752+226276866+229917666+237248583+246249251
2930+255955732+266212689+276927087+287895718+299030864+310271767+321279820
2916+331444240+340115107+346792331+351321976+354061541+355693935+356808653
2903+357670015+358219803+358135858+356870693+353801184+348499320+340894493
2889+330912822+318163129+302687257+285992571+271377041+263122556+264078876
2876+273487619+287930084+304262453+320959678+337459369+353374668+368308679
2862+382013672+394498166+406035952+417128117+428319630+439964977+452072511
2849+464246403+475877985+486533926+496080941+504558332+512096491+518888989
2835+525159681+531085856+536769427+542280312+547651787+552870038+557908862
2822+562758673+567405372+571801398+575912050+579792535+583532327+587173340
2808+590768975+594379087+597961858+601418746+604717379+607862598+610835891
2795+613627955+616216100+618511942+620492033+622276085+623942560+625456097
2781+626817074+628098022+629335395+630482011+631475830+632318039+633061897
2768+633745993+634382812+635003729+635666940+636392475+637140462+637874636
2754+638587972+639229252+639702167+639989771+640142615+640187756+640181016
2741+640256678+640607888+641404671+642695349+644369040+646155465+647746990
2727+649002543+650008229+650963552+652053208+653432223+655206354+657313134
2714+659540102+661694208+663658065+665367546+666844343+668183818+669459924
2700+670682392+671807078+672768714+673563504+674237774+674803345+675233919
2687+675513833+675637770+675587787+675394643+675170219+675129017+675531206
2673+676456150+677773268+679289843+680823933+682277708+683652119+684980534
2660+686280990+687552967+688788299+689983758+691139773+692248320+693331614
2646+694417425+695488236+696531943+697540999+698497082+699409780+700291481
2633+701160272+702042259+702886414+703600889+704198215+704755907+705267982
2619+705690961+706034244+706303999+706525576+706789303+707113266+707416771
2606+707666686+707911663+708181561+708443817+708667577+708835658+708970607
2592+709126110+709265188+709341088+709425675+709586826+709791219+710025469
2579+710340936+710742270+711217511+711771547+712377275+712989839+713574634
2565+714150600+714756565+715372546+715937262+716422851+716856131+717268335
2552+717679258+718083535+718469111+718855019+719284881+719790928+720352084
2538+720950312+721598476+722277968+722957792+723650812+724389922+725190171
2525+726031383+726862437+727657607+728461320+729348148+730302665+731233447
2511+732140924+733096390+734111427+735125277+736079983+736977302+737829669
2498+738647432+739438994+740180288+740853704+741476141+742084432+742680904
2484+743232946+743757221+744299580+744876400+745499264+746159532+746825400
2471+747503041+748182438+748822817+749439462+750075664+750764365+751511497
2457+752281129+753033008+753744398+754427830+755133001+755884596+756639798
2444+757352612+758029967+758694649+759361420+760047225+760740910+761393440
2430+762007380+762635560+763265686+763844405+764351069+764801200+765232201
2417+765643457+765984270+766254406+766533750+766888187+767323840+767783132
2403+768222155+768670482+769116911+769488009+769847003+770277909+770789889
2390+771310177+771754564+772146974+772593260+773144923+773759765+774456392
2376+775278238+776094957+776817834+777503307+778096694+778424786+778582425
2363+778621490+778754920+779291583+780023337+780174614+778969566+776885712
2349+776059072+778059147+781484802+783327238+783085061+782563872+782637541
2336+783111500+783600886+784120034+784734401+785185576+785306048+785385935
2322+785754470+786202749+786379042+786421810+786683021+787225286+787838181
2309+788390414+788949339+789604101+790378906+791176924+791889690+792525892
2295+793138692+793705260+794237224+794758888+795239350+795651507+796049661
2282+796472308+796885178+797247447+797528832+797719080+797873728+798068058
2268+798302261+798544818+798797913+799083855+799409004+799760166+800116265
2255+800449958+800755172+801153896+801734419+801975362+802197508+802463704
2241+802759044+803051442+803376022+803790030+804295365+804834402+805357774
2228+805872887+806385153+806866089+807323673+807789800+808266085+808712940
2214+809084038+809376056+809598107+809769274+809918985+810064994+810242806
2201+810541184+811051171+811759285+812583220+813470570+814375578+815236537
2187+816017276+816721973+817399993+818096621+818778249+819398359+819979642
2174+820541368+821052209+821525836+822029557+822576283+823145794+823712551
2160+824242949+824784833+825410450+826076129+826706492+827305433+827895734
2147+828489737+829074437+829608158+830095645+830577056+831052677+831494596
2133+831930724+832411946+832910350+833380750+833834820+834296106+834763087
2120+835236334+835730847+836247194+836780725+837318147+837851963+838401822
2106+838966681+839536951+840136650+840785811+841492976+842190363+842826517
2093+843365174+843849908+844328377+844754537+845053769+845225695+845322718
2079+845377210+845365059+845264239+845122597+844973645+844781498+844566472
2066+844488151+844705551+845203196+845858907+846604900+847425322+848276977
2052+849117715+849938136+850716882+851411706+851972672+852368263+852614428
2039+852797366+853036695+853360706+853730285+854192045+854846712+855687829
2025+856606508+857536104+858441966+859292197+860119834+860950984+861749096
2012+862495564+863208995+863847048+864375262+864863414+865362483+865832502
1998+866248314+866625393+866986523+867366735+867760047+868122981+868480029
1985+868860240+869247762+869610601+869941162+870264887+870612157+870986008
1971+871324733+871594347+871867188+872173825+872424547+872573404+872668148
1958+872737355+872754158+872684666+872513310+872223001+871780513+871146922
1944+870379378+869695947+869297697+869228111+869452725+869920751+870576557
1931+871345999+872156357+872973551+873861756+874932804+876108470+877291066
1917+878451542+879512148+880480572+881364694+882109169+882742190+883335434
1904+883932571+884535308+885093712+885586041+886068117+886561110+886997048
1890+887394918+887815761+888226352+888632955+889059969+889475307+889851436
1877+890240762+890708408+891145675+891449369+891760944+892240267+892859713
1863+893470425+893995696+894513562+895081079+895599705+896007922+896379779
1850+896778598+897126532+897312224+897364248+897469245+897817843+898407005
1836+899092051+899783742+900461857+901133992+901694388+902132415+902705628
1823+903468235+904222582+904889780+905539035+906200063+906802231+907336900
1809+907879544+908480858+909094513+909616271+910073949+910601974+911222844
1796+911809063+912238925+912552778+912941818+913491582+914097073+914602503
1782+914999423+915432703+915960727+916483910+916916810+917176455+917250504
1769+917398981+917797800+918268674+918682492+919010395+919259407+919602215
1755+920061412+920422827+920570734+920620195+920810158+921207648+921651181
1742+922062721+922508247+922894629+923078422+923101396+923142218+923491291
1728+924186115+924844484+925328649+925741707+926002777+925937462+925557060
1715+925265897+925441241+925893507+926195398+926260523+926261283+926246283
1701+926069990+925515574+924696576+924053397+923642616+923296296+922941432
1688+922381795+921350999+919795691+918329526+917451859+916840578+916028035
1674+914997429+913908818+912882864+912043360+911396953+910795165+910113157
1661+909474630+909096412+908826134+908250832+907180069+905958170+905038827
1647+904424697+903877686+903537822+903626965+903912337+904056447+904088915
1634+904281442+904861775+905875862+907092919+908253775+909370582+910514634
1620+911651852+912919698+914373711+915827344+917297686+918767648+920036539
1607+921114233+922188603+923301802+924342377+925264568+926127046+926971581
1593+927780705+928537521+929239085+929881125+930466965+931037709+931637219
1580+932184230+932571942+932748329+932767126+932800069+932862630+932856744
1566+932915414+933164331+933291828+932790765+931590986+930391492+929740148
1553+929404935+929021686+928580336+928081647+927471220+926643203+925401558
1539+923922293+922662800+921590613+920444946+919150803+917779572+916323566
1526+914724873+912835777+910506375+907955966+905536093+903343776+901283798
1512+899177112+896702651+893371693+889141423+884943526+881196756+877067211
1499+871502071+864399755+856562743+848016572+837282452+823466481+807486200
1485+790598062+773547017+757126383+742435214+729824528+717920438+704203437
1472+688090769+672728178+661096976+653191754+646615754+638963294+631241295
1458+629212740+638987028+658794156+682031544+704102854+722297239+734866391
1445+741592435+744214946+745205110+746679202+749783979+753910723+757610738
1431+760346553+762276519+763732145+765170921+766764298+768348560+770008153
1418+772033860+774385144+776827565+779217582+781535402+783776562+785926823
1404+787957846+789727325+791026121+791386301+789925785+786031488+779846664
1391+771557338+761135314+750171358+742536461+741863330+749719756+764630651
1377+782081653+797276307+807734738+813736955+817353191+820481084+823664989
1364+826557256+828670967+829725117+829795083+829148866+828009370+826471435
1350+824629616+823061872+823126902+825902114+830716420+835909608+840694959
1337+845303921+850080538+855191323+860716876+866631089+872801625+879082665
1323+885377185+891587784+897578799+903201564+908322413+912829606+916638178
1310+919589304+921467008+922183192+921941964+921183345+920322291+919640568
1296+919352253+919639239+920561146+922006330+923826029+925833509+927680455
1283+928989788+929567842+929379968+928585273+927753269+927742257+929118329
1269+931712787+934908084+938176195+941202509+943774562+945697550+946796035
1256+946926759+945846312+943160718+938572640+932094043+923978494+914677121
1242+904921203+895769637+888531470+884593598+885096749+890407181+899746528
1229+911485527+923912420+935666228+945830933+954192267+961098923+966859058
1215+971623239+975578009+978939156+981929680+984690748+987181917+989375088
1202+991418738+993461533+995325851+996906127+998250870+999502673+1000708813
1188+1001720812+1002400731+1002897997+1003462001+1004044233+1004393021
1177+1004476753+1004488335+1004453684+1004171255+1003553613+1002734900
1165+1001819639+1000734635+999415998+997979738+996512340+994864566+992811993
1151+990233958+986993473+982813328+977541534+971391599+964756739+958033496
1138+951685433+946199468+941739172+938020503+934786568+932082461+929893752
1124+927852570+925446937+922359865+918329147+912557429+903591649+889940485
1111+870472224+844255562+810956806+772702008+735753647+708654714+696940350
1097+699682858+711546173+727235529+743477544+758231180+769719316+776315015
1084+776303148+766951698+744180580+703667818+643529109+569324183+497504385
1070+449235211+435293690+445829112+456951371+449100024+419941256+382445480
1057+354641518+350696549+376880577+431143686+504959714+587287119+668170337
1043+740430440+800337366+846948467+880696357+902805309+914928792+918385917
1030+913253962+897207986+864851927+809638074+731392984+646580248+586411256
1016+575615333+612503506+673686776+736347508+791402203+838877822+879730781
1003+913558511+939514008+957304401+967774414+972468058+972488659+968099469
989+959199858+945755935+927552009+903452855+870846170+825545067+762618282
976+679899178+584183339+494445936+435780133+426773721+470189857+552226811
962+650312873+745088816+826579091+891934199+941707369+978177404+1004490614
949+1023660021+1037769434+1048069420+1055617641+1061377207+1065774941
937+1068906632+1071071133+1072604701+1073549961+1073741823+1073095131
926+1071696844+1069651866+1066839439+1062912009+1057601197+1050821089
914+1042591144+1033167971+1023255886+1014101946+1007582622+1005612831
903+1008363361+1013209659+1016003574+1013345415+1003721266+987172519+965850477
889+945982353+936623450+942845441+961030950+983499987+1005279707+1024303675
876+1039061489+1048675195+1053440230+1054141319+1051128581+1043739469
864+1030905023+1013861193+998605450+993411502+1001578316+1018032129+1034905267
851+1048035528+1056978334+1062391485+1065297517+1066891843+1067799699
839+1067942860+1067284585+1066236986+1065161286+1063977171+1062459837
827+1060671846+1058925815+1057333198+1055587073+1053382509+1050893334
816+1048479346+1046123647+1043504696+1040480946+1037342514+1034501417
804+1031958508+1029494015+1027211796+1025224443+1023279620+1020997116
793+1018205289+1015150970+1012209717+1009334444+1006147026+1002576264+998862627
779+995062029+990841917+985805750+980225325+975082737+971352391+969105962
766+967267750+964540954+959987813+953099479+944700171+937847248+936134064
752+939891277+945703721+950383410+953131661+954202520+953949615+952768348
739+951057443+949207270+947381684+945526479+943576530+941513608+939308666
725+937147013+935587338+933708305+931376720+928995294+926913481+925062643
712+923223007+921425807+919731231+918032382+916206892+914359281+912656066
698+911117087+909665068+908237257+906751441+905186734+903671299+902317917
685+901089467+899967060+898928859+897824489+896460094+894660615+893082144
671+893446691+894718050+893001829+889853240+889057976+889961560+890409175
658+890261742+890007413+889785837+889829791+890114309+890227186+890152093
644+890322500+890870935+891517627+892045651+892462318+892898541+893532322
631+894473025+895628755+896606957+897545762+898439758+899450333+900885549
617+902657591+904395458+905980670+907386076+908796135+910471534+912205413
604+913866383+915838262+918101684+920067108+921672066+923483696+925654178
590+927792382+929778976+931820537+933942602+935982359+937878007+939785900
577+941871416+944096010+946135292+947857874+949699219+951728533+953479216
563+955025505+956850236+959038470+961259267+963354656+965453367+967459233
550+969179536+970911327+972854156+974674045+976234480+977763111+979611291
536+981761931+983557043+984751600+985837743+986970499+987969492+988866146
523+989765837+990686700+991532184+992241912+993005469+993732475+994040632
509+993904211+993557701+992982969+991924642+990442244+988890923+987081192
496+984246645+980140739+975381970+970400770+965124515+959822817+955497138
482+953366149+953568074+954568206+954513524+952516867+948529439+943255747
469+937741966+933412395+932629187+936789016+944837921+955073162+965909716
455+975143210+981665193+986114287+989205441+991008052+991697085+992215711
442+993158787+993933830+994447710+995339332+996243106+996556294+996844230
428+997579400+998159164+998277927+998712631+999953421+1001266647+1001827993
415+1001907643+1001515754+1000494736+999896556+1000165030+1000356227+1000507742
401+1000847322+1000492553
##END=
