##TITLE=23
##JCAMP-DX=4.24
##DATA TYPE=INFRARED SPECTRUM
##DATE=16/11/2015
##SAMPLING PROCEDURE=Instrument type and / or accessory
##ORIGIN=Default
##XUNITS=1/CM
##YUNITS=TRANSMITTANCE
##RESOLUTION=4
##FIRSTX=3996.3359
##LASTX=399.24785
##DELTAX=-1.9287336
##MAXY=1.3316671
##MINY=0.23583527
##XFACTOR=1
##YFACTOR=1.2402116e-009
##NPOINTS=1866
##FIRSTY=0.58633041
##XYDATA=(X++(Y..Y))
3996+472766432+472922531+473086032+473345508+473676834+473961397+474168825
3983+474391006+474697197+475015403+475284106+475576504+475938204+476333354
3969+476747968+477135476+477418454+477661013+477986283+478339957+478624954
3956+478842233+478982857+479084360+479296977+479627631+479886818+480133415
3942+480505784+480781505+480816108+480741903+480821539+481296036+481887703
3929+482119641+482174670+482438183+482701888+482747834+482969967+483567402
3915+484035747+484070014+483959861+483787373+483499685+483586578+484369044
3902+485390272+486170239+486389393+485913550+485450491+485755384+486177784
3888+486095073+486320234+486960154+487347806+487739448+487963312+487631361
3875+487286338+487347999+487969367+488761493+488977331+489099884+489594230
3861+489701596+488770432+487375393+487561433+490304125+492586545+492150112
3848+490630981+489763113+489655362+489749175+490116162+491141283+492105128
3834+492313132+492244598+492241955+492162127+491889578+491477704+491686428
3821+492670218+493259867+493699424+494447431+494358520+493365935+492876588
3807+493396838+493783001+493887003+494707484+495493554+495505713+495419830
3794+495318375+495049864+494895975+494980513+495225235+495411756+495466064
3780+495776868+496324561+496463743+496076427+495787970+496129389+496763589
3767+497092464+497084967+496888113+496910413+497340647+497370059+496683954
3753+496531315+497769246+498849444+498580933+498786533+500016583+499843278
3740+498142144+497178684+497876324+499214268+499962659+499723897+499091523
3726+498931338+499290972+499703375+499886869+499566548+498616401+497666830
3713+497827879+498946141+499427703+498631588+497384045+496654541+496362096
3699+495663302+494289890+492520655+490686154+489392089+489187978+489391609
3686+488744192+487204588+485554109+484379761+484215732+485228406+486002798
3672+485725251+485817045+486430052+486377282+485859434+485464717+485055486
3659+484699409+484800287+484803507+484181754+484098274+485251811+486099494
3645+485510230+484240916+483225311+482565638+481982670+481245476+480142306
3632+479091905+479245841+480136058+479670740+477805770+476081183+475347113
3618+475054379+474175890+472782917+471437235+470294751+469330522+468157376
3605+466460664+464648992+463091846+461579011+459984042+458429347+456690294
3591+454597855+452715679+451402245+449989424+448010407+445846214+443836871
3578+441923023+439968613+437847674+435434723+433021483+431192701+429736434
3564+427852335+425520413+423215116+420974988+418626005+416213486+413841914
3551+411419783+408852271+406282067+403824948+401403466+398911768+396307922
3537+393654959+391031240+388399206+385733771+383063218+380297193+377386724
3524+374539021+371888725+369270173+366499150+363604733+360716251+357917738
3510+355205396+352459965+349537817+346491506+343563447+340814412+338082750
3497+335302884+332493389+329658686+326811873+323956288+321092389+318240818
3483+315371752+312441818+309538102+306767151+304077566+301285589+298271886
3470+295201545+292386043+289852461+287331855+284680621+281994617+279380125
3456+276820615+274283043+271759241+269234550+266766883+264393100+262039671
3443+259659761+257247698+254778589+252346221+250136756+248099826+246065949
3429+244060955+242153764+240262240+238302855+236329966+234410543+232516736
3416+230586836+228636295+226721390+224886409+223184289+221512040+219627581
3402+217582192+215816105+214493084+213163647+211545873+209864492+208499970
3389+207432749+206350340+205144273+203918237+202750497+201685631+200755176
3375+199891152+198940596+197888982+196993070+196502834+196318655+196127917
3362+195804965+195499556+195329976+195214740+195010364+194769067+194768262
3348+195061524+195379141+195596505+195810576+196089613+196523704+197181802
3335+197931851+198664743+199421125+200185183+200938465+201821160+202915776
3321+204069506+205158739+206246915+207414918+208618583+209759625+210851645
3308+212010229+213394984+215088212+216918579+218627114+220166718+221671503
3294+223269308+225036909+226974907+228980933+230956803+232901625+234867282
3281+236877874+238909349+240948922+243016153+245108328+247286218+249668026
3267+252212710+254786086+257339998+259886845+262444577+265028670+267702035
3254+270501510+273324149+276089549+278905244+281916399+285071350+288223104
3240+291365055+294530002+297670415+300837957+304189377+307691850+311185384
3227+314647006+318112737+321587696+325096609+328648272+332212550+335792904
3213+339393444+342977042+346541273+350119536+353724089+357325758+360908948
3200+364527029+368209007+371883415+375498973+379093241+382682823+386265580
3186+389868210+393463079+396993114+400496645+404039873+407569307+411015166
3173+414409984+417803265+421196978+424554213+427841714+431068947+434264508
3159+437423881+440495399+443442538+446337147+449322975+452392955+455394306
3146+458272864+461062462+463770790+466450763+469173222+471887221+474513031
3132+477044354+479500800+481926343+484349483+486716393+488959116+491097500
3119+493223726+495430115+497692014+499849718+501843778+503807560+505814933
3105+507770641+509628979+511449302+513248190+515016704+516753643+518410033
3092+519957471+521442623+522890000+524300610+525688393+527031816+528312616
3078+529591735+530907139+532149876+533205707+534112937+534982632+535863765
3065+536713755+537497999+538239662+538937350+539544637+540008945+540355314
3051+540688755+541030366+541278692+541374668+541368420+541318005+541211504
3038+540966590+540533809+539971122+539323224+538548448+537595369+536440389
3024+535066304+533462108+531595118+529414633+526882493+523964526+520657081
3011+516920459+512621391+507640590+501906881+495324623+487794477+479261797
2997+469644210+458742410+446340560+432272034+416311913+398117431+377302907
2984+353616819+327426152+300218896+274433135+252160277+234253314+220713666
2970+210414179+201574972+194102065+190157284+192390695+201966638+217465983
2957+235358047+251639185+263614167+270348823+271668816+267582750+258625941
2943+246523769+234622247+226715046+224867040+228648502+236048550+245031672
2930+254650581+264813938+275470511+286427052+297565908+308762460+319660512
2916+329670173+338146718+344629756+349021580+351660534+353188868+354222568
2903+355060255+355596341+355445360+354102153+350992980+345665714+338074243
2889+328189514+315598283+300326430+283882776+269549152+261587234+262795463
2876+272354898+286863605+303225509+319901509+336303663+352077695+366898865
2862+380562581+393046374+404578818+415654884+426846967+438531521+450658228
2849+462777341+474339438+484979070+494556768+503065417+510602147+517344397
2835+523530112+529410933+535116383+540656074+546029429+551224433+556224410
2822+561029743+565616883+569957428+574056422+577957409+581717004+585384515
2808+589008244+592592226+596096958+599497015+602766061+605883284+608852435
2795+611651309+614228481+616532288+618550378+620354457+622015316+623533582
2781+624914059+626190775+627403570+628562010+629580354+630407708+631131493
2768+631825384+632496158+633135982+633758071+634430480+635185455+635975130
2754+636744620+637403042+637847214+638098808+638243180+638307100+638337811
2741+638446763+638795535+639587757+640914839+642628084+644426492+646025113
2727+647289141+648284273+649222886+650338119+651782180+653609231+655749009
2714+657999662+660148620+662090919+663788400+665241785+666558342+667844525
2700+669085724+670218404+671198877+672036756+672764914+673370807+673812864
2687+674077050+674168652+674076858+673833674+673576408+673562567+674059700
2673+675094914+676448333+677906860+679370385+680789791+682153976+683488988
2660+684819050+686141519+687411314+688595081+689728674+690853231+691976491
2646+693088408+694168510+695214249+696213514+697148522+698056233+698971969
2633+699895107+700794887+701594559+702265862+702873869+703467027+704005684
2619+704434764+704772722+705073434+705361170+705649338+705934574+706183525
2606+706405851+706657638+706940279+707193460+707391083+707548671+707693957
2592+707852075+707993467+708092663+708195992+708340413+708525108+708753009
2579+709059055+709470161+709961911+710510949+711108288+711734991+712378467
2565+713007141+713601115+714191581+714752154+715234581+715680530+716114224
2552+716507451+716860500+717214799+717608555+718048401+718550052+719113604
2538+719701379+720320056+721003854+721740038+722510105+723306172+724097192
2525+724872593+725664335+726483614+727324906+728216276+729163251+730110707
2511+731034374+731983271+732983305+733981272+734939590+735864602+736757654
2498+737621389+738413708+739105965+739757082+740394791+741010825+741613066
2484+742190844+742739497+743278058+743834738+744437892+745094200+745781795
2471+746469102+747126756+747748365+748369493+749026907+749734399+750497881
2457+751301205+752084968+752794719+753477172+754211626+754979290+755718838
2444+756398840+757036933+757698720+758405732+759121682+759818986+760465826
2430+761064606+761681842+762321713+762908479+763425989+763918365+764386181
2417+764799258+765140099+765411110+765685245+766057037+766528939+767013625
2403+767458517+767891394+768324607+768696736+769072470+769519813+770016081
2390+770451890+770681953+770624954+770328135+769933898+769584646+769388128
2376+769379381+769498570+769735218+770131377+770705358+771448607+772364055
2363+773562289+775165140+777017519+778844618+780410319+781052353+779945578
2349+777408680+775215363+775225503+777234606+779303351+780538927+781127183
2336+781355420+781588511+782262601+783311080+784124977+784458514+784771961
2322+785480847+786339440+786844648+786871850+786801057+787082016+787740391
2309+788513053+789219680+789836386+790427045+791050912+791694677+792306097
2295+792885941+793461509+794033520+794574195+795032112+795364783+795623539
2282+795907958+796252068+796607761+796909482+797138440+797335390+797546277
2268+797779177+798028464+798302887+798607011+798932426+799268942+799608294
2255+799943321+800278059+800709495+801296596+801489317+801681029+801940745
2241+802241842+802578791+802970672+803409653+803888908+804391808+804893892
2228+805397946+805896617+806379861+806865940+807340966+807794653+808245648
2214+808644835+808935791+809133606+809283650+809417641+809544616+809715037
2201+810047997+810605397+811331969+812139859+812979372+813844934+814716359
2187+815530016+816238902+816884348+817560073+818268190+818921422+819506217
2174+820082938+820648316+821167461+821667285+822178260+822709516+823262303
2160+823829411+824420742+825043024+825668958+826271343+826878438+827508313
2147+828117138+828680978+829215406+829735608+830236490+830700751+831141942
2133+831601300+832090359+832571729+833030318+833482755+833940479+834429923
2120+834953297+835477728+835988511+836497467+837014689+837526721+838043847
2106+838603363+839202191+839820820+840472899+841183034+841895957+842561877
2093+843142059+843650630+844131423+844549834+844834542+845008807+845122421
2079+845166925+845133091+845038124+844896539+844709970+844492546+844302324
2066+844277237+844534839+845026782+845643008+846351605+847153151+848014772
2052+848888504+849737245+850516586+851179335+851701267+852105356+852426013
2039+852686883+852934200+853213429+853549272+854004209+854655038+855480710
2025+856389430+857326313+858245894+859148173+860078616+860966862+861738418
2012+862476044+863241353+863916789+864416806+864858766+865359840+865865624
1998+866283554+866602385+866929482+867397010+867913271+868289870+868574578
1985+868898887+869283271+869660927+869989370+870311180+870676340+871046595
1971+871331687+871573910+871892067+872226950+872432743+872527710+872625272
1958+872746287+872813955+872755322+872549529+872191770+871648115+870911065
1944+870179111+869701874+869418993+869247226+869348729+869802320+870494577
1931+871275168+872040765+872781563+873648663+874752891+875935168+877225773
1917+878655848+879821977+880607087+881322893+882113866+882890997+883556052
1904+884118066+884639518+885125693+885573613+886029607+886465512+886859989
1890+887385862+888016506+888483362+888821993+889190902+889566347+889914494
1877+890294553+890676246+890914624+891213942+891940418+892814534+893372992
1863+893707202+894095143+894632262+895254159+895798968+896168357+896383570
1850+896489206+896572735+896949718+897678116+898155737+898253972+898524069
1836+899076376+899578795+900105053+900980611+901894810+902517380+903156771
1823+903859697+904440936+904999970+905611102+906197915+906765120+907408548
1809+908080332+908636963+909044128+909438894+910055985+910820620+911323425
1796+911552383+912069509+913023117+913747959+913980666+914190976+914613328
1782+915127475+915647004+915970544+916010242+916267652+917110817+917981089
1769+918366338+918404498+918371817+918615578+919105886+919476814+919741433
1755+919895513+919948091+920300756+920971290+921468904+921655088+921779660
1742+922089840+922427510+922392810+922495082+923475699+924534366+924901161
1728+925040151+925200479+925239984+925043130+924866173+925339469+926294710
1715+926752819+926567980+926224735+925990586+925891679+925658299+925268147
1701+925353310+925827855+925926666+925693383+925042842+923848069+922435295
1688+921160742+920610839+920683506+920084678+918492256+916846006+915779842
1674+914985794+914053621+913326087+912847121+912042980+911077357+910435083
1661+909796749+908607551+907151235+906687359+907509859+907507648+906214352
1647+905388968+905279103+904828877+903981097+903360546+903645446+904920383
1634+905976070+906171963+906382754+907198334+908411273+909829526+911085431
1620+911916774+913158070+915270405+917141095+918278004+919302837+920455701
1607+921565985+922640416+923740991+924765824+925643593+926470610+927330116
1593+928165689+928914753+929596725+930247362+930849266+931307182+931495578
1580+931552385+932082295+933065412+933436628+933179218+933218147+933466040
1566+933225259+932372386+931399554+931351590+932298469+932500706+931576992
1553+930449887+929469846+928502974+927369910+926193784+925466251+925477016
1539+925448277+924289549+922459614+920897085+919419238+917610161+915690450
1526+913859362+912066337+910296862+908403584+906224060+903851431+901254650
1512+898281558+895099502+892179757+889460519+886013651+881451502+876171239
1499+870304067+863570276+855787333+846802409+835887296+822411832+806690137
1485+789644002+772291485+755646123+740740055+727912056+716054725+702877570
1472+687394685+672097408+660130165+652089620+645553164+637664585+629702043
1458+628199733+639038863+659238554+681974856+703435403+721425581+734049950
1445+740760576+743173816+743873330+745359780+749007875+753642883+757281847
1431+759752182+761601005+763019449+764292080+765619835+767100806+769127114
1418+771663772+774056731+776163347+778222913+780271762+782268945+784284584
1404+786249087+787890290+789090735+789507223+788213302+784485572+778257276
1391+769709842+759208959+748496756+741093152+740462988+748320953+763223512
1377+780656578+795959767+806604013+812646508+816164312+819162780+822255445
1364+825241897+827604625+828797668+828837750+828141360+826986189+825442884
1350+823626694+822119531+822216035+824945174+829710137+834983671+839928571
1337+844591165+849306050+854359853+859874553+865794303+871969829+878250990
1323+884531191+890745068+896781892+902431160+907541867+912072873+915927194
1310+918872411+920707536+921398448+921149785+920395530+919558420+918913646
1296+918657294+918944597+919816887+921209956+923055366+925128677+926982450
1283+928265365+928844393+928659458+927851760+927019360+927037238+928468275
1269+931136473+934394176+937664279+940643522+943200029+945160014+946273854
1256+946349212+945183179+942439046+937806921+931247780+923011632+913594263
1242+903770402+894620727+887418351+883477426+883923231+889167064+898461784
1229+910172771+922571017+934288732+944433538+952815598+959778924+965620816
1215+970463925+974456370+977834704+980883538+983744073+986327493+988587758
1202+990694615+992810988+994753575+996370412+997728109+999019098+1000289229
1188+1001361641+1002110802+1002678583+1003241655+1003767048+1004115387
1177+1004274754+1004338193+1004279752+1003972648+1003382952+1002601976
1165+1001709020+1000640164+999309765+997811156+996264103+994575849+992541275
1151+989986498+986731390+982545743+977287108+971111678+964414413+957636022
1138+951235190+945673969+941157380+937438301+934201455+931453285+929211187
1124+927142778+924734008+921592995+917399274+911444056+902373872+888646573
1111+869048065+842666072+809259043+771033128+734226379+707265694+695593059
1097+698246262+709894723+725304076+741244253+755663521+766853248+773271958
1084+773148203+763679891+740800370+700240947+640237721+566433664+495131326
1070+447206266+433256064+443479208+454265808+446399097+417627797+380685999
1057+353348187+349680436+375929663+429998890+503322250+584980186+665281146
1043+737228162+797067936+843750787+877647260+899882823+911989249+915332499
1030+910157199+894207219+862062343+807159779+729311468+645037623+585609052
1016+575503222+612646008+673670894+736070059+790909423+838233781+878984002
1003+912702556+938549737+956269290+966661605+971204242+970997776+966338833
989+957154171+943428506+924967484+900666491+867968156+822727010+760008486
976+677691936+582582613+493527033+435543963+427144218+470871953+552783261
962+650421167+744698522+825835438+890991232+940640638+977043828+1003396024
949+1022714630+1037024994+1047519100+1055208326+1061077709+1065625248
937+1068902463+1071088235+1072564448+1073505271+1073741823+1073109545
926+1071688986+1069640089+1066843282+1062891495+1057531934+1050758156
914+1042561705+1033101755+1023114971+1013956838+1007476515+1005529314
903+1008320065+1013171632+1015864726+1013066765+1003311150+986661703+965294200
889+945413868+936031967+942134441+960144468+982576790+1004489775+1023692268
876+1038607516+1048362747+1053279964+1054138605+1051211843+1043802424
864+1030931555+1013870041+998606262+993523718+1001927597+1018542440+1035422575
851+1048497315+1057345845+1062658308+1065565461+1067272362+1068313247
839+1068524038+1067854081+1066768020+1065675134+1064533708+1063074027
827+1061282541+1059519986+1057941597+1056175486+1053872448+1051294122
816+1048892176+1046573375+1043913442+1040835772+1037668326+1034767517
804+1032207934+1029837612+1027660683+1025700698+1023716779+1021402302
793+1018592231+1015454197+1012411803+1009554152+1006471868+1002964156+999243346
779+995375761+991084478+986086040+980622668+975510615+971651008+969272420
766+967450270+964775055+960193009+953264094+944889148+938080864+936321481
752+939984042+945792389+950516981+953262844+954302960+954029306+952899799
739+951335828+949631330+947839459+945850541+943701488+941587710+939491619
725+937423402+935907972+933831393+931485197+929275876+927203142+925231718
712+923295474+921433916+919750949+918195533+916565143+914796533+913019945
698+911354952+909812224+908347450+906850283+905256419+903710711+902397614
685+901347694+900462139+899497958+898247628+896861768+895675838+894648987
671+893238808+891559398+891055824+891811809+892114203+891647924+891042848
658+890652504+890396248+890179113+890205450+890526202+890799280+890842534
644+890927792+891309774+891884476+892440435+892936607+893450561+894079187
631+894931099+896012355+897058622+898159870+899244009+900331897+901677482
617+903395053+905144247+906712158+908194426+909673619+911241242+912884031
604+914493851+916312540+918509077+920582868+922282849+924241296+926724463
590+929100553+931055252+932907775+934812779+936741237+938772352+940860850
577+942863224+944889148+946983317+948924847+950818318+952869617+954715123
563+956153273+957738678+959797475+962030730+964307815+966586631+968585930
550+970279951+972087105+974152919+976066286+977577871+979022172+980825866
536+982727314+984202566+985432327+986805595+988238169+989538098+990607915
523+991472707+992230903+992872409+993483732+994363904+995288964+995579055
509+995231773+994805192+994306136+993296587+991852574+990343969+988375909
496+985157904+980783381+976097717+971372933+966176006+960691584+956188068
482+953979997+954075059+954923223+954910343+953344547+949781374+944327902
469+938223602+933595899+933037345+937686771+946270298+956910699+967710468
455+976513437+982834584+987410190+990476711+992258393+993216422+993756137
442+994012297+993864753+993893012+994854886+996060713+996575917+997029508
428+998068086+998741791+998294352+997996764+999220758+1001106539+1002238449
415+1002972903+1003726389+1004296381+1004892230+1005178860+1004243227
403+1002437995+1000533182+998858097
##END=
