##TITLE=23
##JCAMP-DX=4.24
##DATA TYPE=INFRARED SPECTRUM
##DATE=16/11/2015
##SAMPLING PROCEDURE=Instrument type and / or accessory
##ORIGIN=Default
##XUNITS=1/CM
##YUNITS=TRANSMITTANCE
##RESOLUTION=4
##FIRSTX=3996.3359
##LASTX=399.24785
##DELTAX=-1.9287336
##MAXY=1.3020694
##MINY=0.22591509
##XFACTOR=1
##YFACTOR=1.2126467e-009
##NPOINTS=1866
##FIRSTY=0.57397813
##XYDATA=(X++(Y..Y))
3996+473326773+473443117+473639875+473889668+474080625+474205030+474413535
3983+474774118+475176530+475493318+475734608+476031931+476443633+476889446
3969+477317958+477716241+478021232+478229590+478433819+478698849+479052796
3956+479449703+479734886+479863469+480020610+480324618+480634230+480891003
3942+481175645+481445148+481668301+481824065+481935641+482166805+482480005
3929+482667768+482795073+483044522+483330098+483524841+483769178+484129269
3915+484408554+484543477+484724654+484950264+485081452+485270935+485589542
3902+485837565+486066518+486362268+486532041+486631821+486919805+487170336
3888+487194175+487412953+487754170+487854588+488027163+488249627+488297993
3875+488421120+488653661+488995418+489329852+489339977+489362883+489674460
3861+489969081+490017791+489870284+490052787+490824875+491255845+490975823
3848+490710104+490785258+491046111+491280273+491519155+491902299+492152731
3834+492152190+492220217+492416336+492637227+492850008+492905600+493034478
3821+493410101+493589557+493797571+494240042+494349013+494156827+494221757
3807+494674403+494932208+494930782+495193257+495361309+495276718+495403974
3794+495599601+495670774+495746567+495873872+496082524+496325731+496485034
3780+496672994+496933158+497081353+497112368+497189439+497397944+497568602
3767+497621441+497732476+497872119+498077478+498441108+498650301+498552586
3753+498558779+498990093+499320398+499092183+499090216+499567487+499567930
3740+499152050+499053057+499278962+499522857+499711209+499750286+499678081
3726+499691647+499745714+499756430+499774174+499730182+499487713+499128113
3713+498989405+499025138+498779818+498186646+497464447+496783193+496030373
3699+494952999+493579727+492046561+490378816+488696915+487366061+486478072
3686+485635008+484590025+483567161+482970744+482944251+483190702+482992175
3672+482328616+482127041+482392661+482538202+482707483+483035183+483214639
3659+483166568+483271459+483497168+483470380+483416705+483543174+483474459
3645+483065166+482577327+482183911+481849821+481495628+481083140+480480530
3632+479697284+479170173+478858644+478135070+477082321+476088113+475258172
3618+474452218+473433483+472292112+471159147+469972506+468737451+467397012
3605+465889799+464363368+462890365+461331394+459676527+458072385+456446174
3591+454633969+452751280+450918530+449033236+447129657+445332690+443551599
3578+441644874+439648151+437631325+435519978+433321238+431240710+429272692
3564+427194425+425001190+422839610+420692824+418457908+416123015+413767233
3551+411399925+408915903+406298531+403686124+401206944+398784462+396253820
3537+393645197+391097572+388589909+386016602+383354084+380575934+377690803
3524+374871316+372201130+369546378+366796220+363965944+361119890+358335817
3510+355639850+352937813+350095617+347127493+344209676+341393335+338594099
3497+335830277+333121604+330403199+327621289+324772581+321912862+319107433
3483+316301954+313424860+310577553+307845336+305153449+302381050+299444702
3470+296432955+293605948+291058520+288577939+285968899+283278584+280648924
3456+278120297+275665399+273225025+270727413+268234520+265863132+263590614
3443+261302417+258909868+256401468+253929538+251730700+249780893+247846815
3429+245841269+243850862+241922805+239998926+238035528+236066626+234139503
3416+232225725+230333573+228537221+226808870+225094848+223351113+221451294
3402+219419550+217634625+216315986+215054929+213496597+211814868+210421148
3389+209331806+208280580+207150392+205957644+204762574+203646689+202659141
3375+201777935+200880139+199887013+198970699+198397077+198144642+197940364
3362+197641860+197342079+197126521+196968139+196784296+196568947+196539443
3348+196822316+197183599+197427617+197631514+197902295+198338487+199015846
3335+199825019+200621646+201382134+202084045+202762546+203594686+204632296
3321+205732575+206853314+208040962+209271889+210488905+211621183+212651813
3308+213717808+215051120+216745727+218610893+220359224+221890571+223334451
3294+224885557+226661069+228639753+230676658+232667999+234630364+236582948
3281+238537769+240520287+242538023+244603756+246709917+248906322+251296413
3267+253802577+256282912+258768801+261338126+263963829+266587542+269242761
3254+271990166+274792745+277582495+280410338+283397804+286506627+289613165
3240+292725749+295860181+298961828+302091787+305410983+308899559+312391748
3227+315846703+319317167+322804661+326295744+329812165+333346084+336889096
3213+340458159+344040887+347636369+351245713+354844046+358420409+361994092
3200+365603264+369249472+372881868+376468872+380034592+383586673+387106756
3186+390624357+394178281+397758010+401344252+404906262+408376872+411763063
3173+415139866+418515121+421878530+425228373+428520069+431739067+434931671
3159+438117001+441222408+444156175+446994733+449936708+452990211+456005128
3146+458920168+461720142+464393302+467022568+469704871+472405163+475033054
3132+477547599+479972145+482373099+484750508+487037575+489236757+491412739
3119+493580612+495753448+497956415+500105462+502126859+504092665+506055866
3105+507993361+509901904+511761885+513541943+515263658+516965269+518628050
3092+520191346+521665381+523115381+524540804+525907392+527215144+528469270
3078+529718973+531021466+532271808+533318216+534192148+535030690+535904671
3065+536782486+537593945+538311523+538952079+539522739+540000797+540400456
3051+540769346+541094588+541300488+541356669+541316118+541224842+541069324
3038+540788269+540339015+539749382+539034016+538152711+537070520+535789015
3024+534313014+532602899+530598214+528267204+525558605+522418595+518857543
3011+514814502+510129579+504687608+498436537+491317384+483225059+474054525
2997+463752746+452196397+439181448+424576807+408272595+389985693+369332441
2984+346061105+320482008+293966383+268765638+246710900+228639409+215028116
2970+205136158+196964109+190021941+186299190+188423255+197616363+212603447
2957+230013591+245892830+257570659+264240976+265791541+262108199+253545927
2943+241711990+229992725+222312373+220719462+224681131+232170698+241164455
2930+250717863+260743405+271190676+281911554+292853668+303902910+314673506
2916+324562896+332937823+339332812+343612350+346096322+347440718+348253577
2903+348848274+349242870+349134170+347906020+344874956+339640138+332278884
2889+322792127+310644867+295782544+279722227+265701002+257939376+259252511
2876+268847845+283338993+299652372+316327292+332832808+348756924+363720697
2862+377545484+390207174+401887830+413090796+424437067+436298112+448581328
2849+460835544+472541611+483330491+493041851+501698053+509426108+516370868
2835+522724274+528708397+534462880+540061107+545534437+550837405+555920808
2822+560757318+565331207+569686071+573838329+577761634+581509613+585161744
2808+588763444+592344255+595868343+599270435+602535146+605672601+608675623
2795+611508677+614111499+616402695+618379806+620181836+621883890+623422364
2781+624803845+626120346+627383959+628530147+629528189+630414212+631211024
2768+631910857+632551954+633180074+633821318+634524297+635298450+636080171
2754+636803303+637437223+637948606+638291937+638449176+638473948+638499753
2741+638647358+639039546+639862212+641215627+642976369+644855027+646550839
2727+647881004+648872312+649765414+650861663+652351230+654248714+656430545
2714+658703948+660878554+662830401+664516332+665984862+667350418+668673604
2700+669924880+671047523+672001131+672813475+673544029+674166054+674606608
2687+674868149+674985673+674935783+674723198+674490166+674480680+674907520
2673+675848889+677218426+678790127+680347181+681812664+683200731+684553703
2660+685895960+687206957+688464475+689680164+690870884+692027590+693151561
2646+694255625+695343371+696424824+697484897+698479449+699406662+700310921
2633+701223585+702123765+702954393+703678557+704313657+704885940+705389999
2619+705824458+706183468+706443043+706640390+706875044+707177136+707491270
2606+707790805+708089603+708367266+708579261+708740137+708886268+709012295
2592+709137683+709272361+709382855+709494874+709649016+709825572+710049954
2579+710390384+710817913+711280340+711813841+712431639+713059120+713663745
2565+714281593+714902242+715494284+716050690+716553472+716997417+717397961
2552+717779827+718158154+718536088+718924491+719333588+719796703+720358811
2538+721003446+721675361+722359417+723070064+723826325+724624365+725427468
2525+726241926+727098261+727972488+728843471+729733377+730638324+731528083
2511+732445073+733457516+734520440+735540158+736514361+737458139+738343376
2498+739199957+740030585+740765907+741430302+742068646+742671550+743269638
2484+743885569+744498894+745097719+745689614+746295763+746932927+747596289
2471+748269532+748925816+749546809+750164804+750833966+751573613+752370376
2457+753180508+753949597+754668699+755379002+756121156+756883561+757610084
2444+758297581+758989353+759679258+760365919+761079368+761800730+762479428
2430+763113250+763744418+764378878+764980997+765535683+766048196+766502956
2417+766878923+767194384+767476815+767765143+768130887+768592134+769084594
2403+769573121+770052653+770487259+770843271+771228381+771712828+772284865
2390+772889540+773440785+773891465+774262370+774577683+774833375+775069208
2376+775316298+775494525+775599466+775738223+775911142+775995340+776003893
2363+776121269+776429898+776823167+777163450+777511204+778044804+778613646
2349+778927043+779245010+780009086+780898747+781410130+781730113+782078801
2336+782458308+782874187+783425187+784125463+784807503+785299274+785645406
2322+786075884+786678887+787282431+787700277+788014755+788456931+789087165
2309+789832513+790632028+791437638+792210267+792934234+793628563+794310259
2295+794970918+795584883+796157313+796722075+797274255+797764650+798182544
2282+798551975+798896436+799213912+799468817+799645913+799787915+799941812
2268+800117237+800327020+800598047+800918816+801258608+801618355+801989653
2255+802330477+802637434+803039256+803611195+803814244+804005300+804245312
2241+804550352+804908822+805299437+805733896+806225864+806738770+807233146
2228+807724278+808231581+808741146+809251840+809743759+810187066+810600979
2214+810976111+811259770+811450384+811609638+811776216+811915612+812034955
2201+812276343+812763837+813464015+814302066+815232867+816187213+817090439
2187+817903275+818622671+819312133+820041164+820759823+821377719+821916382
2174+822454159+823002014+823543478+824093003+824647640+825220267+825825040
2160+826399534+826939426+827535253+828193602+828850574+829484445+830085679
2147+830651424+831196231+831721671+832230597+832732346+833224952+833704779
2133+834189718+834697464+835201670+835674518+836128589+836587477+837062880
2120+837545263+838037673+838549055+839070072+839598560+840139729+840710685
2106+841322438+841935959+842520776+843134593+843857135+844609758+845320799
2093+845947592+846465266+846899775+847294666+847626151+847850974+847946822
2079+847917134+847816961+847697225+847546818+847349913+847115358+846874117
2066+846765097+846952859+847425215+848077961+848851130+849711496+850617082
2052+851520309+852391979+853201718+853908433+854465233+854847246+855099497
2039+855319307+855582077+855895768+856270802+856787886+857489784+858322035
2025+859235092+860214112+861197064+862131552+863042938+863935843+864785002
2012+865585500+866333012+866991262+867538920+868035655+868559031+869084275
1998+869551126+869956732+870341793+870750251+871142783+871461390+871780389
1985+872168498+872592586+872968701+873270104+873570918+873932680+874322460
1971+874643131+874864710+875082554+875350829+875594822+875763513+875861032
1958+875878530+875814141+875670025+875424066+875042839+874504029+873791612
1944+872955725+872189044+871695356+871547210+871729959+872197793+872882291
1931+873669911+874480436+875326154+876300062+877487194+878759753+880027200
1917+881299169+882460643+883472497+884361666+885128937+885838110+886519069
1904+887142520+887700597+888199692+888665756+889151088+889655197+890103074
1890+890520773+890968257+891404338+891833440+892257135+892623223+892949989
1877+893349009+893862161+894311022+894577036+894854649+895345093+895996462
1863+896632987+897171208+897689767+898263770+898801204+899208088+899535641
1850+899866634+900132942+900251793+900309793+900465213+900839559+901426538
1836+902098748+902763684+903398439+904048432+904642785+905137947+905747438
1823+906525326+907306163+908022905+908716448+909387085+909958040+910457823
1809+911017474+911667074+912286101+912767697+913199846+913735117+914355913
1796+914907798+915324513+915707018+916175245+916722214+917265743+917708312
1782+918080397+918538498+919086549+919547895+919859816+920061047+920192972
1769+920423989+920843064+921272558+921642382+921964036+922225134+922578443
1755+923026320+923346205+923483242+923584103+923821707+924213845+924615717
1742+924981805+925373747+925656079+925738753+925811401+926024624+926490590
1728+927203400+927821837+928233932+928536613+928657135+928503780+928148997
1715+927919159+928109380+928545854+928841556+928913122+928883040+928760946
1701+928480580+927894190+927076882+926471618+926120079+925795770+925393801
1688+924703110+923556676+922056934+920728833+919859423+919127149+918205539
1674+917141780+916060720+915092120+914347557+913727744+913080110+912387453
1661+911790643+911392606+910968813+910263769+909317878+908324014+907491960
1647+906969469+906633167+906461625+906559438+906724984+906779248+906933391
1634+907375763+908101451+909137783+910344576+911502511+912652385+913848364
1620+914948889+916112526+917550631+919071115+920555128+921960694+923146154
1607+924157418+925180577+926253970+927274770+928193430+929052420+929878477
1593+930636114+931315402+931963429+932606836+933209937+933751991+934247744
1580+934629560+934883581+935050404+935102408+935102408+935115482+935099557
1566+935132489+935241706+935076259+934307120+933143385+932192971+931689060
1553+931331131+930844718+930296176+929681277+928911844+927903529+926561468
1539+925110781+923870957+922743988+921555677+920239667+918791339+917194668
1526+915417018+913342880+910885548+908272010+905798852+903535771+901365491
1512+899092285+896384472+892772352+888299767+883899436+879867651+875355744
1499+869412614+862006508+853899684+845079263+834098393+820074096+803874308
1485+786750208+769517234+752998889+738221625+725448948+713367012+699684718
1472+683898205+668872475+657347043+649394755+642835252+635350158+627868013
1458+626041014+635884495+655602178+678676536+700611440+718743511+731346022
1445+738226049+741095917+742323895+743980728+747252959+751498754+755223434
1431+757967079+759953136+761464871+762889557+764398933+765890466+767472538
1418+769360487+771430250+773451992+775336991+777096799+778733922+780283456
1404+781817457+783286823+784524188+784967396+783514595+779501685+773238080
1391+765000265+754716082+743898938+736380076+735835221+743885913+759037768
1377+776736511+792202353+802965626+809251251+813096305+816396651+819697882
1364+822692254+824924270+826097443+826284124+825773921+824783891+823375573
1350+821611833+820077389+820180118+822999507+827831642+833048003+837883432
1337+842533359+847354632+852543762+858153245+864123999+870341302+876701737
1323+883099331+889410909+895501300+901187460+906329208+910870213+914721117
1310+917685505+919558413+920264833+919992037+919197437+918345919+917711261
1296+917451441+917731709+918639556+920076186+921885884+923904283+925801964
1283+927158868+927743292+927528397+926702831+925877167+925922879+927365604
1269+930020725+933295954+936620238+939612348+942098975+943954384+944988553
1256+944991601+943697415+940759274+935923157+929174613+920709664+910994962
1242+900875735+891500579+884113643+879976180+880210932+885245527+894351131
1229+905929794+918286248+930035471+940252413+948772905+955936295+961944602
1215+966899963+971046470+974641485+977888108+980914330+983693709+986194491
1202+988559023+990944296+993164319+995076254+996702318+998189182+999595141
1188+1000746588+1001519659+1002109784+1002734119+1003331224+1003721692
1177+1003912109+1004046492+1004075393+1003796502+1003180326+1002393296
1165+1001535486+1000480968+999119148+997590799+996036596+994323926+992192574
1151+989494002+986120369+981839283+976475071+970186005+963371303+956451315
1138+949881196+944158466+939485830+935584397+932171344+929320203+927033136
1124+924859218+922209700+918794288+914404673+908252055+898880732+884811707
1111+864955856+838447015+805000344+766735889+729794769+702530600+690391008
1097+692483087+703488829+718115342+733198974+746861263+757422616+763306911
1084+762815091+753212015+730464029+690353898+631069170+558015590+487124378
1070+438904031+423902385+432898281+443211070+436094817+408884102+373461376
1057+347022405+343411931+368808991+421306444+492779229+572807404+652112398
1043+723860191+784166751+831685102+866457171+889364115+901870091+905424998
1030+900455284+884959558+853703369+800039576+723468396+640229873+581360533
1016+571156420+607698373+668058657+730049919+784786368+832240034+873274626
1003+907328675+933459435+951349677+961771093+966182532+965652373+960461080
989+950550948+935940360+916556669+891513752+858455730+813446910+751736013
976+671084879+577699161+489716437+432058854+423495304+466464687+547019089
962+643263764+736664276+817588256+883143274+933687896+971253598+998759548
949+1019066914+1034188884+1045348670+1053581030+1059857513+1064683504
937+1068200957+1070652685+1072373220+1073462932+1073741823+1073054081
926+1071524061+1069416892+1066608907+1062586559+1057049822+1050039099
914+1041667146+1032110617+1021953445+1012518126+1005816179+1003757278
903+1006456243+1011221581+1013883583+1011065571+1001188862+984309394+962694473
889+942570347+932939205+938874864+956855841+979343317+1001414669+1020953387
876+1036328396+1046508178+1051705960+1052720959+1049885448+1042493204
864+1029547903+1012354153+996934810+991733686+1000150663+1016939691+1034058827
851+1047334826+1056404449+1061973529+1065031602+1066739358+1067710513
839+1067867703+1067190578+1066093100+1064971735+1063860494+1062490712
827+1060736851+1058974832+1057432622+1055659297+1053293193+1050672380
816+1048209446+1045788880+1043047251+1039893232+1036602470+1033546952
804+1030880330+1028511080+1026362623+1024344322+1022241282+1019798795
793+1016886409+1013769156+1010834357+1007966701+1004747702+1001153964+997415226
779+993537485+989208131+984039841+978346603+973146659+969315711+966941447
766+965041407+962260062+957655552+950742250+942277005+935342469+933572093
752+937272590+943112795+947897301+950665670+951654324+951310355+950108182
739+948468749+946757848+945058055+943153395+940982721+938774396+936630265
725+934567825+933070737+931014097+928634427+926358862+924277547+922396382
712+920573806+918728227+916963553+915327364+913669449+911920209+910175196
698+908522295+906963570+905453703+903936561+902424138+900997928+899693125
685+898491543+897393377+896306910+895112602+893958009+893123202+892523050
671+891291484+888920563+887252818+887708560+888415275+888314512+887866045
658+887522764+887219099+886870804+886744777+886991916+887352008+887576733
644+887786713+888220434+888857550+889466943+889907841+890276288+890810084
631+891671040+892779331+893787941+894832432+895923815+897069560+898482499
617+900245403+902007718+903586300+905059401+906552360+908278990+910202722
604+912023921+913761561+915609893+917460682+919270478+921327019+923608188
590+925694614+927572044+929573437+931644429+933524120+935321628+937368437
577+939668776+941890961+943829144+945648868+947682308+949868613+951709571
563+953099605+954580767+956561122+958906582+961335405+963617754+965613149
550+967334962+969049108+970978639+972870225+974423641+975794702+977379674
536+979160273+980698354+982015347+983518235+985105370+986356695+987259627
523+988132575+989032755+989746843+990236795+990840290+991600581+992073920
509+992040693+991617391+990938103+989900100+988312769+986361118+984086241
496+980908530+976638356+971923449+966945478+961351920+955645706+951116202
482+948797383+948654349+949397535+949426437+947683291+943706361+937993559
469+931783138+926913695+926193414+931091267+940000457+950627921+961187751
455+969753660+975961132+980689015+984071201+986062468+987209294+988159609
442+989058904+989660236+990239842+991084086+991677062+991843788+992103903
428+992551682+992843550+993008408+993311089+993842624+994834719+996287864
415+997370891+997145477+995682305+994353122+994152973+994647841+995408427
401+996147091+996364640
##END=
