##TITLE=38
##JCAMP-DX=4.24
##DATA TYPE=INFRARED SPECTRUM
##DATE=16/11/2015
##SAMPLING PROCEDURE=Instrument type and / or accessory
##ORIGIN=Default
##XUNITS=1/CM
##YUNITS=TRANSMITTANCE
##RESOLUTION=4
##FIRSTX=3996.3359
##LASTX=399.24785
##DELTAX=-1.9287336
##MAXY=0.91535634
##MINY=0.02101011
##XFACTOR=1
##YFACTOR=8.5249202e-010
##NPOINTS=1866
##FIRSTY=0.079864942
##XYDATA=(X++(Y..Y))
3996+93684093+93675790+93623019+93649483+93816317+94044031+94219176+94291218
3981+94305132+94332496+94388745+94470593+94596612+94748246+94856672+94914433
3965+94956786+94976704+95027316+95169853+95339771+95468325+95551501+95600479
3950+95630570+95682964+95782388+95889564+96000017+96096565+96155209+96240098
3935+96366423+96505079+96644304+96770637+96902494+97028783+97106786+97131013
3919+97159067+97214268+97275227+97312450+97340312+97397296+97497156+97641546
3904+97818570+97923089+97886041+97883987+97997263+98091163+98118038+98213765
3888+98320014+98330161+98389888+98443428+98455629+98562044+98677217+98766843
3873+98884454+98948464+99036255+99137872+99160360+99199741+99248090+99298606
3857+99359801+99385077+99460055+99628243+99644429+99548816+99538827+99676067
3842+99883707+100005216+100021113+100050793+100098320+100157751+100257873
3829+100324505+100378648+100469297+100493664+100571037+100713215+100670242
3815+100613599+100655734+100686620+100695622+100764360+100973861+101074395
3802+101054276+101132540+101156208+101106758+101104503+101162465+101307205
3788+101485863+101579929+101577648+101545057+101527097+101590635+101694621
3775+101760965+101802269+101838539+101874363+101834510+101796125+101842113
3761+101860170+101891091+102045470+102267574+102405068+102407908+102381654
3748+102372801+102284197+102291381+102405688+102414052+102406667+102477285
3734+102571123+102585046+102572286+102547578+102515941+102489450+102449859
3721+102433787+102409254+102354080+102273980+102190410+102155530+102115301
3707+101994220+101819879+101661069+101546001+101410168+101212737+101000806
3694+100731709+100360242+99991459+99793643+99724066+99632604+99562468+99528697
3678+99392908+99156471+99080216+99014659+98822900+98735721+98674665+98542196
3663+98399729+98248208+98043234+97814855+97651125+97416995+97032332+96696567
3647+96453331+96207298+95907673+95560118+95201858+94879404+94609240+94366030
3632+94031927+93521585+93071986+92727149+92306653+91813818+91304796+90859951
3616+90460535+90023896+89583744+89104455+88526267+87924299+87338795+86758274
3601+86176975+85603192+85052770+84514086+83953517+83308348+82544335+81787078
3586+81155175+80581287+79976041+79320121+78643165+77981513+77320682+76618170
3570+75871253+75163533+74577855+73988183+73254160+72490265+71814437+71175704
3555+70511207+69829601+69136962+68340533+67423622+66563245+65859243+65224352
3539+64551053+63834769+63149204+62482215+61769396+61024676+60279677+59536377
3524+58808748+58105183+57379494+56611671+55861013+55197367+54636908+54099124
3508+53495092+52806355+52038090+51266347+50591799+49986439+49381953+48788628
3493+48236183+47696472+47084833+46393657+45725135+45099236+44465009+43860453
3478+43324007+42800123+42238217+41582237+40831176+40191526+39771471+39368306
3462+38864808+38356577+37863619+37314163+36738908+36211048+35699749+35192048
3447+34766790+34417501+34000280+33425868+32769407+32207066+31848980+31589982
3431+31257611+30890409+30641407+30464140+30186598+29814350+29473475+29156331
3416+28761944+28340119+28033854+27847260+27679205+27419711+26999951+26517977
3400+26209024+26150946+26134699+25949027+25683296+25598693+25663606+25625642
3385+25460985+25313783+25206337+25083403+24990342+24971477+24913860+24759225
3369+24645521+24680727+24815278+24928432+24957203+24987530+25106965+25246026
3354+25277944+25205393+25196164+25326854+25489000+25644905+25846996+26050657
3339+26199591+26377555+26631165+26866394+27047292+27215792+27378380+27559763
3323+27809504+28107873+28418644+28733704+29032064+29311542+29549716+29709818
3308+29859987+30137273+30600415+31148600+31617639+31949287+32223503+32543934
3292+32924902+33350677+33847800+34400343+34908178+35318783+35715326+36170956
3277+36624945+37006856+37359046+37805819+38420137+39105697+39748035+40355528
3261+40939479+41501057+42080858+42717563+43413646+44108837+44734351+45332933
3246+46021343+46792326+47555312+48322785+49108455+49841429+50539400+51357101
3231+52327617+53276891+54112072+54921099+55789871+56713830+57657437+58595720
3215+59536399+60551051+61645549+62682426+63616100+64585038+65626919+66640478
3200+67630519+68665853+69736086+70793405+71826209+72847626+73858729+74882296
3184+75966263+77086377+78165389+79216975+80284266+81340493+82425308+83596681
3169+84752498+85798123+86783051+87761538+88761699+89803890+90833312+91773702
3153+92684648+93718789+94880331+96022050+97048745+97974863+98859389+99754533
3138+100695876+101666418+102621360+103552485+104459210+105355394+106253493
3125+107124227+107963218+108793487+109592913+110367956+111209167+112109678
3111+112940585+113688604+114426712+115143748+115832092+116551532+117304402
3098+118021963+118685136+119324249+119939642+120525338+121081729+121608815
3084+122152455+122717105+123228862+123720439+124288978+124893219+125422631
3071+125844691+126212758+126622557+127099547+127562484+127942349+128223306
3057+128438226+128638786+128839495+129073825+129346847+129535547+129570086
3044+129571328+129650912+129758629+129777175+129659695+129493474+129351251
3030+129164264+128873414+128494719+128026513+127474299+126857735+126123411
3017+125204591+124135761+122988283+121753930+120344652+118669160+116688852
3003+114378547+111683579+108568630+104999083+100813417+95802918+89886874
2990+83109859+75566375+67418641+59026683+51008262+44107789+38979417+36049749
2974+35496074+37188582+40723808+45597945+51291540+57387085+63650914+69852818
2959+75601063+80404919+83916163+86049986+86835901+86387463+84979181+82908355
2943+80456632+78082684+76298522+75281283+74817517+74603707+74557054+74841088
2928+75647462+77035853+78860515+80797387+82572896+84077919+85184102+85759721
2912+85815332+85393568+84568596+83491804+82284956+81072882+80017363+79217080
2897+78673702+78326637+78021436+77560090+76879367+76053634+75172045+74372322
2882+73980754+74403190+75809629+78099631+81110209+84691162+88666252+92846788
2866+97063716+101166136+105029838+108595479+111873669+114931119+117879592
2853+120753017+123478802+126000347+128285140+130338111+132248510+134108865
2839+135908794+137611300+139241677+140831773+142421702+144033673+145644762
2826+147245371+148799581+150238269+151551559+152783708+153948422+155054055
2812+156162117+157339399+158604078+159944828+161351266+162768716+164135178
2799+165461036+166733563+167893050+168923888+169831146+170634750+171416225
2785+172192858+172878877+173477184+174055232+174609700+175090947+175467368
2772+175781948+176100390+176420020+176709184+176949196+177138307+177324586
2758+177519955+177672516+177816600+177995573+178193791+178453537+178790962
2745+179143052+179478973+179820069+180197714+180634458+181116001+181596182
2731+182075068+182564111+183046301+183561720+184148281+184802190+185546119
2718+186361661+187189614+187994634+188720227+189324355+189860871+190417524
2704+191015150+191642822+192309019+193008306+193741170+194509046+195253237
2691+195921322+196559570+197226658+197869713+198421402+198928466+199466503
2677+200040566+200627249+201223563+201814441+202376845+202919602+203453567
2664+203960805+204440723+204918474+205375354+205783029+206163401+206543319
2650+206930176+207332467+207755664+208162832+208518279+208853414+209187727
2637+209510032+209833299+210150674+210446918+210746412+211050573+211364156
2623+211724497+212107036+212480766+212859530+213239482+213612356+213985946
2610+214356197+214669850+214904355+215152407+215487350+215856343+216181305
2596+216449336+216691638+216947171+217216478+217476101+217750373+218063379
2583+218376490+218656372+218933632+219236133+219531957+219782263+220025072
2569+220309254+220570468+220758076+220939059+221148988+221333554+221446175
2556+221490223+221514485+221613157+221806883+222003650+222183374+222413737
2542+222715504+223087311+223532287+223998396+224438916+224877372+225334287
2529+225794715+226246596+226689335+227112847+227510698+227892172+228260850
2515+228637534+229057742+229488123+229861818+230220253+230650931+231151230
2502+231659063+232142739+232636449+233155678+233688717+234242992+234790539
2488+235317267+235856878+236420365+236997312+237567215+238120512+238696462
2475+239311655+239901956+240440658+240989340+241592489+242220651+242825163
2461+243407721+243989614+244577958+245163627+245712886+246210459+246683280
2448+247166659+247647975+248080192+248428716+248693741+248969288+249340011
2434+249725418+250017553+250245871+250475097+250692822+250895969+251118029
2421+251328133+251495290+251693770+251996096+252394734+252856596+253350061
2407+253877226+254440958+254992700+255517540+256028816+256518663+256984125
2394+257445305+257908723+258343036+258690232+258910527+259042882+259173017
2380+259328672+259491739+259662304+259858722+260086270+260310253+260451383
2367+260522996+260700571+260991535+261384510+262137493+263197172+264087125
2353+264300026+263839667+263557093+264188786+265420394+266495840+267226816
2340+267782420+268229425+268601791+268902806+269255980+269681572+269971784
2326+270135567+270466944+271040518+271594094+271986405+272350049+272792544
2313+273288053+273816058+274353868+274879827+275418284+275976021+276501753
2299+276949666+277358337+277791130+278264126+278760807+279257908+279716641
2286+280105123+280427953+280718043+281021540+281353476+281674715+281941488
2272+282144705+282309100+282471310+282644235+282801428+282925201+283053168
2259+283251823+283575317+284047894+284656723+285336555+285999204+286635371
2245+287236370+287843015+288448558+289030556+289555974+290013326+290454509
2232+290911092+291364144+291814871+292260092+292690561+293141777+293618094
2218+294081861+294518465+294936471+295372480+295837156+296300818+296758257
2205+297213250+297652265+298082227+298529388+299011264+299539810+300097862
2191+300635882+301109402+301532267+301968276+302446167+302965169+303508503
2178+304032644+304535076+305044569+305548469+306036533+306525470+307014967
2164+307517398+308014656+308457308+308881781+309348414+309842701+310300909
2151+310709196+311126083+311562547+311979189+312369961+312757867+313160770
2137+313605484+314120606+314697745+315342321+316066428+316814552+317530758
2124+318243958+319010435+319815298+320597856+321330423+322027367+322716655
2110+323396294+324014685+324558613+325085446+325606931+326121353+326670071
2097+327225500+327763765+328301995+328849838+329412924+329979995+330537732
2083+331096517+331671244+332265793+332860307+333453283+334058494+334658147
2070+335251787+335841127+336412008+337030993+337704934+338348181+338943324
2056+339537138+340151159+340741129+341305473+341897784+342517573+343136698
2043+343745511+344328977+344850532+345329261+345839733+346379641+346915948
2029+347458128+348040826+348649253+349214681+349737948+350295650+350942183
2016+351641155+352269194+352818156+353365231+353895909+354398096+354909582
2002+355450609+355993908+356514763+357007546+357427194+357827196+358337388
1989+358808007+359210561+359673699+360170257+360644652+361086989+361517335
1975+361953659+362423474+362896470+363293010+363717064+364323464+364953601
1962+365495921+366023803+366534030+367012830+367489881+367927079+368265063
1948+368486424+368590777+368543058+368508938+368539107+368307923+367816608
1935+367225800+366573988+365963498+365597337+365675750+366256455+367426255
1921+369065766+370744710+372627710+374613874+376263697+377694816+379083180
1908+380440711+381668263+382746331+383735113+384654012+385508691+386343374
1894+387243604+388045530+388705418+389587784+390525806+391290151+392056034
1881+392834223+393583361+394302958+395035875+395756626+396265874+396861402
1867+397885108+398841378+399485604+400090501+400800449+401570493+402305612
1854+402978679+403641258+404341033+405079544+405591764+406259482+407395162
1840+408225405+408763530+409461383+410207129+410732809+411240449+412123550
1827+412874820+413525374+414433785+415161737+415683921+416329475+417096687
1813+417733641+418329063+419118125+419952527+420653317+421162006+421676569
1800+422496813+423431968+424039522+424290563+424867107+425940071+426664912
1786+426985767+427503335+428182240+428843037+429572702+430124811+430338341
1773+430713416+431607285+432331182+432899057+433398377+433682595+434289064
1759+435048165+435673024+436523578+437176718+437658314+438667442+439855736
1746+440758833+441439032+442046236+442842219+443711651+443741401+443899416
1732+445191712+446124910+446451602+446734840+447063980+447498276+447577319
1719+447346624+447821019+448701148+449154462+449191309+449041195+448904470
1705+449097654+449129327+448546279+448723032+448855912+448392389+448377147
1691+447967707+447244194+446485722+445140462+444281099+444407511+443976291
1678+442786774+441486436+440875981+440421793+439541384+439262306+439332329
1664+438749002+438182455+438354069+438688138+438478104+437510192+437625907
1651+439467830+439804276+439024584+439476185+440519119+441117758+441617708
1637+442203447+443572444+445977872+447850489+448978338+450499407+452469700
1624+454483272+456830703+458965269+460461307+462712880+465845946+468259136
1610+470045579+471964726+474010076+475950374+477757443+479481624+481073765
1597+482534844+483978723+485425853+486768142+487985102+489119803+490156828
1583+491119951+492096917+492903807+493271961+494112761+495623307+496110532
1570+495988909+496719239+497610800+498155113+498040307+497046176+497508929
1556+499386406+499902996+499628497+499456429+499515370+499565920+499389867
1543+499168890+498903376+499476006+500446994+499927677+498942740+498879709
1529+498614824+497840236+497320220+496704067+495782056+495369889+494767335
1516+493774113+492881573+491793472+490213182+487795239+485831728+485050603
1502+483303244+479892673+475656194+471072571+466262029+460161778+452162165
1489+443948813+437413041+432855393+429500861+426706863+424225888+421653635
1475+418392794+413731842+408035402+402098934+395591689+388275526+380593901
1462+372692943+364548810+358255654+357443835+361625358+366964866+371901470
1448+376795529+382040018+387046016+391000690+393567384+394507084+394494813
1435+394628637+394386475+393502186+392792412+392492288+392446177+392868448
1421+393557351+394645417+396945968+399721473+402188149+404716109+407523042
1408+410414821+413238569+416140486+418732526+420386299+421196511+420699358
1394+418539517+415139573+409770386+401567451+391779997+383000168+377511176
1381+377183505+382587721+392522528+405630708+421397665+438783437+456155784
1367+471698443+483195325+489980041+493458258+495008098+495431207+495442604
1354+495310598+494819039+493775092+492369073+491006998+489906766+488877222
1340+487798141+487146189+487142099+487570557+488420691+489809161+491751556
1327+494168975+497031563+500318939+503941362+507908621+512265884+516882997
1313+521746222+526983999+532428384+537872384+543262057+548515531+553580155
1300+558372518+562771976+566674212+570012418+572759361+574805515+575938119
1286+575936476+574551992+571696571+567733786+563488917+560230208+559459780
1273+562199067+568396610+576959623+586425593+595650136+603997941+611275229
1259+617529895+622840946+627314378+631017032+633942127+636230127+638094214
1246+639489011+640226508+640474857+640699294+641134884+641982851+643726399
1232+646646040+650488041+654760738+659088810+663214818+666922367+670154752
1219+673002097+675538238+677774359+679711021+681372416+682888521+684459581
1205+686077766+687581915+689008734+690500157+691946624+693196060+694277834
1192+695310385+696346222+697260261+697869388+698188354+698389928+698579546
1178+698681487+698555704+698147592+697429533+696308116+694710557+692746557
1165+690608460+688349056+686022251+683892125+682196191+680948992+680040476
1151+679286339+678515631+677585091+676349358+674740332+672700750+670132797
1138+667000675+663482954+659851896+656122813+652254173+648444684+644822086
1124+641182848+637098860+632125024+625867422+617769365+607006448+592718190
1111+574134861+550392797+520451304+483754566+441210435+395171201+348700993
1097+305361508+269196462+243876959+231459325+232013094+244047716+264997477
1084+291695224+320583873+347839846+369899225+383881067+388467277+385871601
1070+381565099+379169494+375535325+362228507+332038245+284540991+226991259
1057+170758592+125857897+97197295+85126638+88753737+108298248+144766870
1043+198072161+265149583+339460124+412921246+479002755+534713273+580273532
1030+617047530+645916654+666442589+676273497+673207097+660520523+649662588
1016+653108573+673053068+701235456+729017564+753035279+773231060+790191239
1003+804390982+816021373+825101640+831952567+837229218+841334251+844149015
989+845423762+845222398+843754327+840764978+835212849+825216445+807978271
976+780202037+741277288+699509947+672515467+674709218+704583066+747808410
962+790200049+824949428+851171871+870233371+883826573+893488489+900511835
949+905897418+910210737+913578553+916168880+918376895+920305726+921816517
935+923022605+924091023+924946612+925418069+925375629+924799993+923898259
922+922804530+921265702+919021540+916053306+912373585+908010274+903035110
908+897450959+891381926+885206827+878807221+870847951+859206932+841614973
895+815614799+778592801+728835287+667552119+600131119+535466921+485988729
881+467971562+494452878+562322787+650502724+734628214+800849908+847065090
868+877157293+895650567+905793939+910314146+912418822+915312943+920214553
854+925862959+930708704+934336126+936688871+937628012+937525721+937143619
841+936694255+935779936+934274249+932548110+930918109+929209100+927022481
827+924448235+921899020+919313728+916111128+911959040+907046872+901404409
814+894559075+886062345+876103696+865769028+857170427+852966110+854672043
800+861020679+868693913+874973050+878932724+880800936+881331265+881258270
787+880726193+879509478+877834030+876070695+874158644+871953846+869384844
773+866641746+864197618+862242288+860413370+858239126+855681591+852888641
760+849750646+846376677+843626587+842277936+841958690+841677339+841028220
746+840088380+838761963+837110777+835421695+833801482+832207419+830516729
733+828667744+826737584+824804208+822890898+821007164+818973456+817190194
719+815320653+813368329+811722596+810334652+808885738+807314468+805775710
706+804309527+802843903+801442045+800206801+799073359+798027034+797185989
692+796489115+795723791+794873936+794080855+793423275+792911894+792434143
679+791814878+790941181+789546245+788016157+788668003+791699863+792186493
665+789690766+789233851+790969498+792281372+792821140+793332032+794071975
652+795084529+796306209+797494957+798571416+799725974+801129091+802797058
638+804552493+806152010+807666087+809373627+811389786+813642199+815920760
625+818068995+820024395+821729838+823569873+826236061+829640025+832917437
611+835643895+838205555+841107647+844319406+847538157+850828504+854340421
598+857790461+860981804+864263132+867924674+871759334+875373751+878806871
584+882301379+885791552+889330248+893138059+896997260+900580984+903630113
571+906447953+909761164+913586944+917125780+920031437+923006384+926587450
557+930515101+934487919+938326843+941860156+945362355+949285111+953439506
544+957324367+960886556+964372394+967853338+971231222+974427110+977603071
530+980960260+984099374+986783041+989585640+992437740+994994785+997417518
517+1000062172+1003124446+1005936483+1008133170+1010184149+1012481309
505+1014818322+1016663462+1018482521+1020522313+1022231182+1023275619
494+1023531239+1023541657+1023755117+1023852233+1023725961+1023889290
482+1024857167+1026270492+1027245500+1027449871+1026815573+1025656401
471+1024369698+1022452543+1020780590+1020824709+1022355706+1023885305
459+1023971304+1023551166+1023082295+1021212055+1018194878+1014337635
447+1009659903+1003998842+997544210+991592919+986206706+980581024+975506436
434+972108345+971613814+976060957+984746606+994546750+1005028876+1016614659
420+1027056581+1037188697+1047056941+1053102342+1056058550+1058411784
409+1061118525+1063902245+1066709528+1070107898+1072843095+1073741823
##END=
