##TITLE=38
##JCAMP-DX=4.24
##DATA TYPE=INFRARED SPECTRUM
##DATE=16/11/2015
##SAMPLING PROCEDURE=Instrument type and / or accessory
##ORIGIN=Default
##XUNITS=1/CM
##YUNITS=TRANSMITTANCE
##RESOLUTION=4
##FIRSTX=3996.3359
##LASTX=399.24785
##DELTAX=-1.9287336
##MAXY=0.90490776
##MINY=0.021533934
##XFACTOR=1
##YFACTOR=8.4276103e-010
##NPOINTS=1866
##FIRSTY=0.089821242
##XYDATA=(X++(Y..Y))
3996+106579729+106664679+106735174+106818904+106945830+107113158+107268550
3983+107354862+107381640+107462232+107647347+107804234+107870203+107935986
3969+108042614+108159160+108242210+108291673+108399574+108599992+108792339
3956+108929847+109036580+109106077+109160818+109234603+109304842+109349478
3942+109407252+109533205+109703671+109849755+109967513+110107434+110268308
3929+110377322+110401882+110393306+110428519+110532494+110638467+110698354
3915+110768690+110876140+110967155+111038703+111159395+111364667+111606805
3902+111771648+111781302+111703990+111650999+111668539+111759324+111850303
3888+111867746+111842550+111815330+111829935+111944589+112125054+112291506
3875+112387808+112382256+112330211+112338053+112450816+112576556+112586016
3861+112532123+112568131+112736599+112964574+113103788+113087115+113056358
3848+113113442+113220450+113326105+113416960+113502299+113578630+113605815
3834+113597487+113632028+113731857+113841401+113906637+113939834+113984196
3821+114013512+114026746+114098091+114189857+114229940+114254907+114305714
3807+114359262+114397763+114474597+114557664+114575673+114641969+114797105
3794+114897951+114902990+114911265+114982441+115038262+114990911+114903759
3780+114879262+114935993+115048384+115161589+115221325+115226312+115213643
3767+115211450+115217701+115277658+115452014+115638270+115689263+115661362
3753+115678336+115709296+115668690+115639631+115684984+115689130+115630375
3740+115601015+115558164+115473196+115470615+115577269+115667329+115702603
3726+115722318+115723529+115704097+115659478+115559924+115440512+115373633
3713+115321632+115178758+114982963+114806300+114601178+114312928+113916742
3699+113433271+112940421+112511710+112154883+111805746+111423741+111051477
3686+110757710+110555904+110397187+110216369+109983850+109730759+109555767
3672+109529448+109548650+109446319+109234134+109005443+108771899+108538779
3659+108361161+108234554+108077526+107889582+107724659+107546492+107265969
3645+106896641+106536524+106241219+106007675+105776341+105441907+104999493
3632+104585492+104210011+103699002+103103573+102642983+102310794+101922176
3618+101376246+100735730+100107582+99536704+98991296+98391235+97705419+96996440
3603+96325300+95678887+95023731+94371952+93731816+93070383+92368733+91587580
3587+90690666+89804185+89059243+88398251+87715565+86972365+86185456+85384083
3572+84596096+83866881+83168193+82377068+81495944+80672505+79960724+79258889
3557+78475622+77622612+76744140+75861186+74952673+73990153+73028402+72155531
3541+71340464+70493863+69631548+68834211+68085397+67303854+66495206+65674123
3526+64803025+63923262+63107409+62356411+61616118+60815078+59980504+59231845
3510+58558600+57804115+56916444+56034484+55289688+54625452+53928440+53209763
3495+52528753+51863633+51134029+50355753+49647814+49032432+48385634+47635896
3479+46883625+46236376+45649634+44997479+44221466+43396197+42690013+42205694
3464+41826990+41353377+40746266+40101669+39471130+38851907+38264970+37730276
3449+37229089+36737430+36253686+35778913+35284199+34725736+34153627+33692988
3433+33326636+32899740+32404279+32020125+31762574+31458490+31111527+30832711
3418+30565820+30198998+29766269+29365742+29033770+28764894+28486777+28105119
3402+27673298+27393700+27339525+27287698+27034280+26707411+26552154+26525218
3387+26458215+26367669+26289292+26171423+26015412+25894973+25842921+25778249
3371+25644324+25551649+25621394+25797787+25918849+25920390+25904883+25974868
3356+26095475+26115784+25994826+25981437+26221424+26502485+26682315+26836965
3341+26979550+27100110+27290322+27571111+27851674+28067557+28203955+28330567
3325+28574640+28949529+29353898+29724784+30035335+30291571+30555987+30795696
3310+30921353+31025228+31321698+31875759+32511736+33013566+33346260+33634500
3294+33991615+34441661+34969462+35522794+36039282+36524816+37023835+37542880
3279+38003754+38375787+38792732+39326249+39948195+40674550+41424576+42084683
3263+42706372+43359876+44012866+44643432+45319346+46069327+46799263+47464970
3248+48162557+48964929+49827266+50704063+51584727+52423946+53186866+53964965
3233+54914476+55991351+57042278+58071801+59090703+60069941+61063921+62087888
3217+63108571+64176808+65312044+66414924+67463053+68542606+69674854+70819691
3202+71988747+73222649+74487539+75710479+76879561+78047106+79260383+80495532
3186+81693542+82876265+84128353+85424954+86672957+87875299+89077216+90306990
3171+91567856+92813066+94010377+95175570+96352132+97595803+98889654+100107078
3155+101185217+102247300+103413439+104642241+105858851+107053121+108201746
3142+109259410+110280464+111382296+112541450+113629844+114624288+115632576
3128+116737591+117864928+118888059+119793858+120634907+121466939+122362836
3115+123369223+124427585+125406920+126297416+127216510+128147319+128964693
3101+129693103+130454966+131268115+132051805+132754772+133407983+134064183
3088+134713496+135313981+135886008+136466390+137055197+137687536+138400262
3074+139120742+139707463+140131126+140539680+141043281+141555492+141975106
3061+142337353+142687152+143021560+143325193+143537909+143663049+143808566
3047+143976495+144058174+144053170+144057042+144049926+143913187+143651839
3034+143372482+143088130+142726361+142246798+141648266+140932861+140124107
3020+139231286+138172509+136876297+135411785+133860211+132166628+130232721
3007+128024955+125523450+122660139+119355652+115541004+111122839+106006110
2993+100099466+93296068+85643107+77325353+68517622+59540610+51019640+43761525
2978+38429618+35344327+34632692+36298427+40048705+45285694+51386965+57946348
2963+64750219+71547151+77894233+83237239+87118103+89410164+90279318+89883875
2947+88347868+85968178+83259288+80774977+78908232+77802670+77336704+77223384
2932+77268843+77598530+78488185+79990022+81922250+84045985+86082550+87757726
2916+88915811+89501117+89527357+89083607+88209246+86918498+85373448+83857581
2901+82681735+81988086+81604065+81278038+80866761+80310700+79606098+78747341
2885+77779003+76933454+76600850+77144048+78760681+81411506+84883020+88979270
2870+93523751+98325080+103230764+108047414+112565850+116731305+120616191
2856+124276940+127757295+131106286+134319785+137348186+140145970+142697876
2843+145009979+147123087+149122416+151092314+153075367+155059746+157020626
2829+158943828+160817469+162628906+164361521+166001537+167533150+168977487
2816+170366199+171680224+172951673+174299241+175813278+177460120+179108022
2802+180702704+182277795+183798781+185208693+186508609+187709014+188821932
2789+189829150+190688447+191443335+192179799+192904416+193580552+194189126
2775+194708216+195104950+195420863+195776435+196159891+196445798+196645792
2762+196846157+197075184+197318762+197530249+197717477+197926983+198153269
2748+198409773+198726729+199105287+199540920+199985500+200427499+200922506
2735+201442073+201948927+202473427+203012107+203565269+204169158+204836824
2721+205577248+206412374+207326536+208269430+209199257+210053691+210756578
2708+211323549+211896425+212585803+213354448+214135698+214923916+215744437
2694+216602690+217431309+218187152+218920893+219644521+220328082+220992088
2681+221647872+222273315+222885196+223525119+224192467+224851451+225501895
2667+226163249+226786057+227313050+227791278+228289327+228791530+229254358
2654+229667730+230068407+230510848+230975125+231395517+231784401+232193831
2640+232597319+232939330+233255897+233603778+233957334+234287533+234615151
2627+234954580+235304017+235675609+236088840+236524685+236946474+237376237
2613+237826546+238238239+238595950+238930959+239219820+239452223+239708709
2600+240046016+240408679+240729366+241021108+241330108+241649203+241938735
2586+242213079+242512602+242815130+243068857+243288424+243554104+243900394
2573+244243766+244503806+244721640+244944973+245137629+245285251+245439875
2559+245609280+245738477+245828051+245916935+245999861+246099478+246261863
2546+246456836+246678860+246988567+247386168+247839129+248333040+248830346
2532+249300387+249769792+250281685+250825245+251352716+251841234+252290942
2519+252699187+253085047+253471597+253847167+254229049+254665920+255171713
2505+255714230+256223312+256674646+257139860+257695568+258340248+258983779
2492+259562065+260134216+260749581+261354920+261921342+262510750+263166888
2478+263858742+264540429+265178549+265779061+266388715+267028868+267674574
2465+268295278+268915292+269578626+270280205+270978566+271615979+272178971
2451+272691730+273157634+273603470+274061063+274521627+274964758+275371234
2438+275740315+276078825+276377516+276650994+276911210+277136966+277350610
2424+277552301+277694141+277839818+278059508+278327629+278661435+279067364
2411+279499036+279969767+280521620+281121655+281682119+282199634+282762326
2397+283374897+283977884+284531788+285030102+285438188+285687353+285775265
2384+285820070+285956181+286158827+286343951+286534432+286721943+286791872
2370+286827836+286979012+287037307+286932245+286901037+287379760+288713217
2357+290525592+291853020+291394472+289240016+287990686+289567227+292456025
2343+294022223+294128258+294027085+294236698+294813057+295474994+296042548
2330+296480851+296718825+296870106+297304714+298177112+299004565+299348361
2316+299513399+299991856+300748194+301499723+302103329+302601873+303098648
2303+303651261+304212751+304721302+305242796+305837420+306416697+306912129
2289+307355011+307758323+308085994+308366067+308675844+309025511+309357355
2276+309634386+309873085+310083952+310261721+310422904+310578748+310704851
2262+310806448+310961125+311230058+311604726+312069534+312655494+313367982
2249+314130438+314855656+315475848+316029557+316571031+317140300+317724139
2235+318257904+318731234+319209656+319728993+320255402+320745706+321193787
2222+321631295+322075911+322527563+323003121+323492258+323945149+324355250
2208+324783775+325248371+325714027+326186190+326684734+327199509+327720225
2195+328241613+328740546+329231097+329740709+330214499+330628490+331076359
2181+331624517+332217090+332768218+333273021+333784472+334306001+334791920
2168+335257895+335769770+336339994+336905479+337397587+337846022+338331941
2154+338836956+339296565+339730678+340153227+340513891+340814793+341136806
2141+341537501+341989189+342462802+342990484+343600703+344300249+345066842
2127+345845423+346632561+347468253+348315190+349098192+349833489+350573171
2114+351318369+352035631+352706604+353353105+353988113+354589103+355151370
2100+355707484+356283295+356869185+357443016+357992128+358554749+359153475
2087+359738516+360294984+360875392+361491411+362121716+362774582+363439437
2073+364096335+364751323+365386225+365975757+366566456+367235483+367940050
2060+368574174+369166182+369798821+370451369+371085317+371730545+372396213
2046+373035853+373630124+374204874+374772198+375321311+375864447+376418227
2033+376980565+377556411+378148737+378755278+379369140+379984416+380601814
2019+381214013+381815356+382418927+383042548+383687812+384327736+384898738
2006+385379105+385831606+386311514+386823177+387336219+387807923+388248224
1992+388729086+389251889+389720834+390112971+390483961+390877159+391311555
1979+391783859+392273527+392756582+393230088+393703348+394179188+394658884
1965+395164712+395729632+396330197+396883588+397342631+397750540+398158803
1952+398534284+398798267+398926103+398940354+398873271+398771108+398584499
1938+398189710+397567644+396787083+395940393+395165632+394661607+394660723
1925+395339475+396670881+398407049+400380360+402499259+404557263+406441813
1911+408166417+409730864+411140564+412419987+413589043+414668419+415691038
1898+416678295+417625308+418508068+419324629+420149853+421026212+421890406
1884+422717399+423517799+424280714+425030297+425804069+426569106+427232546
1871+427837001+428569575+429458170+430345350+431121526+431813680+432536105
1857+433336364+434131106+434857951+435546463+436200002+436786528+437406118
1844+438196510+439039876+439780017+440472455+441171363+441838517+442513131
1830+443293480+444080548+444779705+445525434+446316533+447012401+447628030
1817+448258795+448913677+449579381+450298835+451060407+451787995+452426115
1803+452998107+453626467+454333828+454963355+455463560+456009914+456723888
1790+457454269+458043695+458555889+459078621+459620979+460191485+460715879
1776+461106284+461515642+462126427+462800229+463373105+463870446+464312339
1763+464772089+465320035+465938493+466648011+467394907+468119843+468964799
1749+469981937+470960459+471762450+472456373+473155176+473803728+474219806
1736+474557343+475169825+475931291+476559368+477079023+477501431+477781786
1722+477884904+477866339+477974761+478320750+478678691+478888145+478941295
1709+478856177+478683111+478415734+478063168+477799680+477662084+477483396
1695+477234548+476823386+476142866+475246739+474237664+473288316+472514545
1682+471740773+470768227+469671241+468613259+467643082+466769022+466099959
1668+465644099+465205106+464751048+464439255+464260320+464002526+463616683
1655+463529832+464069644+464572007+464673003+464986175+465714683+466436153
1641+467035586+467725619+468881025+470744888+472790303+474483152+476111393
1628+477991806+480077357+482331978+484573939+486564436+488737829+491513909
1614+494322168+496704166+498888344+501053639+503160974+505167809+507053420
1601+508804864+510441451+512000417+513502590+514911971+516199527+517406422
1587+518573391+519678547+520644727+521377903+521917785+522610789+523596241
1574+524374009+524762150+525163340+525698555+526106676+526178816+525971980
1560+526028100+526689772+527288180+527437305+527420578+527399361+527294864
1547+526987526+526562184+526319348+526485588+526810147+526724534+526250850
1533+525805280+525392173+524767844+523963342+523118739+522244006+521331401
1520+520390788+519391190+518318497+517067611+515460340+513502554+511435815
1506+509444364+507286778+504543409+501040661+496716225+491513166+485451006
1493+478305013+469734575+460664250+453051292+447699605+443909570+440701888
1479+437629327+434536009+430923106+425973103+419531112+412493258+405375309
1466+397725256+389143855+379998207+371284090+365071462+363929847+367542326
1452+373082426+378758991+384428413+390225495+395619760+399884574+402570373
1439+403765562+404016142+403746997+403100672+402251543+401440640+400835089
1425+400571990+400692683+401203816+402293978+404011086+406014384+408102941
1412+410351126+412789315+415393956+418232239+421232978+424001065+426118903
1398+426944446+425687761+422668174+418834289+413608351+405504948+395009399
1385+385176865+379211210+379071881+385085559+396018297+410578508+427918760
1371+446861225+465965899+483022718+495657146+503423047+507420661+509039885
1358+509530189+509670473+509594832+509089676+507991699+506412470+504758733
1344+503362506+502203599+501199616+500530235+500378706+500734844+501589702
1331+503011744+505041599+507625376+510713426+514286581+518295334+522659165
1317+527287013+532174742+537426177+543056771+548886244+554734779+560508768
1304+566131794+571531682+576607682+581248473+585380996+588958607+591848625
1290+593839370+594789354+594554899+592876124+589572751+584955653+579990939
1277+576143617+575027251+577721183+584135379+593056156+602907008+612471845
1263+621091933+628552052+634874411+640158380+644522988+648029414+650732116
1250+652976659+655119003+656783314+657292537+657094435+657372528+658160833
1236+658977359+660345825+662928223+666680844+671171910+675918789+680550174
1223+684813291+688649934+692162513+695387876+698242426+700685282+702788091
1209+704729929+706689448+708593447+710316673+711981408+713704209+715341220
1196+716769379+718055875+719291660+720444980+721370918+721991392+722408389
1182+722745325+723015921+723084666+722814636+722219906+721311296+719993328
1169+718182827+715941750+713453700+710835090+708148726+705631112+703537639
1155+701892283+700638179+699665917+698716852+697518904+695924894+693870108
1142+691296622+688173386+684519286+680464596+676188465+671734318+667177973
1128+662762160+658538790+654194975+649281749+643373346+636044140+626647840
1115+614286024+598124341+577411759+551265307+518732418+479425658+434358735
1101+386004671+337688481+293148799+256301852+230518999+217609909+217535417
1088+228805092+248917515+274716989+302619271+328906715+350136618+363433178
1074+367515379+364554211+359575176+355867359+351117332+338054025+309134746
1061+262999658+207016440+153015798+110729668+84221446+73177089+76508925
1047+94646871+129169655+180706311+246829647+321363529+396420690+465390866
1034+524555632+573114340+611718902+641820357+664250082+676131673+673781891
1020+660592798+649226442+653086920+674602023+705144380+735551864+762140598
1007+784751804+803919883+820082485+833396903+843780388+851491724+857259313
993+861554398+864288290+865274203+864551742+862276859+858289641+851662950
980+840511953+821842559+791947693+749964860+704767130+675521241+677915510
966+710129463+756596855+802214198+839790766+868390649+889485148+904802864
953+915799396+923814216+929980555+934861954+938625467+941531151+943940908
939+945935577+947438634+948581911+949490167+950044938+950130232+949797752
926+949087315+947996658+946471393+944333575+941430791+937698327+933110509
912+927650222+921355941+914450804+907310293+900163628+892605696+883298793
899+870169818+850802080+822490050+782531662+729491401+664830667+593974738
885+526197417+474588002+455897850+483594074+554740437+647513613+736285357
872+806450864+855720964+887984849+907993925+919253839+924535049+927166814
858+930575921+936045827+942287276+947663824+951695882+954354522+955463214
845+955303233+954692943+954079612+953107703+951419982+949334430+947357583
831+945410724+942943325+939960834+936997438+934005822+930394298+925810936
818+920341101+914083668+906644271+897434899+886493108+875008357+865534472
804+861061796+862927321+869550051+877536085+884211859+888566636+890539947
791+890822354+890441921+889680279+888196035+886122931+883955762+881833787
777+879521418+876770340+873787000+870991718+868535707+866296751+863957295
764+861301343+858281296+854818437+851158961+848132407+846448647+845912194
750+845594920+844837309+843701317+842323090+840672146+838802095+836781611
737+834685521+832611285+830541363+828497823+826636329+824823353+822695578
723+820095216+818137819+816111606+813787143+811855278+810247618+808580266
710+806897354+805273639+803608762+801858237+800191097+798763999+797524748
696+796385997+795296543+794139404+792922219+791807303+790853924+790058121
683+789447973+788909894+788252572+787073366+784282965+781039284+783962932
669+792888766+793100447+784262950+781252592+784731647+787582660+788439994
656+788875168+789493025+790489052+791793653+792955601+793972845+795301635
642+797060577+798989401+800854148+802514215+804068478+805769495+807682265
629+809704093+811752938+813997410+816172924+818117591+820197061+822912564
615+826216149+829580629+832638868+835472129+838366921+841410308+844544859
602+847881403+851483449+855069229+858449622+861954846+865858254+869795044
588+873367456+876807117+880503370+884303165+887949274+891606628+895345882
575+899045035+902584702+905955830+909458931+913128238+916521857+919566870
561+922826888+926660632+930837818+935035726+939036452+942847705+946728905
548+950853754+955027969+958856054+962197336+965417112+969078639+973057581
534+976675895+979816882+982996062+986411252+989571123+992163140+994608684
521+997211168+999814571+1002520880+1005581312+1008740758+1011594459+1014010511
507+1016118412+1018193001+1020232511+1022008851+1023690914+1025355084
496+1026316596+1026339936+1026253792+1026497724+1026632880+1026364407
484+1026054558+1026536623+1028162389+1029767503+1029974374+1029010811
473+1027772550+1026314050+1024221850+1022327540+1022337724+1023914407
461+1025055066+1025128197+1024615225+1023558233+1021850285+1019262936
449+1015478417+1010598504+1004905671+998581685+991489904+983742852+976798321
436+972179101+970062854+970680004+975278784+984046052+994975607+1006283686
422+1017400098+1028145910+1038609951+1048127049+1055246555+1059457477
411+1062373204+1065833658+1068708576+1069653397+1070516814+1072289335
399+1073741823
##END=
