##TITLE=38
##JCAMP-DX=4.24
##DATA TYPE=INFRARED SPECTRUM
##DATE=16/11/2015
##SAMPLING PROCEDURE=Instrument type and / or accessory
##ORIGIN=Default
##XUNITS=1/CM
##YUNITS=TRANSMITTANCE
##RESOLUTION=4
##FIRSTX=3996.3359
##LASTX=399.24785
##DELTAX=-1.9287336
##MAXY=0.9120934
##MINY=0.021059869
##XFACTOR=1
##YFACTOR=8.4945318e-010
##NPOINTS=1866
##FIRSTY=0.083910286
##XYDATA=(X++(Y..Y))
3996+98781532+98877698+98917940+98908169+98910002+98990064+99131225+99277298
3981+99449824+99663030+99814076+99866185+99929775+100077865+100258829+100376632
3965+100415128+100449020+100541633+100663726+100768461+100884229+100999937
3952+101038924+101009348+101048002+101259340+101524699+101655361+101654615
3938+101630285+101641091+101723407+101866752+101977916+102020727+102077195
3925+102180316+102282314+102401977+102585178+102747960+102778895+102752819
3911+102828943+103004275+103151550+103227182+103281949+103326769+103323366
3898+103308736+103362870+103489410+103634000+103741086+103816341+103905850
3884+103987315+104024250+104037722+104036065+104016488+104024118+104128213
3871+104310440+104439365+104464468+104468275+104489088+104505438+104512805
3857+104547521+104668552+104816651+104855086+104859103+104933850+105024016
3844+105108086+105251212+105431123+105547076+105581108+105602878+105627165
3830+105633594+105652039+105712191+105823978+105955070+105995381+105977567
3817+106065918+106200931+106253644+106283062+106335671+106338004+106294342
3803+106361861+106529669+106599083+106587233+106642464+106764557+106857293
3790+106859767+106810552+106787353+106804097+106846049+106915094+106974842
3776+106979631+106964212+107010006+107132861+107262410+107345191+107368013
3763+107350479+107346155+107359505+107378547+107445610+107577202+107701917
3749+107741931+107770717+107891705+107993028+107925438+107771331+107657781
3736+107626276+107668587+107739650+107791847+107798276+107761858+107735151
3722+107751623+107756315+107694427+107593156+107521304+107519085+107525786
3709+107451267+107301511+107124248+106923813+106655191+106308595+105950526
3695+105653881+105397434+105078063+104696251+104376354+104161666+103987298
3682+103805018+103633720+103534905+103509925+103477999+103412058+103311946
3668+103138674+102910206+102680686+102480154+102299567+102115244+101926833
3655+101720916+101486291+101250990+101030083+100795335+100539712+100262460
3641+99921512+99502932+99054154+98628539+98244842+97909183+97625309+97315156
3626+96887481+96365526+95839746+95368382+94912981+94398569+93819242+93246547
3611+92748703+92272708+91733018+91142376+90530421+89889443+89252412+88682576
3595+88137061+87487540+86740467+86011147+85305562+84571611+83843045+83165904
3580+82521715+81870501+81211823+80549391+79851401+79109880+78353475+77595930
3564+76842095+76122344+75453237+74771667+74016946+73235333+72486068+71722111
3549+70850731+69881931+68973217+68272815+67714210+67067381+66234778+65398798
3533+64709088+64048568+63290965+62448999+61593828+60816118+60116606+59401338
3518+58633377+57858048+57129890+56451232+55767267+55071509+54361998+53562571
3503+52729516+52017037+51418528+50833088+50204547+49556376+48926884+48282906
3487+47625684+47015207+46389784+45666420+44953554+44371245+43874708+43335255
3472+42618096+41740708+40979391+40533998+40226630+39797635+39255576+38734116
3456+38234650+37698893+37132991+36579469+36075397+35591022+35091136+34631749
3441+34220651+33724741+33109997+32566882+32184816+31840272+31512588+31278834
3425+31045185+30693644+30301921+29984944+29725313+29410356+29005383+28602840
3410+28277025+28032116+27804148+27455116+26964537+26606418+26566202+26583863
3395+26370733+26009733+25803011+25845717+25940892+25924768+25806421+25645685
3379+25495731+25393228+25307755+25162971+24949947+24792266+24828280+25012673
3364+25185978+25289726+25354982+25401631+25445480+25467543+25439735+25479755
3348+25697263+25965676+26135845+26199047+26200999+26263177+26500029+26860087
3333+27211145+27453153+27571128+27682106+27929822+28332322+28758557+29059050
3317+29224327+29381728+29633939+29921188+30111813+30242594+30515761+31023378
3302+31631489+32133413+32467096+32739248+33044938+33443143+33963311+34509448
3287+34968954+35349906+35741675+36215210+36741360+37250514+37713423+38132976
3271+38599963+39234219+39971669+40630554+41182524+41762881+42426716+43096152
3256+43745594+44403036+45061718+45718033+46405704+47172717+47987752+48761787
3240+49503531+50281201+51081869+51884577+52741142+53642261+54534371+55449510
3225+56421160+57417979+58398725+59357224+60319844+61304879+62304588+63308994
3209+64329977+65374059+66424526+67465560+68510466+69604336+70752486+71893558
3194+72992231+74070888+75150233+76255857+77429368+78640551+79784189+80850123
3179+81944388+83112278+84316374+85510769+86653643+87741523+88805852+89874375
3163+90978656+92133591+93289358+94366809+95343762+96313040+97391806+98549021
3148+99700763+100824157+101858770+102775009+103689337+104727801+105868780
3134+106990771+108000115+108904812+109791957+110698216+111567995+112369492
3121+113165331+114026305+114957341+115934942+116892599+117753046+118548105
3107+119351417+120161904+120936518+121661163+122382177+123119908+123817661
3094+124452956+125058183+125653430+126246579+126840264+127425301+127992839
3080+128562088+129166350+129800549+130414793+130950484+131384764+131765786
3067+132181463+132656054+133112376+133471059+133745645+134008714+134291747
3053+134576340+134836270+135036749+135158807+135220011+135245658+135253060
3040+135237466+135162105+135024487+134870047+134684049+134383895+133938897
3026+133424493+132899021+132300354+131559053+130677924+129680640+128559685
3013+127287253+125888844+124356317+122549291+120374093+117838598+114897838
2999+111489538+107578474+103025229+97626703+91325761+84216331+76395808+68016240
2984+59423642+51195695+44094752+38818485+35781460+35143563+36844512+40530919
2968+45590037+51453125+57768509+64303673+70782339+76772848+81794684+85462791
2953+87645620+88475062+88082479+86628067+84429309+81898832+79518786+77694727
2937+76578841+76057491+75852697+75804833+76108600+77010955+78447615+80230099
2922+82195617+84118569+85743026+86865569+87412495+87448509+87040682+86202593
2907+85019152+83671071+82374950+81346923+80631155+80078001+79597541+79199064
2891+78783782+78165363+77298505+76316561+75464394+75090371+75550701+77049355
2876+79546511+82817308+86613770+90757275+95118794+99547191+103866380+107972679
2860+111835915+115431196+118768582+121916304+124934950+127821515+130526466
2847+133008475+135277321+137368510+139288516+141067956+142811927+144590411
2833+146361756+148087343+149819498+151573529+153249709+154791989+156258979
2820+157703182+159099706+160375733+161523230+162659955+163911617+165304404
2806+166770043+168247769+169755018+171258724+172641723+173884876+175062282
2793+176179080+177187766+178090691+178925097+179720752+180469693+181133362
2779+181718635+182247844+182715656+183136893+183510557+183811403+184072061
2766+184340016+184610813+184883557+185147144+185338089+185454147+185591852
2752+185796060+186024019+186256135+186522301+186854934+187244894+187634292
2739+188019411+188463313+188956332+189443458+189954265+190521277+191087360
2725+191630234+192226997+192951292+193791346+194666607+195526800+196342523
2712+197048241+197655722+198224962+198765608+199355531+200068072+200846694
2698+201637367+202409762+203148703+203902451+204689090+205453590+206133749
2685+206729284+207312505+207916794+208516961+209106392+209700576+210326916
2671+210967657+211566543+212117013+212631697+213140978+213680397+214193046
2658+214606162+214958933+215344472+215797338+216266027+216681791+217056086
2644+217470552+217934680+218343586+218659080+218953506+219237529+219497854
2631+219780562+220103020+220455089+220841295+221240342+221625513+222028226
2617+222446517+222817584+223149374+223476955+223790870+224083735+224375600
2604+224691252+225019727+225349289+225663099+225928599+226187309+226509469
2590+226870765+227203626+227493263+227763884+228032401+228294795+228560575
2577+228854492+229163583+229451080+229699879+229927207+230152289+230336463
2563+230452030+230562685+230712003+230876337+231034234+231162098+231279770
2550+231425685+231584686+231761668+231994065+232317506+232708483+233093935
2536+233492298+233947795+234431412+234918713+235412487+235916365+236408192
2523+236855251+237249755+237605455+237980926+238417091+238853345+239253392
2509+239678050+240137810+240578660+241022158+241531457+242091013+242651307
2496+243196707+243732898+244269878+244803701+245353732+245965336+246609779
2482+247200578+247715771+248210211+248743104+249356725+250048251+250742303
2469+251391605+252002876+252570502+253122813+253722366+254383018+255059545
2455+255695304+256243336+256698079+257143121+257640754+258133599+258565940
2442+258965776+259346930+259669073+259957008+260276151+260601223+260876107
2428+261092155+261283890+261506288+261751842+261956575+262133856+262362095
2415+262653504+262980558+263358870+263822858+264365627+264928043+265489705
2401+266078750+266649621+267184654+267713424+268252071+268757247+269168679
2388+269445159+269583531+269647682+269731621+269869274+270055676+270299160
2374+270565641+270737343+270773602+270791548+270870838+271119953+271555364
2361+272162565+273073367+274218969+275058409+274770316+273500323+272959712
2347+274348341+276614916+277943359+278232084+278420994+278790115+279172075
2334+279412910+279649798+280054634+280503378+280834712+281216691+281857169
2320+282552870+282980685+283256043+283693139+284295831+284909804+285494867
2307+286065475+286599613+287095317+287578302+288058130+288541484+289031311
2293+289529366+290037191+290518405+290915522+291201072+291433679+291711475
2280+292064720+292449663+292803802+293089738+293312013+293496591+293655224
2266+293788719+293901023+294014415+294171153+294410269+294757637+295230431
2253+295830440+296522755+297244470+297953064+298566651+299125611+299680080
2239+300204869+300679241+301149018+301649598+302161335+302655109+303141445
2226+303618063+304050826+304478747+304952383+305422931+305843695+306256775
2212+306692555+307118196+307552958+308047294+308568363+309034526+309455921
2199+309919558+310418595+310918333+311441016+311961524+312440879+312889850
2185+313326437+313778461+314285216+314835546+315374333+315887438+316408964
2172+316947119+317479591+318007642+318520256+319000312+319474685+319952846
2158+320432727+320930536+321406873+321820690+322222228+322649868+323075334
2145+323474100+323861885+324270334+324684221+325113546+325617985+326197540
2131+326847088+327580381+328359319+329130187+329875304+330611334+331351503
2118+332108935+332883873+333631831+334328427+334992850+335624575+336232688
2104+336848905+337430144+337939250+338466108+339041733+339603465+340129622
2091+340672619+341255577+341856533+342437491+342979611+343520117+344100970
2077+344730695+345377927+345997968+346605555+347227492+347842902+348445858
2064+349065128+349705483+350344295+350966547+351575853+352195965+352828637
2050+353444504+354043636+354658169+355291894+355893622+356428339+356942532
2037+357483248+358027824+358567769+359141640+359747122+360353937+360953875
2023+361550797+362161260+362787337+363396187+363960866+364496004+365036650
2010+365597154+366147063+366662133+367176361+367726655+368283440+368791915
1996+369237273+369654703+370119147+370636989+371107467+371509075+371920471
1983+372374039+372838307+373291314+373731304+374176837+374642158+375074148
1969+375478458+375984055+376614973+377241821+377805378+378338832+378830992
1956+379253931+379631822+379999749+380338487+380573550+380653331+380620493
1942+380546886+380396691+380073040+379542007+378864462+378162639+377542247
1929+377130499+377137797+377769206+379030620+380671856+382521842+384505077
1915+386412321+388118076+389672724+391145310+392535518+393795740+394934325
1902+395993936+396963030+397846027+398717341+399594304+400429727+401265466
1888+402139447+402974379+403745177+404485031+405208010+405947232+406714592
1875+407434799+408007477+408542300+409301134+410265632+411184450+411951810
1861+412643353+413375419+414185371+414989604+415699005+416332976+416931791
1848+417490752+418109881+418909940+419759362+420520617+421256542+421983941
1834+422628296+423222831+423912726+424665631+425367243+426118254+426951572
1821+427730650+428416124+429068864+429721078+430376871+431066589+431801742
1807+432528756+433154621+433678462+434268893+435000502+435688011+436204660
1794+436727343+437458917+438267957+438926346+439461975+439996377+440568353
1780+441175168+441718060+442086128+442434794+443007858+443715084+444347931
1767+444883525+445354003+445862162+446476731+447151504+447897217+448631703
1753+449244307+449917536+450827829+451822008+452704549+453452157+454146366
1740+454767460+455152474+455479598+456164159+457040456+457728385+458269733
1726+458717442+459016359+459120523+459083054+459158730+459517255+459988610
1713+460369308+460560657+460524625+460349169+460103300+459771860+459495748
1699+459381058+459316258+459276683+459117787+458635380+457844444+456854650
1686+455900713+455219554+454653402+453879271+452893687+451900491+451005179
1672+450207436+449632513+449325351+449042889+448709660+448501786+448389096
1659+448080672+447497644+447190798+447700886+448335663+448485332+448742113
1645+449464284+450238731+450831513+451404717+452382652+454099459+456077993
1632+457730420+459283700+461077060+463089520+465261473+467399500+469264748
1618+471299381+473959986+476698302+479047956+481222541+483361304+485389938
1605+487319074+489202355+490977331+492576957+494054735+495491570+496887322
1591+498209187+499442569+500581891+501630345+502567232+503320067+503897657
1578+504612566+505624252+506441010+506845215+507276679+507909562+508411265
1564+508462523+508074843+507896300+508540725+509408075+509853573+509988963
1551+510023065+509977069+509716008+509268230+508973733+509171678+509662505
1537+509767371+509420881+509091721+508805260+508275173+507552967+506816902
1524+506056980+505277691+504528645+503741848+502858570+501782856+500318690
1510+498429480+496451367+494760277+493079888+490780965+487633252+483664361
1497+478904673+473334962+466668136+458639415+450235363+443289303+438455096
1483+435033622+432126411+429296630+426382122+422978611+418356558+412333596
1470+405742060+399074076+391876498+383724561+374924795+366452365+360459329
1456+359567701+363330614+368795493+374202975+379514536+384959768+390048229
1443+394034558+396481184+397536304+397800979+397674465+397180481+396432733
1429+395719227+395238960+395098449+395322566+395939836+397203040+399221149
1416+401599818+404031464+406556012+409251245+412101795+415075806+418025609
1402+420591943+422469996+423273738+422463400+420069575+416443035+411065305
1389+403027987+393004663+383686319+377915647+377606240+383215806+393574605
1375+407367683+423784212+441713429+459773123+475896981+487817549+495061264
1362+498734501+500237576+500704475+500809868+500705422+500184599+499067029
1348+497530344+496016253+494777222+493716700+492737607+492052800+491906850
1335+492290881+493151880+494570366+496607175+499159861+502111489+505448691
1321+509192553+513313464+517752694+522512487+527625718+533040848+538598840
1308+544188022+549756539+555217594+560464355+565355293+569771893+573667178
1294+577017677+579764799+581783680+582904618+582881463+581417648+578406482
1281+574211052+569700777+566195101+565244216+567929590+574209754+582954543
1267+592643656+602047675+610504213+617870195+624188215+629511880+633949461
1254+637577510+640458057+642804133+644809190+646294442+646962303+647096184
1240+647372998+647957429+648826814+650456963+653237380+657021905+661408192
1227+665966673+670342926+674301398+677755571+680782138+683509648+685944557
1213+688045534+689876785+691576892+693268508+694933531+696479828+697961852
1200+699510115+701031362+702371225+703522405+704584051+705589281+706434177
1186+707045203+707475615+707773409+707963214+708012472+707822877+707334576
1173+706513748+705290716+703584224+701478334+699189726+696784709+694297666
1159+691992920+690127707+688712273+687646979+686810994+686019145+685017423
1146+683616234+681801121+679578542+676839103+673508497+669771476+665885348
1132+661858672+657708922+653665126+649807556+645872520+641447570+636140745
1119+629516862+620918725+609509648+594497361+575116644+550444328+519439469
1105+481594432+437896030+390840569+343613651+299811049+263424215+237953753
1092+225304750+225597492+237435385+258170823+284509160+312963352+339892383
1078+361758775+375629390+380218394+377689810+373262966+370402030+366332342
1065+353091768+323241211+275990612+218811871+163309871+119289187+91361468
1051+79727659+83321204+102312767+137999069+190630266+257356064+331810404
1038+406036977+473434917+530686597+577602529+615227238+644665977+665979584
1024+676529801+673554036+660531229+649480080+653191139+673826991+702947377
1011+731765057+756804107+777926996+795693387+810611648+822872638+832442886
997+839615625+845078855+849322070+852273206+853648644+853454068+851898227
984+848744796+842898728+832437764+814497777+785622909+745205856+701921166
970+673996307+676280634+707154244+751786866+795529614+831388328+858528917
957+878362043+892520242+902509465+909729708+915305979+919789029+923288670
943+925976044+928173152+930013876+931432889+932480501+933356271+934106650
930+934497277+934324031+933663187+932712266+931447273+929642546+927176132
916+923987967+919993499+915148451+909484680+903238443+896795383+890359692
903+883550845+875074169+862827494+844439202+817449124+779239423+728138411
889+665480196+596639036+530609097+480161947+461796846+488743033+558074810
876+648345530+734453132+802213631+849564501+880479791+899549838+910070866
862+914924053+917424990+920640380+925721053+931544667+936542892+940206867
849+942578063+943575224+943475024+943001528+942491616+941582656+940019097
835+938163568+936363121+934460438+932130642+929398922+926570860+923688910
822+920330377+916069901+910936391+905014472+897939687+889228720+878901356
808+868029066+859016025+854724534+856510737+862924677+870726053+877239281
795+881385804+883254033+883630556+883399001+882766645+881483548+879694538
781+877753965+875750802+873550255+870942663+868084640+865431438+863143251
768+860983542+858722090+856338895+853702253+850512755+846904774+843842631
754+842273388+841914688+841661311+840972820+839990394+838761116+837213205
741+835385322+833422154+831473582+829532377+827534687+825520087+823603581
727+821766857+819857228+817635701+815765857+813780657+811691047+809971293
714+808427100+806767060+805135087+803665974+802287378+800913343+799527240
700+798116998+796754962+795621114+794730047+793842419+792826523+791829712
687+790989728+790271696+789677582+789189562+788638109+787682067+785625927
673+783317321+785200076+791160307+791456277+785695674+783789343+786381569
660+788647231+789490373+789890964+790389228+791405054+792908269+794233396
646+795219541+796376194+797908388+799603583+801282499+802875458+804435158
633+806107127+808017248+810237231+812652282+815024600+817063128+818715731
619+820529580+823294981+826773221+830070428+832921293+835615965+838503248
606+841660819+844869614+848158329+851607520+854936793+858187899+861805353
592+865692323+869293498+872626490+876155673+879878169+883481519+887086273
579+890980260+894856143+898373678+901668639+904905991+908313362+911901836
565+915196236+918046891+921024902+924645443+928797650+933051179+936961796
552+940344467+943621044+947514750+951977311+956233857+959963932+963448838
538+967022928+970622349+973928466+976972926+980114289+983447562+986526545
525+988985872+991168946+993512005+996054130+998939308+1002288158+1005486006
511+1007933194+1009889696+1011929066+1014229813+1016469864+1018391071
500+1020210323+1021853032+1022633654+1022635338+1022895451+1023527457
488+1023667022+1023254502+1023205244+1024099047+1025511815+1026648541
476+1027050394+1026650505+1025697691+1024399297+1022658353+1021016416
465+1020760512+1022018910+1023469217+1024227175+1023990918+1022568678
453+1020375639+1017449483+1013297487+1008074583+1002178415+995882288+989399303
440+982609823+975920964+970861623+968803097+970061213+975020004+983645576
426+993965502+1003932692+1013251457+1022686420+1032660136+1042206246+1050022989
413+1055376686+1058869943+1062341377+1066112429+1069317013+1071995826
401+1073588856+1073741823
##END=
