##TITLE=38
##JCAMP-DX=4.24
##DATA TYPE=INFRARED SPECTRUM
##DATE=16/11/2015
##SAMPLING PROCEDURE=Instrument type and / or accessory
##ORIGIN=Default
##XUNITS=1/CM
##YUNITS=TRANSMITTANCE
##RESOLUTION=4
##FIRSTX=3996.3359
##LASTX=399.24785
##DELTAX=-1.9287336
##MAXY=0.89236987
##MINY=0.021499911
##XFACTOR=1
##YFACTOR=8.310842e-010
##NPOINTS=1866
##FIRSTY=0.10517025
##XYDATA=(X++(Y..Y))
3996+126545842+126662323+126735557+126776383+126806756+126878601+127021223
3983+127184608+127320767+127440260+127552133+127661818+127818390+128003748
3969+128141243+128263497+128433104+128612043+128732415+128822736+128952637
3956+129089496+129175890+129250317+129391075+129567889+129718759+129872651
3942+129959655+129956526+129984712+130060537+130194607+130353384+130424843
3929+130457986+130561863+130699814+130794645+130919006+131126911+131316061
3915+131390407+131458639+131545141+131527937+131514481+131675159+131883655
3902+132003695+132071308+132043876+132003157+132097800+132198090+132070304
3888+132014713+132250947+132376823+132445055+132629445+132700644+132754111
3875+132848726+132843526+132862433+132832168+132808985+132947555+132983289
3861+132889731+132804843+132861456+133264482+133676840+133568338+133362298
3848+133355682+133421090+133462785+133517606+133758367+134059390+134065056
3834+133949409+134002239+134144727+134312514+134385891+134289151+134288981
3821+134292567+134258590+134526999+134688107+134515093+134413198+134567861
3807+134769678+134723823+134825897+135120555+135106794+135032941+135058778
3794+135034788+135041655+135100402+135182162+135279144+135332198+135390345
3780+135533048+135585744+135481204+135390748+135455977+135638036+135708052
3767+135704448+135701731+135674469+135700763+135657534+135473727+135381712
3753+135558894+135737098+135549794+135359021+135664671+135823609+135457250
3740+135192185+135234356+135430821+135619998+135676208+135531183+135426644
3726+135465919+135485911+135433905+135298625+135074063+134774080+134555068
3713+134510647+134417448+134160756+133829252+133476071+133100998+132562262
3699+131829050+131054824+130252421+129442246+128750147+128240036+127771477
3686+127345008+127159722+127080409+126818930+126441481+126159231+125851063
3672+125737908+125842878+125617393+125207186+124960275+124791054+124579222
3659+124409606+124283587+123973518+123658286+123610521+123573917+123349087
3645+123067446+122835479+122581324+122262102+121894479+121454599+120924038
3632+120455676+120172323+119700815+118971601+118289642+117734912+117299299
3618+116797552+116133666+115458278+114801178+114182027+113541189+112705303
3605+111766141+110876850+109996659+109121175+108348508+107598963+106699192
3591+105767014+104967569+104111082+103099133+102148604+101289489+100402180
3578+99467706+98496226+97464367+96379651+95386287+94565667+93721058+92729774
3562+91697816+90722983+89811549+88881791+87852621+86739119+85655927+84652361
3547+83611295+82479656+81377244+80378223+79433189+78483735+77505513+76500727
3532+75472553+74408106+73306590+72230691+71259273+70362264+69441094+68436618
3516+67401258+66451612+65599588+64708258+63696691+62684609+61768330+60905539
3501+60014922+59058691+58120017+57282817+56528673+55804215+55043979+54224691
3485+53396577+52535266+51623379+50834079+50198136+49508579+48687292+47758161
3470+46766846+45912357+45314332+44789437+44156417+43483965+42882914+42297524
3454+41633046+40922063+40264260+39679291+39064112+38389091+37788981+37259981
3439+36612471+35894459+35349237+34924438+34457492+34048785+33762456+33429085
3424+32953356+32444455+32013515+31647035+31251400+30805850+30391669+30065567
3408+29819534+29558860+29155908+28660204+28334419+28297524+28268586+27952145
3393+27479745+27214928+27205089+27198003+27092537+26955641+26805210+26646355
3377+26524378+26451270+26354278+26148615+25919255+25869715+26012810+26163470
3362+26232795+26306621+26424801+26510781+26535304+26552243+26650999+26868509
3346+27099537+27229951+27281078+27363013+27580021+27910882+28201968+28402050
3331+28599464+28799892+28987631+29256246+29620292+29983148+30340213+30719177
3315+31084445+31390414+31603449+31774233+32012439+32405449+32979558+33598837
3300+34083784+34444175+34815674+35258046+35761978+36345035+36959123+37512277
3285+38043584+38633071+39258260+39828673+40296004+40735566+41236897+41829490
3269+42526770+43266481+43984556+44731062+45532649+46327544+47085548+47857192
3254+48701214+49599411+50467948+51298222+52185263+53144184+54124382+55115926
3238+56071382+56943227+57828412+58891240+60120421+61353784+62526159+63684643
3223+64837788+65959314+67095349+68342057+69713291+71082844+72336929+73544724
3207+74835400+76205729+77580011+78955629+80358509+81762797+83158944+84563214
3192+85963216+87373520+88838499+90330455+91791347+93242754+94707232+96158872
3177+97612960+99102217+100596485+102059968+103510595+104962890+106404498
3163+107843579+109292772+110734183+112135602+113459358+114757080+116176384
3150+117712778+119215312+120647391+122047698+123356178+124543264+125787152
3136+127219518+128674538+129953379+131123002+132364837+133677324+134887674
3123+135934792+136966265+138091700+139287688+140528994+141763828+142905596
3109+143952803+144969897+145992245+147029088+148031453+148940744+149831254
3096+150772603+151690537+152515414+153273324+154007657+154743029+155504005
3082+156253129+156964977+157746555+158622192+159425356+160058726+160576269
3069+161053847+161532357+162017017+162519105+163023380+163450647+163772164
3055+164016583+164205078+164368921+164519029+164609772+164597705+164518258
3042+164423678+164278501+164001235+163568571+163007674+162352430+161630505
3028+160822176+159876954+158765038+157470920+155987948+154315367+152454543
3015+150413111+148184152+145734638+143022821+139989066+136569560+132740305
3001+128461666+123670370+118346784+112403374+105485220+97287606+88151269
2988+78692249+69090155+59448368+50312949+42552831+36932767+33779171+33154353
2972+35003950+38975310+44530419+51189824+58517417+66130126+73683725+80767469
2957+86855618+91388294+94107947+95176696+94814990+93161469+90501765+87406932
2941+84582587+82513051+81266742+80641423+80410048+80462807+80855935+81793152
2926+83395958+85491260+87797720+90068877+91992447+93266529+93756640+93563688
2910+92898323+91805287+90270256+88449262+86632580+85272543+84633445+84373033
2895+84038391+83538114+82946100+82262894+81402148+80389106+79502676+79217215
2880+79985596+81985036+85092591+89113408+93900643+99237085+104879292+110636448
2864+116325075+121818367+127018901+131862713+136405511+140734290+144853148
2851+148720513+152348291+155772700+158968487+161902894+164610847+167177460
2837+169683721+172131030+174508752+176895511+179292508+181573267+183712021
2824+185805521+187857154+189776663+191552555+193241720+194911557+196580497
2810+198229714+199945416+201815403+203787123+205787442+207774654+209658680
2797+211368213+212948347+214415218+215688753+216791686+217850476+218878516
2783+219806257+220628893+221377910+222065840+222682051+223224445+223705590
2770+224112292+224447274+224748745+225006038+225190284+225369618+225602974
2756+225804971+225932362+226102068+226376680+226697516+227060504+227496449
2743+227964255+228444630+229003250+229656343+230321305+230975921+231648216
2729+232305594+232939824+233593526+234320131+235200178+236254109+237397617
2716+238551632+239645456+240596685+241402360+242101353+242766871+243530249
2702+244440275+245443483+246459815+247438763+248405734+249382764+250331178
2689+251206779+252019160+252816587+253616793+254387487+255104392+255814716
2675+256566566+257342477+258120701+258868840+259557182+260222771+260883197
2662+261496037+262032747+262512799+262996509+263495603+263981984+264470768
2648+264954191+265404551+265858211+266352033+266831350+267228530+267551768
2635+267839792+268155679+268554832+268987084+269372323+269747773+270180293
2621+270634598+271078414+271538097+272011372+272466825+272888981+273261849
2608+273576158+273885841+274222688+274541085+274839652+275170708+275543092
2594+275904592+276218058+276511264+276826272+277171744+277522145+277847983
2581+278145474+278430110+278724786+279038431+279328571+279565065+279787090
2567+280002982+280184808+280356540+280534905+280690500+280812817+280904277
2554+280959142+280989587+281022021+281100984+281267480+281527588+281871266
2540+282280334+282743173+283271761+283864968+284468915+285046039+285612190
2527+286157560+286669993+287168441+287645930+288085586+288515201+288968431
2513+289418127+289841486+290292240+290800084+291319205+291841141+292387443
2500+292954760+293570630+294244180+294939766+295633272+296313116+296975353
2486+297614872+298263213+298952739+299648755+300345955+301072004+301792709
2473+302480962+303193277+303967019+304751232+305484345+306169370+306868488
2459+307627599+308424578+309155217+309736572+310252125+310818420+311421936
2446+311977903+312441137+312866503+313306393+313724479+314090175+314400325
2432+314646178+314849215+315038195+315207273+315346695+315481096+315649708
2419+315856187+316089956+316363098+316724132+317225915+317827280+318449587
2405+319078923+319726475+320391527+321030329+321632375+322218356+322806920
2392+323378880+323859792+324166679+324326828+324471664+324680295+324896206
2378+325050330+325137469+325091138+324816490+324485542+324360428+324326218
2365+324247757+324162125+324363476+325384111+327271651+329075639+329426094
2351+328284218+327615150+328935535+331153306+332270691+332287831+332332297
2338+332743678+333340453+333856437+334357359+334978698+335573680+336109099
2324+336863871+337869983+338690522+339079742+339366224+339890024+340545000
2311+341129116+341672424+342270741+342888960+343478599+344038152+344557578
2297+345069079+345600553+346108397+346565104+346979103+347351935+347681771
2284+347993714+348318422+348660666+348982254+349229219+349409091+349574260
2270+349731755+349839693+349894558+349938342+350003176+350099280+350264485
2257+350588369+351126155+351846573+352681958+353550907+354361692+355030043
2243+355641986+356271609+356893055+357466665+357997350+358514947+359025659
2230+359521992+360017356+360515840+361005825+361484192+361945166+362395527
2216+362845600+363290438+363740189+364201522+364673291+365163670+365670617
2203+366175054+366677912+367205658+367739499+368236118+368716278+369230002
2189+369769043+370290549+370774295+371222324+371683944+372228400+372835252
2176+373423026+373970028+374513193+375074108+375634019+376179049+376726840
2162+377263909+377758412+378249114+378776931+379273837+379667970+380014015
2149+380381611+380772875+381182212+381590115+381979514+382369128+382806149
2135+383343146+383975493+384654674+385382121+386203807+387109118+388029776
2122+388934370+389834338+390715981+391545198+392335363+393110611+393841429
2108+394516557+395178202+395828946+396431028+396993163+397573371+398196072
2095+398804932+399350356+399906358+400554413+401266584+401965845+402634949
2081+403307388+403990799+404676040+405349662+406025471+406731977+407427581
2068+408070328+408703859+409357292+410051425+410771199+411454503+412099294
2054+412737953+413379803+414040838+414742825+415443844+416079814+416673720
2041+417273973+417883765+418491011+419064155+419600399+420142918+420727393
2027+421345756+421978139+422610594+423242942+423924059+424633576+425251186
2014+425818448+426430033+427078625+427710363+428248579+428713176+429185877
2000+429691389+430166062+430566614+431032071+431597182+432036856+432419514
1987+432848968+433282582+433721109+434110185+434447480+434814933+435254177
1973+435706330+436115380+436583168+437153694+437694851+438225716+438761028
1960+439248969+439699078+440107662+440462206+440774937+440983066+440976073
1946+440779706+440627554+440452273+440031030+439464019+438665103+437595054
1933+436460995+435458684+434793059+434708430+435475287+436956072+438803880
1919+441187932+443663210+445792229+447839308+449820657+451647021+453276910
1906+454755902+456114872+457349446+458481138+459565173+460632604+461533217
1892+462376276+463370016+464212501+464963401+465845905+466729735+467603203
1879+468470933+469301835+470009272+470525327+471216377+472147184+472945203
1865+473782990+474720646+475541902+476268847+477008272+477762900+478476004
1852+479120866+479683503+480175461+481119213+482198586+482663756+483230194
1838+484145760+484906665+485433800+486118360+487016463+487563321+488183871
1825+489076810+489782634+490514313+491313407+491967056+492506240+493199657
1811+494013167+494679438+495252366+495801125+496417085+497160310+497778206
1798+498132248+498546032+499428715+500294688+500622050+501057206+501800825
1784+502358191+502828632+503365558+503595454+503634576+504083861+504849068
1771+505288814+505778441+506227797+506613252+507373690+507968241+508439472
1757+509208624+509775779+510478088+511593572+512476793+513162321+513877396
1744+514596166+515394113+515917878+515872444+516650776+517949358+518216584
1730+518447089+519059463+519550452+519727061+519372194+519129999+519575554
1717+519843999+519702389+519628196+519599114+519472278+519182497+518358050
1703+517553720+517648998+517127923+516555748+516533192+515649003+514605812
1690+513398599+511936605+511284857+510501397+508649071+507049734+506036952
1676+505196619+503707300+502195173+501645052+500975840+499994902+499728860
1663+499764038+499207210+498186360+497431373+498233946+499289544+498328507
1649+498148349+499713763+500833657+501229905+501760950+502532397+504282487
1636+506819265+508604605+510170987+512421175+514782635+517108666+519771347
1622+521930918+523636041+526444562+529813425+532347729+534796113+537501645
1609+539982662+542165828+544263972+546316753+548169294+549836477+551455895
1595+553023389+554442280+555735484+556967942+558138756+559198371+560000298
1582+560359360+560627590+561774845+562921598+562733120+562902270+563955358
1568+564383199+564237465+563645567+563107996+564049956+564806162+564187907
1555+564230114+564622956+564737814+564449395+563815542+563074253+562522194
1541+562854756+562850238+561685304+561295188+561406173+560530841+559447057
1528+558550604+557236852+555982556+555114109+553653011+552169393+550860483
1514+549029278+546662331+544085965+542217466+540043013+536241253+532316316
1501+528661544+524164324+518125465+510438822+501872796+492424050+482165703
1487+473166457+466792346+462376204+458599725+454840423+451150509+447077794
1474+441662641+434165731+425663535+417682952+409531462+399804661+389023194
1460+379282731+372746535+370989273+373850974+379491182+385921521+392539332
1447+399126198+405031767+409539494+412192206+413600770+414164805+413466117
1433+412318934+411387481+410313846+409195673+408473999+408030774+408120639
1420+408972052+409758273+410493000+411649543+413135779+414894942+417122180
1406+420083248+423451860+426802040+429812882+430756741+428238503+423753188
1393+419592617+415147357+407485207+396033095+384616447+377697594+377542394
1379+384327455+396670355+413213020+432793314+454103079+475829317+495230205
1366+509650163+518860729+523644145+525455591+526130755+526518397+526560819
1352+526046270+524870937+523133218+521265472+519649711+518381538+517372342
1339+516475315+515935521+516092442+516980540+518567219+520818447+523609218
1325+526858310+530636331+535015968+539856113+544925258+550295300+556123377
1312+562276843+568577083+574941404+581294966+587532416+593462513+598918439
1298+603858956+608233967+611908927+614778840+616791064+617773401+617315259
1285+615018597+610822597+605212941+599253654+594496058+592700390+595099897
1271+601569250+610674426+620668488+630272254+638819957+646136026+652281066
1258+657384958+661580815+664845040+667213278+669432698+672265891+674726431
1244+675061862+674254663+674935349+676640113+677472701+678102825+680051649
1231+683654317+688493351+693932530+699462076+704767715+709742872+714430076
1217+718825742+722790161+726208726+729146987+731795862+734326113+736702383
1204+738842483+740853129+742834585+744659550+746226614+747656693+749063392
1190+750384674+751425677+752080904+752492285+752836250+753087482+753055638
1177+752672156+752003877+750952331+749313047+747057408+744349293+741344692
1163+738105066+734756069+731660743+729147919+727155920+725479198+724035277
1150+722670820+721072272+718989190+716338020+713115249+709306819+704893080
1136+699998320+694830884+689462348+683951378+678538519+673371513+668079430
1123+661987893+654620831+645563062+634107292+619373168+600501316+576677043
1109+547142025+511116891+468374148+420246194+369474062+319433036+273892852
1096+236681878+210656992+197043910+195818320+205805228+224438990+248356015
1082+274127768+298438602+318176158+330675478+334724848+332261475+327364205
1069+322381302+316207396+303752435+277176656+233531561+180204435+129756197
1055+91410294+67895937+58195403+61128684+77167348+108333286+156195467+219376605
1040+292430152+368176018+440312492+504034913+556533610+596990055+628205094
1026+653627736+669244722+668561598+655173642+643572282+648398693+672298021
1013+706057081+739932040+769902034+795611553+817650917+836531626+852198099
999+864458988+873718502+880779037+886100023+889519735+890850699+890280747
986+888023172+883795974+876504002+864094941+843346020+810368699+764378800
972+714997661+683014869+685523318+720531008+771076794+820784039+861839446
959+893116809+916111113+932716676+944626571+953300356+959861295+964921869
945+968727860+971596124+973976410+975941228+977280798+978107648+978723429
932+979132730+979053552+978321012+977030068+975316769+973083077+970070156
918+966136074+961211479+955275716+948356540+940470375+931732546+922480346
905+913137709+903527057+892306311+877255834+855728186+824536958+780724883
891+723493080+654917246+580320088+509159496+455071036+435200531+463855591
878+538823501+637333721+731940448+807019343+860074940+895165896+917228999
864+929902417+936273300+939931334+944366733+950917774+958256077+964507834
851+969014306+971898850+973243441+973316021+972724266+971865788+970561575
837+968573090+966161821+963728104+961216356+958296383+954964742+951485575
824+947830911+943554227+938348206+932286074+925280118+916815466+906377463
810+894189297+881613991+871212421+866068365+867760578+874796154+883494395
797+890660930+895115263+897053114+897290791+896751176+895705511+893914684
783+891535904+889029248+886571648+884005609+880994051+877594850+874374446
770+871633842+869085805+866366430+863396755+860107285+856298856+852136707
756+848568823+846567572+845903740+845405435+844415855+843083743+841543360
743+839798720+837714490+835188326+832629890+830363206+828133243+825726635
729+823290695+820967855+818672699+816026765+813693096+811375349+809001732
716+806863784+804878096+802907541+800997230+799144008+797319042+795555827
702+793869137+792182589+790470295+788839258+787361342+785951917+784556119
689+783323984+782380734+781560841+780690816+779804583+778954424+777898934
675+775846045+773438218+774896914+780165187+780088591+774418547+772498913
662+774881781+777027618+777932498+778489039+779122964+780037957+781166673
648+782211692+783275933+784682704+786321629+787862659+789275884+790746557
635+792417254+794335741+796482223+798781109+801129409+803522461+805724311
621+807712652+809908190+812721732+815980219+819247815+822294086+825222737
608+828298699+831514370+834746823+838173277+841806569+845350498+848835618
594+852624899+856761229+860692657+864264772+867899355+871768100+875726208
581+879595312+883445985+887325130+890953401+894391545+897886992+901625281
567+905420084+908839437+912005264+915487873+919512823+923829025+928190696
554+932437043+936478775+940314099+944259513+948365147+952139438+955738376
540+959622613+963817824+967978897+971625816+974785904+977919816+981249592
527+984260146+986485950+988930640+992155420+995318305+998007128+1000714740
513+1003785109+1006698412+1009139803+1011179782+1013041109+1015369112
501+1017627907+1019329587+1020745107+1021359669+1021186252+1021094523
490+1021372004+1021486755+1021168609+1021081183+1021968564+1023710622
478+1025079310+1025094658+1024418705+1023325562+1021297058+1018949260
467+1016887550+1016341265+1017872541+1019753088+1020801192+1019925716
455+1017358960+1014721489+1011223316+1006323679+1000477063+993976871+986854801
442+978780947+970550172+963644910+958397005+955367158+956118846+961218651
428+970033220+981606466+994520573+1007447518+1020887183+1032757633+1041311790
415+1048695419+1053629122+1055570129+1058251564+1062460259+1065152237
403+1066526591+1069324426+1073741823
##END=
