##TITLE=38
##JCAMP-DX=4.24
##DATA TYPE=INFRARED SPECTRUM
##DATE=16/11/2015
##SAMPLING PROCEDURE=Instrument type and / or accessory
##ORIGIN=Default
##XUNITS=1/CM
##YUNITS=TRANSMITTANCE
##RESOLUTION=4
##FIRSTX=3996.3359
##LASTX=399.24785
##DELTAX=-1.9287336
##MAXY=0.89898252
##MINY=0.021497464
##XFACTOR=1
##YFACTOR=8.3724272e-010
##NPOINTS=1866
##FIRSTY=0.096452318
##XYDATA=(X++(Y..Y))
3996+115202337+115316787+115346331+115327625+115303856+115321797+115443579
3983+115670582+115884201+115998669+116073046+116180705+116334399+116516187
3969+116672248+116797127+116957682+117141534+117271574+117334196+117389352
3956+117486626+117600835+117699658+117764585+117817462+117923689+118082509
3942+118288822+118488336+118594661+118629412+118612219+118594964+118680687
3929+118883761+119132451+119342289+119479671+119520348+119506065+119550159
3915+119717121+119896115+119986377+120032438+120072688+120101200+120152903
3902+120227627+120303384+120440312+120563296+120560688+120522948+120655925
3888+120808079+120791207+120845490+120961657+121021947+121127774+121221355
3875+121299595+121412763+121430267+121458841+121513935+121470819+121477894
3861+121570568+121707754+121817967+121786874+121758309+121896145+121967674
3848+121964266+121979172+122026399+122109194+122162828+122233780+122441908
3834+122644831+122704205+122695902+122662718+122678772+122798641+122911808
3821+123103385+123269395+123146394+123078744+123181874+123218537+123169949
3807+123167885+123330949+123395538+123359942+123469684+123559803+123609450
3794+123674324+123689594+123710543+123746637+123740425+123754975+123834932
3780+123899761+123950040+123972181+123961671+123968835+123990797+124063564
3767+124133349+124189876+124255950+124281633+124333505+124436376+124515942
3753+124510567+124510798+124635081+124693334+124467345+124346088+124410329
3740+124286821+124101990+124093046+124206686+124253094+124267038+124249935
3726+124220799+124206232+124143459+124073762+124013774+123918111+123725083
3713+123480852+123321436+123186056+122961233+122663376+122307979+121871575
3699+121301855+120632093+120017817+119432382+118751265+118081539+117696713
3686+117549907+117395323+117254737+117131727+116859766+116526643+116497997
3672+116487372+116246504+116090550+115961836+115717693+115436086+115175516
3659+114929433+114760389+114749212+114660987+114378090+114163785+114035365
3645+113808326+113465956+113113264+112801774+112525969+112231272+111882771
3632+111466905+110957698+110517352+110089455+109542899+108985300+108472711
3618+108020111+107532920+106897766+106232908+105607588+104960599+104280950
3605+103543396+102769197+102033271+101327602+100567018+99755229+99002129
3591+98296300+97483559+96556938+95633387+94752480+93947819+93237790+92547196
3576+91786852+90926813+89985589+89025001+88126723+87308393+86486246+85635142
3560+84785746+83887744+82932246+81990479+81090012+80201995+79233122+78144415
3545+77070054+76157120+75374395+74544368+73592856+72664825+71836195+71013314
3530+70152407+69250436+68265078+67256480+66383595+65630757+64840967+63964091
3514+63060011+62179998+61314295+60464650+59616465+58725400+57869512+57089670
3499+56281112+55448548+54707003+54068904+53410146+52640676+51855397+51163384
3483+50458912+49655301+48888100+48218842+47540519+46795931+45989281+45150079
3468+44380618+43762648+43206562+42596410+41976184+41423955+40900172+40330390
3452+39738650+39149442+38528068+37912506+37350737+36826124+36308301+35733086
3437+35125214+34605631+34165545+33709458+33248088+32865386+32573370+32283666
3422+31923860+31540560+31188508+30814639+30398715+29997288+29643184+29357774
3406+29111287+28758577+28257824+27882985+27826837+27831004+27603491+27259168
3391+27085841+27070818+27017050+26883539+26715280+26547506+26427797+26369872
3375+26329152+26216579+25985573+25743032+25676501+25832473+26048004+26182791
3360+26270170+26337782+26332883+26228390+26129765+26251474+26589656+26883212
3344+27033887+27155872+27287632+27418526+27612245+27876110+28143946+28383531
3329+28585325+28784902+29054344+29383657+29691169+29991110+30357249+30734219
3314+31030212+31266997+31473960+31686182+32045266+32597506+33165588+33602333
3298+33945167+34295100+34686961+35142111+35705377+36307800+36847373+37353936
3283+37878814+38413178+38918852+39384543+39864259+40391206+40998061+41732584
3267+42504737+43184693+43799739+44446150+45128966+45797344+46513198+47369370
3252+48279693+49094743+49829333+50617513+51486972+52368542+53285930+54235208
3236+55087647+55890977+56879949+58057311+59220857+60331277+61420669+62428604
3221+63393557+64437048+65558249+66732211+67989753+69283251+70537816+71746138
3206+72919371+74088572+75288271+76514644+77781935+79127972+80525863+81889040
3190+83171414+84417490+85683819+86975964+88301098+89675336+91071928+92441441
3175+93763113+95051280+96335132+97646570+98998213+100360251+101703734+103027489
3159+104319385+105564108+106763241+107970250+109283753+110686450+112045408
3146+113322568+114574792+115795950+116961748+118129655+119340616+120552199
3132+121710059+122814125+123927196+125070533+126171236+127175090+128122766
3119+129109144+130185854+131305920+132372112+133325599+134236407+135224208
3105+136246057+137144610+137902356+138666446+139527072+140427174+141261300
3092+141988896+142666853+143342070+144041981+144803687+145556582+146208306
3078+146820126+147482653+148158146+148751261+149242198+149684315+150146563
3065+150655244+151158587+151600010+151953654+152216138+152450714+152708517
3051+152944054+153117423+153221701+153219405+153115590+153005208+152924049
3038+152753706+152404066+151963870+151516663+151008871+150348729+149491831
3024+148478018+147387968+146214891+144851260+143251256+141474091+139558682
3011+137485289+135183638+132545642+129519714+126120992+122316940+118029186
2997+113215958+107794611+101492874+94079008+85779438+77027713+67985121+58834429
2982+50151640+42755287+37351694+34267961+33575747+35265918+39071705+44396965
2966+50668175+57526836+64668234+71740322+78327378+83952537+88143382+90657655
2951+91605438+91190311+89599873+87139242+84293945+81664884+79716068+78592211
2936+78124357+77975496+77984270+78336686+79270506+80805103+82795140+84995005
2920+87119923+88912456+90141650+90676192+90570641+89975337+88971207+87613983
2905+85993298+84313897+83056689+82488527+82217821+81831829+81342644+80808013
2889+80116485+79215546+78262309+77498850+77241083+77909510+79738315+82609748
2874+86316810+90711316+95588314+100727858+105978425+111183127+116175873
2860+120859729+125232032+129342065+133240944+136958204+140484813+143791485
2847+146868724+149728721+152368221+154813011+157157404+159418467+161546206
2833+163616635+165722038+167830662+169902462+171916614+173829354+175620215
2820+177306761+178896505+180387577+181832535+183304760+184835664+186461021
2806+188207049+190010243+191782095+193503454+195165369+196736727+198215448
2793+199595604+200831597+201905273+202845838+203693285+204495276+205248252
2779+205913146+206509091+207057693+207538770+207960385+208350746+208685044
2766+208958277+209219551+209453237+209656115+209873908+210071661+210217194
2752+210363457+210566104+210840654+211191682+211612051+212066663+212536296
2739+213031416+213581638+214199207+214826690+215418559+215997649+216586101
2725+217206838+217909766+218734699+219696177+220765848+221855632+222854806
2712+223697928+224408883+225029727+225617449+226296403+227107311+227999591
2698+228949038+229896509+230802795+231688010+232536346+233337359+234090228
2685+234782014+235464599+236168346+236816563+237413736+238081139+238822440
2671+239539125+240233991+240936207+241568922+242109961+242643328+243179632
2658+243687531+244178788+244652284+245106967+245557129+246023256+246506860
2644+246971617+247413948+247833106+248212113+248584107+248947237+249268827
2631+249577087+249901293+250252019+250640921+251042459+251431272+251837491
2617+252285500+252751823+253197322+253602011+253987602+254351124+254661893
2604+254964636+255300001+255627233+255942292+256272354+256590207+256872606
2590+257150751+257458103+257782755+258111642+258444552+258760678+259038931
2577+259261547+259471366+259748319+260057219+260305180+260505282+260731030
2563+260965517+261155741+261304051+261402207+261459480+261516149+261572426
2550+261640912+261789258+262020630+262265512+262548196+262932897+263395233
2536+263898611+264443173+265030486+265633622+266173841+266615888+267051473
2523+267523669+267967246+268386173+268822649+269270337+269702079+270110380
2509+270546215+271029268+271521327+272029955+272577614+273164553+273794919
2496+274435875+275044759+275641700+276245512+276829532+277417059+278068177
2482+278754838+279413823+280063784+280747989+281453248+282141101+282809252
2469+283482760+284162266+284842306+285534093+286227819+286921510+287620434
2455+288297929+288922119+289463851+289954343+290465268+290981211+291450791
2442+291861531+292230268+292596442+292978634+293344274+293640911+293870344
2428+294075963+294254351+294392089+294528866+294695081+294882030+295107138
2415+295419402+295827828+296294952+296821307+297434053+298086595+298717086
2401+299327731+299909545+300461208+300998420+301545777+302104453+302620271
2388+303020297+303278936+303416870+303489307+303567369+303652300+303657106
2374+303529317+303318056+303076147+302801347+302498961+302242493+302313863
2361+302953057+303909765+304884769+305889674+306936333+307821280+308358955
2347+308630195+308908198+309436262+310182527+310948122+311609492+312118512
2334+312510208+312890905+313350376+313853202+314283199+314658236+315157254
2320+315871519+316657617+317346146+317896742+318352511+318842202+319477800
2307+320188542+320837275+321412717+321969364+322522665+323073617+323619265
2293+324131524+324584231+324992729+325391437+325788900+326169953+326529826
2280+326875355+327180624+327411570+327600975+327792623+327950917+328032717
2266+328075894+328136585+328221481+328341012+328572135+328986648+329563229
2253+330250548+331016000+331790885+332524443+333190156+333823654+334408137
2239+334946168+335477756+336035577+336591797+337102526+337599621+338101629
2226+338565584+338998429+339460320+339952218+340436321+340913839+341385554
2212+341824878+342235796+342669353+343138612+343620045+344102190+344590315
2199+345118094+345668405+346176678+346651846+347149831+347674050+348182216
2185+348662653+349149674+349694254+350301946+350894082+351421149+351912727
2172+352388251+352878726+353422985+353978387+354509583+355032236+355534991
2158+356020660+356494653+356946613+357395975+357839356+358252054+358644106
2145+359013519+359347514+359680727+360060890+360528013+361099077+361738128
2131+362425305+363180399+363990844+364816417+365648433+366513731+367393161
2118+368232332+369037082+369828270+370592084+371321478+372000574+372606095
2104+373156797+373706005+374284223+374883549+375490707+376080636+376642729
2091+377230167+377872066+378505635+379094461+379673605+380280299+380929994
2077+381599836+382258643+382924782+383616693+384302518+384939184+385522991
2064+386130184+386798744+387509521+388229588+388917477+389580841+390236444
2050+390887491+391538111+392197666+392839778+393396141+393903737+394446252
2037+395029632+395644407+396250817+396828074+397417220+398041997+398665280
2023+399271405+399884685+400483727+401086577+401761117+402410278+402964682
2010+403515990+404086448+404628537+405134068+405655547+406221342+406771012
1996+407242763+407621823+408011882+408553045+409051991+409426352+409797367
1983+410195791+410627924+411070166+411513191+411965934+412429854+412897939
1969+413340395+413809583+414396451+414976200+415490559+416006662+416489270
1956+416904210+417284801+417612175+417825501+417914775+417907549+417719354
1942+417475665+417297152+416864201+416085044+415125382+414178355+413407564
1929+412920791+412890001+413471992+414839369+416811163+418816096+421036669
1915+423383251+425336677+427008433+428629359+430251282+431717793+432948162
1902+434060032+435154994+436202899+437165196+438148174+439033513+439761731
1888+440695872+441650658+442400626+443168997+443959864+444728057+445520918
1875+446366603+447156936+447671545+448294542+449406733+450415162+451060799
1861+451679988+452428069+453253286+454036394+454710365+455369741+456120101
1848+456918763+457396779+457997779+459144035+459972527+460454743+461118534
1834+461902033+462512536+463132152+464149979+464930274+465499664+466351792
1821+467045519+467520901+468132543+468902480+469565238+470182612+470963263
1807+471757904+472423118+472907435+473401611+474220030+475152889+475729932
1794+475931120+476490721+477586146+478273572+478468495+478857023+479449195
1780+480061442+480782151+481332924+481505991+481822224+482683892+483323263
1767+483776505+484192762+484403560+484988720+485767556+486397779+487277102
1753+487969832+488490812+489555447+490760365+491640293+492279486+492804809
1740+493537940+494432605+494411283+494430754+495654893+496524214+496753380
1726+496927158+497142905+497521964+497556955+497174692+497440699+498134070
1713+498421755+498290869+497934911+497562971+497590201+497468535+496559276
1699+496410272+496309144+495618942+495400597+494721465+493698833+492641353
1686+490881105+489621441+489519851+488861400+487352957+485687536+484766210
1672+484016314+482780570+482214561+482100441+481331002+480587655+480649129
1659+480961162+480771899+479676118+479638173+481617619+482110870+481363537
1645+481929723+483200956+484044648+484752257+485463247+487008603+489782512
1632+492054450+493495439+495295340+497521715+499766457+502392359+504787850
1618+506411943+508806793+512202988+514859787+516844751+518944263+521135967
1605+523219389+525192357+527075375+528787177+530331394+531827307+533281787
1591+534584309+535740318+536821469+537823811+538774682+539757232+540537848
1578+540771285+541496123+543036602+543483472+543182652+543774076+544581922
1564+545073749+544891891+543707547+543998650+545775948+546085133+545585546
1551+545240836+545148465+545070510+544780013+544368775+543741612+543971419
1537+544771968+544041970+542733646+542373452+541852437+540809836+539965575
1524+538918702+537503128+536679548+535667880+534184390+532792309+531229796
1510+529152924+526011808+523106123+521486230+519012393+514762824+509467594
1497+503617994+497467823+489969639+480405227+470560639+462572124+456847251
1483+452553793+448955485+445768059+442553367+438590701+433014263+426223119
1470+419170951+411527465+402968028+393980624+384867530+375646545+368382618
1456+366886277+370911165+376561179+382113091+387868861+394107487+399967303
1443+404454758+407255756+408237452+408188864+408267495+407870851+406650521
1429+405488958+404745718+404286283+404250331+404347081+404633093+405944051
1416+407638873+408982116+410426345+412343000+414697876+417431171+420707550
1402+424079148+426579468+427406501+425389786+421370771+417723412+413239231
1389+405100217+394068474+383778049+377450184+377238318+383632783+395274531
1375+410682456+429177428+449505547+469840074+488092602+501748324+510035275
1362+514416442+516425540+517077228+517242285+517232568+516790575+515642468
1348+513962204+512272649+510935351+509781442+508599661+507801781+507625191
1335+507929214+508768670+510264904+512398267+515057914+518217646+521890918
1321+526014442+530543082+535453807+540638762+546105992+551968015+558050019
1308+564132665+570162130+576053591+581694350+586947934+591705668+595900312
1294+599467617+602320050+604315764+605264962+604917404+602927813+599153234
1281+594041500+588624282+584392191+582955723+585384887+591664840+600566459
1267+610363917+619760781+628111768+635263178+641331976+646426874+650632945
1254+653962362+656437623+658663570+661211589+663264754+663579777+663046196
1240+663668838+665087971+665938853+666813726+668892023+672394293+676955325
1227+682050436+687203996+692076918+696584628+700816541+704788035+708332451
1213+711325559+713914940+716323067+718641208+720827715+722836671+724726452
1200+726578074+728353521+729957041+731401447+732751809+733996238+734993632
1186+735663688+736117178+736478618+736750000+736792858+736503820+735914211
1173+734988720+733566668+731551376+729065508+726335026+723460736+720520310
1159+717792106+715542950+713765153+712324662+711113764+709968007+708589097
1146+706722667+704329561+701440108+697982190+693896718+689369075+684663453
1132+679798433+674790246+669901662+665229358+660383132+654818655+648173916
1119+640009237+629505202+615774479+598118322+575845925+548112492+513935827
1105+472960472+426428329+377011075+328069202+283276429+246393968+220483947
1092+207053119+206134765+216463812+235454454+259828089+286151324+310933884
1078+330947906+343557717+347563917+344919861+340005470+335471313+329770930
1065+317208212+290144799+245971215+191862951+140138884+100243541+75438770
1051+65139259+68326200+85363288+117956206+167260773+231463329+304776024
1038+379729312+450023288+511433763+561900844+601095626+631430009+655510993
1024+669746179+668607541+655542958+644265213+648704649+671292674+703323980
1011+735530488+763916143+788122140+808813052+826500390+841132398+852534373
997+861091816+867569540+872400744+875467535+876616140+875951425+873634779
984+869501466+862589189+850943241+831474404+800363677+756738963+709766891
970+679351990+681828105+715233195+763391533+810724332+849816919+879697597
957+901809137+917852590+929350531+937708709+944121008+949228293+953185050
943+956176023+958580092+960553096+962004621+963021735+963788967+964262178
930+964263174+963748602+962751563+961327162+959462298+956900041+953438136
916+949117163+943902877+937644352+930395197+922420670+914083280+905742829
903+897130283+886859116+872796711+852482261+822920734+781211145+726348339
889+660153753+587830176+518585421+465741395+446287936+474291684+547334367
876+642962264+734437911+806770280+857762399+891327456+912195066+924064840
862+929931241+933165903+937292239+943558309+950483116+956418501+960824122
849+963574681+964711895+964714458+964235481+963586000+962516489+960752432
835+958549479+956304880+954017921+951375075+948337259+945192512+941855976
822+937815710+932854012+927146582+920586348+912623710+902811657+891315852
808+879341568+869435187+864628401+866362771+873125688+881458308+888455018
795+892921080+894884616+895139410+894671753+893822152+892344855+890314044
781+888056630+885613690+882948633+880005643+876909165+874067054+871590370
768+869164730+866520674+863621539+860449597+856872077+853039122+849830445
754+848078705+847460121+846967689+846119583+845018036+843587583+841669753
741+839457474+837214013+835050928+832989077+830941749+828840030+826707344
727+824490651+822173080+819739751+817388649+815207481+813261245+811420444
714+809490155+807460554+805468542+803690104+802194867+800827206+799350550
700+797728947+796165366+794821127+793621620+792398833+791110478+789889258
687+788843026+787990507+787374130+786867531+786183522+785352716+784606201
673+783779595+782689937+781948263+782303224+783164927+783875989+784437619
660+784994124+785667098+786413186+787140835+787978974+789031328+790158647
646+791296787+792617604+794225467+795891065+797306212+798564523+800029789
633+801897500+804110135+806431479+808634574+810775519+812879800+814825253
619+816987627+819799339+823070236+826338144+829360583+832247901+835317896
606+838600327+841811424+845102398+848793611+852443604+855733225+859199829
592+863101769+867010330+870588063+874148284+877988928+881775680+885359821
579+889072107+892947492+896875916+900525624+903909432+907664788+911691029
565+915066436+917820625+920982956+924836344+928954208+933288423+937745587
552+941847362+945649562+949632163+953661963+957418957+961078062+964796471
538+968573826+972378091+975884419+979025962+982163660+985226750+988132079
525+991252051+994247223+996802574+999233839+1001902313+1005004487+1008063447
511+1010684010+1012949896+1015189299+1017576353+1019668176+1021531758
500+1023176284+1024253840+1024662124+1024615422+1024945466+1025707288
488+1026039966+1025729998+1025470148+1026116426+1027530860+1028711502
476+1028879656+1027821536+1026331923+1024977289+1022897854+1020884199
465+1020708285+1022333375+1024204718+1024640553+1024099781+1022943416
453+1020629761+1017748993+1013504692+1007262542+999915285+992511786+985483253
440+977689767+969380142+963793239+962264257+964060777+969696446+978717275
426+989371382+1001029789+1013026925+1023861859+1035203606+1046398057+1053459836
413+1057257124+1060066202+1062252283+1063665365+1065632887+1069264868
401+1072439800+1073741823
##END=
