##TITLE=10
##JCAMP-DX=4.24
##DATA TYPE=INFRARED SPECTRUM
##DATE=16/11/2015
##SAMPLING PROCEDURE=Instrument type and / or accessory
##ORIGIN=Default
##XUNITS=1/CM
##YUNITS=TRANSMITTANCE
##RESOLUTION=4
##FIRSTX=3996.3359
##LASTX=399.24785
##DELTAX=-1.9287336
##MAXY=0.58453119
##MINY=0.0043032337
##XFACTOR=1
##YFACTOR=5.4438709e-010
##NPOINTS=1866
##FIRSTY=0.025609432
##XYDATA=(X++(Y..Y))
3996+47042687+47123053+47139846+47087688+47117038+47223112+47218391+47107635
3981+47065704+47155988+47336807+47546052+47691094+47705745+47666733+47685401
3965+47754803+47852379+47963802+48049351+48114664+48161615+48179031+48192710
3950+48191659+48200378+48297286+48400709+48417050+48406406+48396408+48380714
3935+48371400+48382346+48454954+48574325+48650766+48655950+48661212+48720449
3919+48804287+48840737+48848733+48876964+48891184+48878651+48876985+48875332
3904+48857851+48824597+48757539+48703981+48698698+48695414+48671446+48706003
3888+48757539+48714095+48702178+48765939+48758048+48700707+48689292+48741622
3873+48808489+48741553+48609358+48581610+48594184+48562986+48465561+48395053
3857+48467498+48538645+48422474+48266417+48176440+48144500+48170891+48213711
3842+48240252+48248827+48247530+48255677+48219874+48124269+48079741+48114192
3827+48179954+48236923+48146868+47978802+47960517+47981272+47952993+47944932
3811+47963295+47952357+47879717+47843209+47810373+47773731+47867649+47931728
3796+47804053+47624271+47535318+47550698+47609309+47619013+47556190+47450779
3780+47320017+47257513+47311905+47389680+47382023+47268643+47163995+47106455
3765+47050427+47028707+47046383+47028947+46951267+46888602+46844638+46781059
3749+46808880+46953125+46931511+46745954+46655786+46632896+46590718+46527564
3734+46437187+46320735+46260673+46243076+46211163+46140375+45988352+45772138
3719+45590156+45543000+45568227+45467918+45184142+44844232+44569683+44374628
3703+44161859+43870155+43510804+43082242+42641482+42235830+41785835+41207252
3688+40639867+40270067+40055751+39932795+39928241+39926817+39749985+39593049
3672+39567832+39489900+39382905+39278014+39070384+38777736+38550555+38392620
3657+38182650+38015850+37983609+37886293+37543889+37044302+36584460+36240147
3641+35983483+35745408+35475072+35171718+34880955+34618119+34299713+33964559
3626+33709958+33486381+33218686+32889496+32574128+32301852+31987703+31657681
3611+31375937+31074609+30706166+30318950+29969617+29672415+29372547+28990912
3595+28543259+28134172+27790974+27421806+27000027+26611170+26279186+25956504
3580+25623040+25278427+24914977+24557155+24276640+24080838+23831900+23436132
3564+23005067+22650061+22333361+21994958+21675848+21392609+21082086+20771855
3549+20484041+20113356+19667005+19304778+19076977+18888161+18634841+18299578
3533+17958091+17679120+17471145+17294620+17066959+16765492+16482585+16276996
3518+16107289+15923871+15705169+15476604+15301895+15172691+15012063+14785899
3503+14508345+14214372+13959799+13780821+13661328+13551385+13401549+13210021
3487+13006814+12809183+12651135+12546952+12441517+12280591+12073431+11887175
3472+11767867+11677166+11548505+11379442+11232323+11124551+11018754+10915730
3456+10808860+10664678+10497854+10348118+10231303+10123687+10008099+9921851
3441+9894297+9881864+9799492+9659508+9558582+9468953+9341363+9259608+9237925
3424+9192458+9100762+8982636+8865120+8793810+8801353+8820741+8752487+8635653
3406+8542219+8461263+8378210+8326656+8338323+8359989+8325925+8246408+8165194
3389+8114733+8099333+8094071+8071498+8072237+8126039+8162161+8152266+8113778
3371+8025353+7922097+7904731+7998279+8109441+8157264+8165684+8187112+8204365
3354+8181615+8144924+8133915+8162480+8227463+8313523+8398825+8463925+8522338
3337+8600468+8691724+8763345+8799097+8846584+8965555+9112320+9191021+9198339
3319+9202831+9250758+9329042+9395726+9451803+9530846+9647769+9795140+9949602
3302+10065479+10119002+10175340+10315198+10519192+10707558+10847358+10948448
3287+11027872+11136345+11312478+11518881+11707357+11889206+12074251+12237657
3271+12379436+12520870+12703602+12947071+13167169+13313786+13462728+13643546
3256+13819492+14017041+14272001+14562075+14849461+15118441+15384500+15647863
3240+15896158+16137269+16378373+16638158+16941710+17284417+17614277+17888195
3225+18170591+18534801+18926407+19281828+19634477+20004864+20346175+20676120
3209+21068330+21476986+21823491+22155598+22551563+23018016+23499535+23923656
3194+24258627+24581739+25002435+25481888+25924076+26331805+26732572+27139079
3179+27565877+28004920+28455452+28928848+29401042+29856491+30327247+30814667
3163+31251041+31598222+31928893+32316835+32741408+33180775+33622901+34019006
3148+34379237+34761923+35160495+35553795+35959046+36379985+36784487+37145884
3132+37496884+37865713+38213297+38524196+38836689+39173458+39522524+39846038
3117+40115102+40351298+40601680+40893387+41205613+41490707+41741684+41965200
3101+42158144+42349412+42539780+42702094+42875741+43108892+43367150+43563841
3086+43651255+43702975+43828272+43993930+44104302+44180510+44279338+44367289
3071+44393881+44384051+44373153+44338011+44288292+44280618+44290112+44249180
3055+44164720+44072851+43977903+43859767+43695208+43493789+43293587+43108146
3040+42899507+42625524+42284488+41899294+41503462+41125590+40756255+40353347
3024+39878433+39315353+38672660+37976509+37250334+36495900+35703002+34875402
3009+33991072+32973686+31802296+30541022+29225031+27842807+26369288+24786159
2993+23069630+21208885+19252403+17293828+15410500+13635201+12011453+10644026
2978+9628638+9010630+8774235+8823166+9055921+9405679+9839793+10419098+11285205
2961+12508163+13951418+15325030+16385565+17051807+17303222+17117619+16564131
2945+15778320+14915480+14197918+13842936+13919213+14317014+14867277+15483365
2930+16172215+16957928+17833033+18779939+19794800+20821216+21731362+22424783
2914+22879075+23144300+23253498+23163039+22924917+22689634+22473559+22219329
2899+21950100+21672158+21318471+20838578+20241832+19543130+18715858+17784914
2883+16922218+16406136+16506180+17313805+18689022+20421720+22380221+24523359
2868+26822028+29161647+31409705+33564532+35658097+37653344+39579808+41537140
2853+43549341+45585879+47613918+49551358+51295131+52806667+54121461+55316402
2837+56472552+57611496+58706260+59796850+60940078+62077899+63136108+64110954
2822+65006400+65841086+66655995+67461769+68238439+68979498+69721022+70508730
2806+71342725+72178287+72969198+73718017+74443925+75116765+75696998+76171498
2791+76535146+76812757+77070276+77331607+77524390+77606904+77658118+77734487
2775+77799469+77828114+77792858+77672660+77541833+77471698+77453345+77442396
2760+77407107+77373315+77350384+77303769+77250112+77205639+77118978+77002659
2745+76951911+76976806+77035896+77157060+77380124+77681152+78003660+78327988
2729+78651242+78943825+79205656+79491273+79833899+80248577+80766715+81359252
2714+81949543+82479089+82887724+83171110+83408046+83664018+83963294+84302691
2698+84636250+84922675+85157762+85356711+85546881+85704272+85779005+85799042
2683+85813604+85825840+85843344+85902886+86048007+86321663+86716023+87136702
2667+87500631+87821422+88137415+88419959+88650982+88866019+89068589+89259627
2652+89450994+89640199+89851534+90088250+90307770+90488359+90627055+90717103
2637+90781031+90856613+90948919+91058005+91175179+91257810+91295433+91330216
2621+91390141+91467420+91532977+91556285+91542551+91521590+91518388+91540258
2606+91550701+91509656+91432733+91371870+91356487+91360265+91336553+91264434
2590+91171334+91103053+91044593+90979337+90965788+91022065+91088094+91134744
2575+91174947+91222650+91290807+91370940+91421038+91418937+91401980+91410349
2559+91431597+91440541+91438659+91434026+91412751+91347769+91268998+91257563
2544+91334206+91458477+91614561+91799967+91969238+92109699+92287380+92507132
2529+92726310+92959447+93193590+93389138+93564623+93748667+93943778+94140688
2513+94324206+94491807+94658450+94847798+95071197+95312895+95568006+95840566
2498+96097866+96313266+96526716+96772267+97008750+97201527+97349755+97466772
2482+97613152+97818445+98038581+98246097+98456639+98671094+98858424+99023732
2467+99220287+99480468+99773523+100049259+100312102+100586797+100839718
2453+101005067+101110861+101257139+101448349+101629910+101783031+101906145
2440+102021944+102147843+102259474+102359944+102477180+102555828+102544434
2426+102508912+102512436+102548636+102579587+102579348+102579820+102618210
2413+102683807+102765432+102875202+103014383+103184215+103382104+103568366
2399+103716218+103840960+103966983+104127453+104329742+104538744+104722070
2386+104873904+104992194+105064779+105078882+105006537+104820248+104582580
2372+104398782+104217686+103944770+103667940+103557533+103652057+103722233
2359+103634730+103636982+103859033+104275716+104932324+105567438+105715488
2345+105407098+105207738+105396826+105730187+105975498+106088361+106174160
2332+106357007+106681521+107076777+107412931+107644124+107797040+107905756
2318+108026407+108193501+108355546+108488213+108637255+108843315+109103940
2305+109363841+109543671+109643662+109745987+109891498+110053474+110189022
2291+110265979+110305751+110365964+110462848+110550994+110583136+110567123
2278+110538204+110518312+110507712+110484438+110437700+110385405+110340651
2264+110305478+110279447+110248139+110233222+110307681+110493006+110721784
2251+110928356+111117390+111259795+111382402+111485774+111589098+111717009
2237+111900246+112119800+112303530+112440139+112563602+112679059+112802453
2224+112923815+112998905+113059842+113160374+113264724+113317211+113336769
2210+113368828+113399841+113403359+113420802+113509249+113649422+113800798
2197+113994855+114261633+114547626+114778628+114947256+115109067+115300318
2183+115498877+115677769+115848381+116012424+116157237+116318214+116505865
2170+116674288+116829708+116984923+117099011+117173436+117262369+117399628
2156+117574318+117729492+117829374+117917253+118021555+118117167+118211738
2143+118317451+118411488+118504910+118626922+118765386+118917220+119124046
2129+119394457+119662077+119880070+120074729+120282485+120499671+120698121
2116+120880558+121074806+121272201+121455295+121648558+121864485+122073596
2102+122264422+122439414+122597284+122774123+122968727+123149658+123290078
2089+123406753+123544778+123696654+123803652+123870797+123942622+123996614
2075+124003799+123988840+123975140+123981668+124032786+124123936+124252819
2062+124434380+124669604+124929614+125204378+125521035+125849641+126135997
2048+126390436+126613809+126765753+126851893+126934243+127036876+127146092
2035+127279901+127452977+127667015+127928216+128219526+128504541+128766932
2021+129037782+129344571+129653441+129937922+130198699+130435100+130652806
2008+130846999+131015243+131179286+131344506+131476331+131570725+131690698
1994+131821975+131883098+131943030+132065466+132197210+132274249+132304701
1981+132353547+132424386+132492927+132586349+132734597+132910588+133049079
1967+133140954+133237209+133327962+133390508+133427638+133443952+133444965
1954+133410229+133306639+133126570+132881779+132609862+132290590+131922993
1940+131595729+131301914+131015832+130772670+130623217+130598540+130735512
1927+131104286+131696610+132497950+133505896+134515183+135439206+136280797
1913+136994859+137618853+138167560+138643319+139063019+139439239+139754117
1900+140016152+140267485+140508691+140789997+141100700+141310208+141489730
1886+141705999+141892309+142068861+142263971+142451814+142602252+142774014
1873+143054088+143319915+143486147+143665792+143838949+143987212+144183759
1859+144411661+144602967+144745577+144862292+144988055+145151358+145368845
1846+145459243+145427860+145538349+145695548+145814303+145985545+146258338
1832+146545310+146747058+146986306+147190681+147308711+147472548+147624027
1819+147743672+147909370+148129554+148311073+148417785+148518310+148645044
1805+148806198+148962618+149060624+149141127+149280370+149461014+149519604
1792+149477656+149526447+149572666+149539148+149571639+149664828+149697196
1778+149754295+149919569+150023844+149938607+149840272+149736831+149709103
1765+149788264+149792082+149828830+149939113+149998662+150161801+150399763
1751+150560958+150703308+150812565+150874331+150920275+150900978+150897953
1738+151114715+151166955+150909778+150780321+150680247+150487915+150295624
1724+150152850+150196591+150294119+150108630+149736941+149377583+149057422
1711+148798958+148575860+148317766+148196383+148179631+147790082+147290618
1697+146738038+145963318+145383490+144923839+144538751+144270091+143671075
1684+142741728+142019467+141509780+141069879+140571168+140200451+139969168
1670+139588678+139304156+139342464+139424362+139468541+139687670+140195770
1657+140923355+141388452+141625743+142295230+142895561+143084895+143325772
1643+143812042+144461630+145332495+146210313+146948778+147764776+148601111
1630+149398482+150319698+151294551+152090020+152857212+153666408+154221547
1616+154656877+155271044+155851434+156303174+156721738+157110015+157418666
1603+157649100+157870077+158106465+158310157+158458747+158565965+158621052
1589+158617918+158577804+158501845+158401936+158398953+158521266+158408683
1576+158065420+157958326+157825529+157396371+156985649+156692354+156638294
1562+156788267+156465793+155712916+155114310+154453965+153759884+153143048
1549+152647540+152285759+151994600+151628426+150748952+149549864+148693753
1535+147814621+146656044+145617318+144708364+143744282+142813485+141813477
1522+140500862+139146505+137773466+136292279+134880728+133624405+132427726
1508+130653846+128093381+125640817+123556192+121317174+118507538+115106111
1495+111582145+107977499+103760239+99006939+94452972+90535214+87166203+84227321
1479+81793110+79810325+77847035+75238182+72030442+69189909+67251932+65920027
1464+64662322+63295599+62301743+62903552+66183808+71357369+76702679+81380753
1448+85162901+87941470+89681463+90629977+91289527+91971120+92724031+93502549
1433+94071915+94376117+94650840+95044051+95559561+96262935+97119957+98061799
1418+99207634+100484979+101762310+103071619+104436090+105793582+107015990
1404+108077928+108938317+109394813+109277331+108270712+106209676+103499490
1391+100336107+96606849+92943010+90672862+90824512+93901111+99637523+106837550
1375+114190232+121074190+127375581+133108011+138057372+141634954+143474007
1362+143866281+143431621+142656217+141802309+140942242+140031111+139065305
1348+138342538+138432278+139604103+141380665+143036720+144429713+145853473
1335+147536244+149556803+151920133+154616817+157599310+160795170+164134161
1321+167548576+170968369+174311575+177504602+180525238+183361316+185897543
1308+188004641+189649076+190894943+191898674+192799567+193666203+194541229
1294+195454727+196379188+197213566+197819097+198047711+197727619+196692163
1281+194963010+192937989+191424722+191376409+193336175+197117023+201982146
1267+207096303+211845175+215859620+218986118+221248567+222680895+223239222
1254+222898929+221674317+219571641+216636502+212980581+208802367+204582767
1240+201072152+198976059+198915210+201389110+206420520+213362097+221139201
1227+228735716+235420909+240801741+244946300+248154177+250631212+252517578
1213+253951835+255048016+255900884+256567374+257087476+257506000+257791165
1200+257878017+257862005+257772962+257569887+257240898+256819720+256308732
1186+255681604+254954102+254176644+253352545+252407842+251288668+249992806
1173+248512974+246850513+244969348+242777588+240258482+237507778+234679118
1159+231922092+229276430+226705084+224141374+221392382+218235992+214592183
1146+210513742+206142417+201647341+197194734+192965621+189114029+185662784
1132+182477052+179436708+176518923+173633466+170574960+167119965+163027154
1119+158028235+151850279+144214799+134885696+123824469+111313944+97963512
1105+84801374+73164671+64015609+57417419+52857334+49945800+48717462+49423789
1090+52208331+56854971+62595880+68116057+71805708+72185117+68371592+60627321
1074+50855209+42168730+37291540+36802081+38488273+38733978+35363588+29241902
1059+22857754+18001281+15129874+14138570+15187732+19003982+27041898+41563924
1043+65003799+98332135+139328723+182634265+221972662+252755499+272800800
1030+280938138+275799470+255825282+220888484+176286080+134512378+109607106
1016+108980491+130801328+167018236+209047980+251946426+293540648+331681409
1003+363643570+387281302+401993072+408581928+408435732+402860256+392804963
989+378770578+360834043+338796280+312254093+280440646+242468773+198642882
976+152168223+109572795+78240910+62951857+65660209+87854631+130585183+191587902
961+263705867+336801820+401640735+452949518+489884115+514556085+530215759
947+539796853+545285942+547926062+548584531+547846572+546033755+543310972
934+539782400+535515049+530552658+524938149+518623892+511432570+503190423
920+493762669+482978341+470712676+457121832+442731606+428419200+415510448
907+405668222+399998010+397465929+394328974+386043415+369679833+344474485
893+311574300+274377421+238491158+209540737+190255251+181891612+189134572
880+218910201+271223358+334505580+393032482+436741137+463291864+474649479
866+473681537+463101298+447217225+434147825+433112164+446620891+467642482
853+486732187+499433895+506235325+509085007+509480209+508271719+505998882
839+503039765+499625392+495902531+491973995+487891407+483592304+479076083
825+474460117+469722508+464695574+459261393+453375404+446878848+439525344
812+431270579+422433411+413809283+406875234+403387721+403984329+407293100
798+410921471+413173341+413617047+412596359+410635293+408029526+404934725
785+401556483+397954061+394050406+389877626+385404900+380454936+375192791
771+370330994+366663426+364336638+362503073+359775061+355149706+348685121
758+341763115+337058217+336972705+341116717+346484903+350404735+352233482
744+352562142+352010315+350856899+349287176+347603994+345971561+344281537
731+342464368+340630775+338910340+337364924+335930913+334195779+332431685
717+330845265+329336911+327906486+326627677+325455838+324285560+323061468
704+321822458+320693704+319738792+318852393+317908703+316970707+316233268
690+315746916+315368602+314966995+314505278+314052074+313698204+313434882
677+313324544+313600320+314083607+313754755+312797626+313582391+315834152
663+317021811+317196255+317691284+318811279+320199989+321627704+323113859
650+324744266+326508552+328310283+330152142+332199540+334554111+337088217
636+339689960+342414413+345287088+348186122+351037502+353969164+357226283
623+360653659+364062723+367776249+371971912+376204337+380146231+384066336
609+388443889+393274618+398076798+402639662+407211339+412002707+417073136
596+422492864+428047456+433361773+438510213+443936921+449756723+455606444
582+461371802+467229105+473177119+479190718+485409226+491735417+498043214
569+504248529+510280577+516438099+522867484+529320957+535627276+541854214
555+548247358+554902292+561576988+568040205+574552199+581367151+588082578
542+594388185+600439940+606367699+612394711+618623292+624797347+630984049
528+637415405+643959206+650439613+656655274+662837815+669117583+675042167
515+680403920+685252277+689823462+694314938+698687837+702586264+705518008
501+707513454+708428074+708290336+707483892+705782644+702843072+698698896
488+693716523+688687837+685199448+685338500+689605468+695788611+700611841
474+701594618+698270026+692434730+686813706+684725140+689359610+702600662
461+723522618+748515173+773646178+794000760+807324039+815908176+821082100
447+823535704+824534960+824243937+822327543+819291674+816622650+816578033
434+820461897+828277145+840404635+857163638+878059700+901088562+923449264
420+944328246+964969088+981961523+993041417+1003321601+1015144601+1026206430
407+1036014166+1046595993+1058010707+1067281726+1073741823
##END=
