##TITLE=10
##JCAMP-DX=4.24
##DATA TYPE=INFRARED SPECTRUM
##DATE=16/11/2015
##SAMPLING PROCEDURE=Instrument type and / or accessory
##ORIGIN=Default
##XUNITS=1/CM
##YUNITS=TRANSMITTANCE
##RESOLUTION=4
##FIRSTX=3996.3359
##LASTX=399.24785
##DELTAX=-1.9287336
##MAXY=0.56626028
##MINY=0.0041519133
##XFACTOR=1
##YFACTOR=5.2737098e-010
##NPOINTS=1866
##FIRSTY=0.025181843
##XYDATA=(X++(Y..Y))
3996+47749770+47721468+47681296+47702449+47800602+47905903+47948142+47936596
3981+47976591+48100185+48216725+48306627+48439470+48588854+48667362+48700350
3965+48751115+48799559+48784291+48709371+48665751+48690327+48759507+48877686
3950+49008209+49090966+49141437+49176873+49183577+49195515+49233331+49258811
3935+49251129+49222160+49201558+49215520+49262781+49358595+49514414+49635327
3919+49602593+49470378+49398284+49426483+49498418+49594296+49672409+49643846
3904+49546961+49491008+49449109+49406725+49448586+49549854+49572289+49520224
3888+49509395+49515979+49517434+49547180+49521845+49465875+49515453+49617773
3873+49655332+49592597+49484552+49461096+49501964+49459164+49307471+49161086
3857+49140780+49212249+49197126+49076559+48997285+49002120+49060090+49147926
3842+49239043+49266369+49179007+49041656+48948872+48922492+48939152+48944199
3827+48905924+48879395+48879318+48855442+48827190+48777364+48683136+48634579
3811+48673684+48718734+48686509+48670982+48762096+48810907+48711829+48540491
3796+48405490+48386887+48422033+48408976+48383005+48394445+48387876+48315404
3780+48215524+48133713+48061531+47994431+47978446+48047234+48148014+48143543
3765+47987947+47834837+47786417+47784471+47784259+47794467+47827338+47841343
3749+47813355+47809265+47756308+47571166+47419053+47392757+47393994+47345316
3734+47232068+47073311+46935123+46845687+46772015+46701047+46612943+46474724
3719+46340771+46300846+46297766+46153861+45843085+45501691+45202408+44973290
3703+44776791+44507427+44110588+43590958+43038911+42572313+42134197+41592149
3688+41049286+40695014+40503311+40392690+40377987+40406394+40321642+40148375
3672+40011092+39831641+39583868+39398430+39288601+39171054+39018492+38845748
3657+38649177+38485557+38406512+38259964+37897241+37448133+37082626+36783491
3641+36456080+36100682+35807297+35588115+35401392+35240547+35021393+34663551
3626+34263802+33925668+33673734+33452447+33164279+32817626+32471686+32138507
3611+31779654+31347729+30892204+30483297+30117292+29800628+29510170+29172011
3595+28799403+28478681+28202715+27828726+27286985+26754301+26405652+26176373
3580+25903657+25527235+25122446+24787068+24526474+24280841+23988531+23635001
3564+23275627+22891173+22435619+22014378+21699452+21392290+21054140+20767088
3549+20538342+20291605+20012253+19727312+19408714+19041874+18672247+18339828
3533+18069645+17849557+17611668+17315437+17004408+16741748+16539783+16372453
3518+16210457+16038623+15836177+15586965+15307816+15009464+14702575+14426390
3503+14234695+14127466+13995131+13764947+13522943+13357135+13226518+13082163
3487+12938637+12795466+12652426+12527123+12404554+12256051+12093867+11968628
3472+11869619+11725745+11554227+11412743+11263647+11080583+10941813+10869605
3456+10777865+10654194+10536372+10382573+10206366+10119384+10095818+9977602
3441+9770932+9619172+9527436+9419450+9336136+9343836+9360016+9254890+9075477
3424+8981575+8987706+8973608+8907628+8819099+8688982+8558866+8500277+8472507
3406+8413878+8314183+8191839+8122790+8139013+8141060+8062270+7979741+7977828
3389+8033920+8064390+8033034+7999212+8016023+8033335+7992540+7928936+7900518
3371+7910036+7917965+7891843+7872851+7897909+7921101+7952022+8027387+8075528
3354+8060979+8047382+8061811+8110058+8192559+8265996+8323913+8395634+8454964
3337+8474336+8517452+8635005+8734945+8746639+8764947+8850291+8930895+8998395
3319+9112687+9238317+9334138+9425193+9481446+9477408+9493827+9600285+9770300
3302+9940892+10071774+10147894+10185576+10255353+10411167+10619617+10829406
3287+11028228+11200811+11329069+11432223+11528112+11643996+11825460+12026644
3271+12178933+12311692+12465155+12638296+12809987+12969083+13171705+13468991
3256+13782300+14021630+14215466+14393634+14559207+14755311+15003251+15294608
3240+15641235+16010775+16307476+16521078+16786157+17177189+17564910+17833569
3225+18060038+18350122+18716056+19129839+19544784+19906685+20238707+20594104
3209+20926047+21225925+21594916+22034542+22452202+22868523+23356671+23831933
3194+24189975+24514812+24912500+25357832+25800611+26255432+26730201+27193601
3179+27628219+28036256+28453536+28917683+29421815+29920838+30340581+30686284
3163+31058576+31489933+31933241+32372078+32824616+33291267+33734010+34124732
3148+34512723+34941925+35370078+35761682+36127192+36482425+36833825+37175756
3132+37530374+37917832+38289961+38627149+38983850+39356177+39676935+39925848
3117+40159903+40460542+40822796+41156939+41425371+41679353+41960867+42241035
3101+42493872+42745382+42984304+43152598+43271769+43426557+43613361+43759891
3086+43880546+44045940+44211662+44292275+44340585+44428297+44520672+44574732
3071+44576522+44548468+44567643+44643424+44675887+44618076+44536336+44477925
3055+44409122+44304075+44178112+44030936+43860724+43698004+43537258+43328259
3040+43078632+42823403+42531226+42163028+41738488+41295318+40838104+40337101
3024+39789642+39232365+38651042+37991222+37249856+36445399+35571822+34632533
3009+33644331+32609548+31510647+30320131+29010620+27573260+26021998+24380877
2993+22634399+20774816+18850916+16918049+15004591+13177104+11537934+10188332
2978+9238175+8702159+8483189+8502268+8710460+9077491+9584310+10256892+11225832
2961+12542714+14030803+15433346+16543053+17201886+17342931+17056863+16490337
2945+15708773+14829527+14123639+13784295+13816895+14176645+14767579+15432755
2930+16092020+16804666+17658019+18624566+19612871+20574291+21441590+22123009
2914+22584153+22818265+22831693+22699687+22518237+22308824+22046219+21753097
2899+21493611+21269057+20971370+20512859+19954523+19333083+18548620+17620076
2883+16792893+16357171+16503330+17285911+18626046+20356423+22330445+24458903
2868+26684245+28944988+31172040+33348555+35457242+37475325+39447658+41444376
2853+43518101+45624419+47635208+49494830+51198488+52737699+54150261+55464523
2837+56665267+57799763+58953791+60114462+61220738+62280194+63319158+64341197
2822+65351615+66308455+67153543+67903537+68604063+69310707+70093965+70945001
2806+71811775+72701713+73608334+74470885+75232549+75882589+76453111+76936451
2791+77331767+77693876+78006997+78217197+78335186+78423244+78543146+78672161
2775+78744969+78751920+78704818+78613701+78521114+78456331+78383714+78283520
2760+78210239+78190235+78166782+78096610+78020397+77999170+78007951+77983573
2745+77928164+77886198+77921326+78078540+78334726+78648639+78987055+79310850
2729+79603662+79879465+80146621+80440161+80829727+81319855+81865216+82432150
2714+82984094+83488243+83922983+84296917+84640321+84966934+85281426+85590521
2698+85896415+86177551+86416113+86647752+86885367+87070321+87188069+87264111
2683+87300399+87325595+87357906+87437954+87674933+88067897+88490537+88854920
2667+89160490+89451600+89735060+89988576+90212713+90419840+90631545+90850321
2652+91061256+91289356+91540406+91764614+91942101+92081479+92201339+92322647
2637+92417282+92479148+92576714+92726398+92857786+92944736+93020531+93087398
2621+93131978+93161223+93187529+93220143+93250532+93265111+93259171+93224310
2606+93187712+93200590+93225427+93195575+93139586+93086911+93012069+92918486
2590+92861283+92872020+92888387+92850786+92803515+92799043+92812655+92827673
2575+92893078+92994882+93043221+93032109+93027214+93063501+93125140+93178035
2559+93206071+93193137+93129640+93052983+93012874+93006206+92993413+92972186
2544+93000505+93120104+93290238+93458704+93628047+93817430+94032822+94251096
2529+94445968+94644583+94875410+95099943+95288937+95475537+95674463+95870754
2513+96065209+96249237+96412992+96601111+96875903+97199429+97486548+97740121
2498+97975482+98184023+98391461+98607644+98836669+99084668+99303331+99466175
2482+99608286+99772811+100007968+100303062+100567061+100762731+100947861
2469+101171292+101429117+101695023+101935894+102156069+102401899+102682442
2455+102961501+103185807+103326365+103444155+103611096+103800344+103959960
2442+104086135+104181879+104275603+104410022+104553814+104646938+104682631
2428+104698822+104721264+104722309+104690458+104667762+104668150+104673759
2415+104702212+104787106+104924605+105076394+105225675+105405232+105608411
2401+105781094+105933830+106094540+106269209+106470304+106692400+106886254
2388+107026183+107144029+107241935+107272055+107226246+107138223+107008375
2374+106814965+106574468+106332205+106090394+105797546+105523453+105492923
2361+105783623+106171445+106421274+106563561+106706669+106954979+107349398
2347+107677537+107678497+107508667+107586999+107944135+108298912+108519750
2334+108709126+108953565+109222148+109481237+109734831+109983360+110219852
2320+110461098+110735304+111007920+111207504+111343660+111490575+111670619
2307+111847245+111996307+112137719+112302463+112475691+112614101+112712359
2293+112798193+112893845+112995791+113074285+113114160+113132972+113151952
2280+113180137+113203151+113197288+113158437+113094728+113016029+112933742
2266+112869093+112843296+112834042+112805942+112787364+112844807+113003561
2253+113228355+113476093+113726133+113897503+114050641+114203751+114338000
2239+114481482+114629619+114756232+114912062+115092064+115215745+115286532
2226+115369116+115498280+115643358+115745311+115813739+115902334+116020626
2212+116127884+116184861+116182735+116140627+116118129+116178165+116336855
2199+116554910+116771680+116980347+117203707+117440263+117683303+117927636
2185+118150961+118325446+118478181+118646373+118805649+118952592+119120388
2172+119306083+119480561+119625272+119751334+119881494+120011554+120124491
2158+120226536+120342186+120486078+120639152+120760679+120839696+120909007
2145+121005655+121110879+121169580+121200336+121293805+121487568+121724688
2131+121955169+122204298+122477247+122723777+122933136+123131589+123346670
2118+123605209+123881294+124113145+124287905+124452254+124657418+124892857
2104+125106667+125295866+125472223+125608697+125753832+125957512+126196893
2091+126410647+126571110+126697384+126821935+126925788+126974896+126992118
2077+127014044+127041565+127081193+127136970+127176570+127210279+127307068
2064+127486406+127693011+127894600+128128161+128410956+128712514+129019369
2050+129325928+129599018+129810680+129968911+130092699+130199929+130293257
2037+130370649+130471818+130635997+130869119+131169052+131502397+131810566
2023+132081636+132364870+132686149+132995237+133244564+133468744+133718876
2010+133972823+134185036+134349950+134469414+134560341+134670862+134808961
1996+134956229+135115803+135257476+135343415+135397468+135459291+135541571
1983+135632003+135707121+135773140+135866765+135988193+136100042+136201466
1969+136326143+136471547+136592353+136665182+136710546+136753862+136783785
1956+136754907+136647112+136490223+136297718+136054014+135787098+135495614
1942+135107001+134664731+134292224+133995244+133728342+133514376+133408658
1929+133480286+133842890+134529500+135441179+136497203+137601854+138596435
1915+139434594+140190091+140907344+141554962+142074228+142492891+142888158
1902+143265525+143598898+143901303+144188591+144481418+144797216+145064768
1888+145236901+145374802+145525023+145719407+145956542+146176144+146347245
1875+146498399+146703336+146982741+147239782+147421734+147585503+147768246
1861+147964551+148155827+148327621+148480427+148625336+148784881+148953100
1848+149145379+149338082+149383715+149319871+149352563+149507615+149718416
1834+149997835+150350874+150666955+150891248+151077551+151204051+151278476
1821+151386723+151544064+151711365+151876420+152045840+152195397+152302556
1807+152382618+152480552+152646243+152840062+152963765+153054691+153232772
1794+153415642+153408196+153285737+153250813+153304668+153371323+153409680
1780+153379531+153340199+153435364+153633619+153707804+153596505+153447683
1767+153370998+153412180+153477126+153495732+153567600+153686923+153833895
1753+154093817+154394555+154567762+154599761+154587710+154616785+154674144
1740+154709308+154836713+155054252+155028822+154722574+154433407+154227367
1726+154056789+153917404+153904986+154059882+154090031+153716168+153131815
1713+152648645+152358064+152207434+152056295+151892342+151841694+151701207
1699+151234200+150597107+149835733+149071646+148489737+148053641+147777499
1686+147449283+146689095+145739497+145042602+144599653+144188931+143782856
1672+143552771+143390259+143122142+142966878+143067227+143230559+143355688
1659+143634839+144287571+145131140+145637183+145865149+146308691+146852992
1645+147231870+147601651+148176411+149057066+150161760+151141550+151841143
1632+152527697+153352519+154242936+155134441+155938171+156607502+157297588
1618+158060629+158690884+159150715+159611944+160098349+160535124+160907009
1605+161234336+161511594+161741170+161954937+162145606+162270877+162329196
1591+162354951+162353948+162317174+162250180+162159409+162097473+162151299
1578+162173748+161885838+161490232+161272961+161006582+160527551+160034125
1564+159769554+159864704+159939963+159380672+158435312+157598580+156887967
1551+156231887+155623630+155151381+154859910+154586891+153905692+152633782
1537+151406488+150511465+149542031+148415891+147364587+146335223+145280852
1524+144247462+143027175+141575122+140082098+138531645+136963970+135563950
1510+134336133+132743141+130225302+127416431+125054352+122787818+119990122
1497+116491003+112727921+108971295+104765674+99968651+95285228+91288635
1483+87949803+85056342+82587894+80533517+78520613+75904303+72648536+69709456
1468+67724206+66355896+64961576+63414980+62395067+63135115+66428336+71380603
1452+76539962+81166131+84967168+87784981+89580488+90571785+91221726+91944440
1437+92758207+93426853+93889686+94224628+94507056+94844216+95323960+95996774
1421+96891889+97940989+99035695+100191997+101467128+102834343+104213434
1408+105536253+106765779+107875410+108816864+109411835+109308546+108175852
1394+106010925+103220710+100032515+96290914+92449677+89895142+89868998+92894907
1379+98658073+106003127+113679123+120986908+127765359+134040664+139413134
1366+143215724+145199095+145637621+145180503+144427309+143621757+142762943
1352+141790782+140729037+139894114+139856562+140876701+142531375+144170112
1339+145562970+146912131+148491913+150447183+152794726+155488201+158461420
1325+161676422+165077516+168572587+172093526+175576221+178971169+182239009
1312+185274051+187944343+190202654+192062393+193560319+194790848+195873545
1298+196898148+197900118+198883327+199826045+200649751+201209098+201302864
1285+200750652+199469940+197557039+195415593+193825681+193743302+195798484
1271+199861449+205106189+210584815+215661590+219997914+223442464+225944960
1258+227503989+228134766+227833830+226604699+224520018+221685661+218145479
1244+214008710+209779404+206277919+204185313+204068335+206484580+211523422
1231+218524726+226358946+233933767+240555895+245961946+250203896+253481145
1217+256003773+257946964+259440921+260585751+261463284+262136925+262646853
1204+263031128+263319504+263468016+263494322+263402491+263195010+262864081
1190+262436942+261904975+261223479+260423931+259558266+258609416+257553280
1177+256368439+255001210+253420113+251612634+249549384+247210248+244573976
1163+241668118+238628414+235629566+232796975+230117543+227437616+224580301
1150+221400746+217762207+213598708+209041256+204345168+199729623+195375272
1136+191392722+187753943+184372459+181172319+178083563+175008044+171737506
1123+168005399+163600089+158326500+151915964+144032112+134417212+123051202
1109+110226400+96608514+83262701+71429181+62006193+55120299+50282174+47089635
1094+45604548+46062864+48601544+53101394+58905456+64733977+68958162+70055113
1078+67030554+59950382+50572359+42052704+37236244+36709720+38192684+38129883
1063+34543889+28372197+22009967+17161742+14264662+13196175+13987868+17200477
1047+24239767+37383141+59120205+90814465+131070398+175151696+216686645
1034+250502190+273738713+284692234+281785444+263352761+228888695+183508814
1020+140329320+114499714+114197309+137488591+175664760+219551165+263942822
1007+306705687+345835679+378675842+402987885+418082908+424853024+424819061
993+419329995+409279550+395097097+376860790+354376317+327116711+294176043
980+254660589+208875820+160089053+115156960+82000765+65927068+69205603+93342913
964+139011961+203208165+278003720+352750097+418117606+469193765+505672255
951+529993170+545442687+554848284+560154339+562689766+563353659+562606413
937+560664069+557744083+554040797+549639824+544552580+538756631+532204958
924+524803076+516341384+506586944+495442274+482868607+468931073+454073566
910+439158955+425481767+414796815+408320867+404904035+400682881+391130101
897+373339752+346552636+311896488+272787688+234860803+203721950+182199352
883+171844157+177841201+207858111+262550869+330216346+393951023+442279555
870+472247371+485900711+486305726+476417920+460812064+447842989+446933076
856+460646656+481824451+500910572+513526848+520248902+522991103+523221725
843+521789112+519240178+515998644+512302817+508260633+503998791+499612342
829+495076534+490319202+485285022+480071985+474766834+469162034+462954146
816+455947898+448051600+439206283+429579925+420049071+412411368+408705736
802+409623618+413606352+417986217+420883712+421752372+420865176+418844169
789+416221262+413217216+409827114+406026657+401896740+397539563+392866094
775+387686822+382215020+377204688+373494310+371184842+369274710+366377837
762+361643562+355127208+348101097+343262813+343042843+347000006+352182866
748+355980752+357642772+357656928+356746902+355442992+353976896+352297301
735+350415792+348560956+346778680+344956818+343124134+341406479+339868699
721+338178338+336422142+334725142+333093440+331549754+330127143+328784552
708+327449025+326120646+324827446+323561003+322361188+321309601+320366119
694+319433149+318553864+317816931+317185193+316602818+316097693+315730484
681+315534052+315417921+315259153+315123216+315116208+315178455+315469770
667+316386409+317505159+318235565+318799998+319606892+320714171+321973945
654+323295034+324691339+326227565+327927165+329759284+331741722+333941502
640+336376114+338973591+341638683+344364214+347243399+350254735+353253526
627+356277662+359612665+363122429+366696701+370513801+374559234+378580169
613+382525295+386611500+391135865+396071744+401030199+405806857+410583685
600+415628602+421011257+426539881+431922056+437256734+442840145+448515952
586+454010669+459472468+465238043+471390521+477778481+484244088+490671944
573+496930663+503063193+509207647+515399457+521866250+528613394+535201686
559+541531722+547848535+554198293+560733295+567674612+574649892+581311874
546+587730689+594035917+600440830+606897282+613233252+619566622+626057658
532+632626002+639090873+645484880+651937489+658311942+664304042+670252006
519+676641153+682912079+688332625+693266441+698327915+703224547+707412021
505+710951086+714005059+716300484+717538586+717755872+717059937+715425240
492+712516387+708157798+702918991+698116168+695626741+696738879+700944493
478+706196919+710302451+711621308+708692619+702053354+695620920+693645856
465+698453031+711087730+731062940+755448786+779243865+797466835+809253245
451+816739724+821338090+823312532+822887908+820513932+816522665+812036643
438+809101060+809242282+813057630+821103795+834444770+853261559+875659231
424+898950965+921472114+943918498+965873971+982927895+994878527+1006064789
411+1017443076+1027488379+1036594015+1045862516+1055144693+1064198678
399+1073741823
##END=
