##TITLE=10
##JCAMP-DX=4.24
##DATA TYPE=INFRARED SPECTRUM
##DATE=16/11/2015
##SAMPLING PROCEDURE=Instrument type and / or accessory
##ORIGIN=Default
##XUNITS=1/CM
##YUNITS=TRANSMITTANCE
##RESOLUTION=4
##FIRSTX=3996.3359
##LASTX=399.24785
##DELTAX=-1.9287336
##MAXY=0.57499504
##MINY=0.0041840114
##XFACTOR=1
##YFACTOR=5.3550586e-010
##NPOINTS=1866
##FIRSTY=0.025398167
##XYDATA=(X++(Y..Y))
3996+47428364+47477912+47567680+47655326+47672046+47661260+47741337+47897940
3981+47970922+47921975+47860604+47863814+47985579+48231216+48460894+48540756
3965+48522801+48515413+48542001+48580468+48624336+48694295+48776904+48831600
3950+48845614+48836313+48857785+48926224+48987817+49006770+48981264+48939872
3935+48934022+48970812+49009828+49025501+49040910+49093957+49164240+49187951
3919+49165189+49169993+49214275+49216303+49184688+49233854+49362054+49449296
3904+49431418+49331650+49237440+49218223+49232459+49222223+49196591+49210056
3888+49272296+49302623+49295528+49313044+49313712+49317761+49388770+49425216
3873+49344300+49195882+49064246+49036826+49074994+49042743+48928784+48851524
3857+48871827+48872818+48727714+48579775+48584415+48677439+48766181+48806762
3842+48803673+48820981+48883371+48920370+48877775+48798177+48737339+48674948
3827+48605459+48587967+48580704+48543817+48602885+48699721+48642131+48524387
3811+48522867+48594544+48611216+48604440+48624176+48552238+48409642+48337464
3796+48300274+48252333+48211637+48150847+48076811+48049183+48057743+48044700
3780+48007798+47972671+47937071+47901686+47882510+47848284+47751330+47630470
3765+47551847+47514211+47468058+47399890+47400677+47561488+47775929+47782649
3749+47568654+47409748+47336356+47224459+47161798+47217238+47260947+47160835
3734+46960516+46780758+46666597+46602277+46552259+46496693+46419976+46291199
3719+46122693+45977663+45866232+45707650+45499940+45330805+45176970+44978384
3703+44688591+44271418+43821821+43445502+43069971+42574346+41988014+41425811
3688+40947477+40578503+40330383+40187821+40146972+40158214+40096391+39969277
3672+39874827+39760722+39591232+39419446+39230756+39006969+38803173+38639992
3657+38455445+38257231+38088878+37857853+37503099+37136936+36839573+36570788
3641+36271968+35953795+35676203+35440271+35211824+35013029+34813058+34519167
3626+34181703+33895409+33631612+33310033+32935574+32596062+32296379+31964634
3611+31586902+31209420+30875852+30569839+30226859+29838873+29447214+29038146
3595+28585933+28172483+27889155+27651531+27313103+26891435+26498150+26171320
3580+25857760+25490314+25076992+24658774+24249959+23873531+23553229+23284178
3564+23017132+22702298+22387461+22117820+21815729+21412037+20994696+20690598
3549+20442702+20129657+19783026+19471629+19172600+18871347+18622317+18419632
3533+18158520+17811761+17481726+17249714+17059707+16821801+16560592+16323012
3518+16114706+15944264+15757616+15503734+15247500+15050165+14866589+14641445
3503+14411616+14213866+14021450+13825588+13631717+13454559+13310152+13150004
3487+12954056+12800319+12670120+12458856+12229191+12083372+11963941+11819991
3472+11661920+11475865+11323693+11289123+11297371+11222835+11043116+10840450
3456+10707388+10630385+10539920+10415232+10274109+10134701+10001460+9871854
3441+9766627+9683115+9566600+9431054+9339709+9278598+9206586+9120808+9035599
3424+8964942+8911189+8884467+8900492+8900815+8809036+8659616+8527947+8440430
3406+8385905+8326945+8236080+8150297+8129025+8156358+8161916+8113395+8068005
3389+8090658+8149675+8177443+8144912+8063924+7973333+7907813+7891430+7911900
3371+7900843+7839950+7813194+7877191+7994454+8078613+8069435+8013601+8020102
3354+8110789+8161447+8099065+8057494+8138695+8256630+8328043+8376466+8443160
3337+8530047+8615806+8696665+8786744+8860854+8899046+8957883+9059394+9128434
3319+9130794+9152147+9255235+9371540+9455117+9556459+9660500+9708044+9762279
3302+9899738+10048698+10136016+10198245+10270785+10381108+10569755+10800179
3287+11004711+11174171+11307573+11431169+11603133+11775226+11847205+11868768
3271+11972990+12190314+12460083+12709098+12908586+13118841+13393991+13683889
3256+13912663+14070456+14209194+14391109+14634204+14906902+15165541+15396882
3240+15631126+15908915+16240622+16576155+16864702+17155153+17495373+17828122
3225+18128144+18456149+18826343+19179518+19504219+19874804+20306441+20715160
3209+21064940+21390831+21736617+22142254+22594692+23025569+23417158+23819167
3194+24244757+24675550+25119234+25558026+25947973+26324020+26768761+27246045
3179+27663581+28054750+28483021+28918310+29338413+29779523+30235141+30668362
3163+31103948+31563503+32013914+32431292+32843908+33295171+33743533+34132607
3148+34530159+34987808+35434744+35827304+36195491+36546315+36867518+37197809
3132+37588404+38006693+38372915+38670779+38968235+39317282+39667949+39963308
3117+40239537+40555452+40895521+41185367+41406928+41635500+41920974+42196472
3101+42383378+42549438+42794359+43060104+43254025+43404973+43579214+43774576
3086+43947301+44094029+44227206+44321168+44376870+44441277+44538537+44632611
3071+44653940+44591557+44540847+44589525+44681672+44702702+44623188+44493831
3055+44385708+44313255+44241891+44157755+44036821+43837988+43582115+43326377
3040+43063728+42762487+42428822+42072669+41692968+41284805+40855984+40411194
3024+39930003+39381181+38737624+38036022+37338287+36606848+35774482+34864836
3009+33925343+32928260+31804518+30543408+29186683+27727243+26143022+24500411
2993+22792117+20952708+19030423+17108146+15206204+13378508+11765663+10458799
2978+9467592+8831504+8559065+8586016+8836790+9209124+9668589+10322591+11258884
2961+12461163+13861969+15288544+16444424+17113779+17270389+16983640+16379101
2945+15586011+14723057+13990626+13612482+13689631+14136167+14742812+15371112
2930+16048733+16864744+17815352+18805713+19790432+20756781+21626204+22291270
2914+22705871+22912055+22955994+22849795+22629797+22356339+22073371+21821446
2899+21648781+21499827+21213489+20726132+20094554+19366964+18555746+17690615
2883+16884770+16353717+16361346+17088737+18479721+20277648+22277660+24436315
2868+26734199+29072327+31335752+33486598+35521750+37458744+39403074+41458702
2853+43612700+45768123+47808291+49663444+51343587+52883785+54284649+55514336
2837+56611987+57714748+58879882+60052629+61208653+62358479+63477013+64501148
2822+65425343+66332496+67238075+68069373+68810778+69511994+70239388+71029378
2806+71865990+72749539+73638235+74422541+75103639+75756368+76360937+76867404
2791+77278642+77604850+77849228+78035887+78199304+78366053+78518166+78591001
2775+78590236+78575328+78523272+78426541+78372836+78368071+78310387+78199241
2760+78141335+78148340+78139067+78094461+78062621+78040207+77961312+77843322
2745+77781888+77802327+77877346+78007261+78206601+78479494+78817097+79175069
2729+79498063+79781613+80042478+80321680+80690755+81165013+81725873+82352515
2714+82952437+83435495+83830253+84182152+84480763+84765148+85090967+85426086
2698+85722590+85978481+86200493+86391528+86575126+86775107+86944520+87018510
2683+87026441+87026448+87041711+87130977+87358270+87700895+88093045+88483393
2667+88829796+89122800+89392513+89657316+89898062+90108603+90318998+90543230
2652+90782425+91024472+91230651+91406138+91582118+91766732+91955332+92099452
2637+92177101+92253909+92361910+92464477+92545995+92622364+92702859+92775075
2621+92820251+92837058+92840397+92855625+92884634+92897740+92891535+92884015
2606+92878011+92860543+92808237+92726031+92665349+92650844+92642935+92614983
2590+92576715+92541835+92515594+92480234+92448352+92443267+92431364+92407733
2575+92414453+92474794+92592632+92714448+92766435+92780431+92830039+92898019
2559+92922179+92882860+92810442+92749600+92710330+92681745+92673342+92678824
2544+92684848+92726184+92835326+93008399+93222209+93441042+93644001+93834187
2529+94038341+94270545+94494464+94694646+94900784+95100848+95274199+95472629
2513+95711177+95927380+96125803+96354097+96584902+96780480+96977741+97222515
2498+97498879+97767786+98013005+98228430+98415235+98593525+98781193+98967518
2482+99127074+99292926+99527544+99784534+100000723+100217449+100449165
2469+100651811+100839958+101083640+101405751+101731695+101976163+102163657
2455+102375700+102610499+102812240+102980074+103157328+103350192+103510771
2442+103612059+103684623+103759017+103836812+103933842+104050080+104124508
2428+104138477+104137983+104139006+104150561+104186443+104227382+104274680
2415+104342910+104395008+104434612+104535322+104705188+104885760+105039438
2401+105187161+105374982+105580389+105755326+105900649+106061548+106247741
2388+106413252+106532494+106602930+106613483+106574046+106536592+106521475
2374+106436153+106192478+105933602+105851466+105803938+105567728+105262278
2361+105211711+105574260+106105924+106439721+106376291+106134056+106296033
2347+106990843+107552308+107502590+107190281+107036283+107175331+107600385
2334+108120529+108515378+108731226+108879923+109083932+109353193+109629405
2320+109829371+109937372+110058306+110264464+110487589+110675716+110851634
2307+111029771+111217975+111413733+111573414+111688727+111808929+111956743
2293+112107805+112237872+112343591+112430069+112485624+112488949+112448712
2280+112411835+112419724+112462584+112488024+112456413+112374326+112277031
2266+112188341+112109635+112048660+112032257+112082942+112200912+112370917
2253+112588720+112842538+113092231+113235954+113340797+113459678+113606385
2239+113768592+113928016+114076330+114210362+114327901+114443283+114562776
2226+114675716+114785602+114893332+114990132+115098224+115229411+115333329
2212+115382908+115414247+115446456+115464578+115467486+115496273+115620907
2199+115850641+116102406+116324120+116544254+116782489+117012376+117207272
2185+117381172+117559845+117740243+117916286+118092455+118260860+118407908
2172+118544619+118700599+118870048+119011558+119129319+119274378+119440418
2158+119575014+119679237+119782389+119896185+120016785+120117599+120177885
2145+120206296+120242470+120325420+120446854+120595127+120781800+120995061
2131+121211856+121435468+121666176+121896522+122152873+122440305+122698533
2118+122908496+123117138+123329690+123525253+123721011+123907545+124065863
2104+124247346+124464225+124650717+124808422+125009843+125247174+125445019
2091+125565938+125668367+125811659+125974707+126099369+126172191+126224880
2077+126262139+126265451+126241464+126214195+126219746+126279948+126379038
2064+126524319+126732446+126979989+127263400+127589316+127916498+128201314
2050+128444781+128673583+128906600+129130394+129293275+129365276+129396177
2037+129456532+129565556+129726851+129963556+130264609+130580117+130880795
2023+131176700+131486922+131789881+132070565+132369921+132671600+132893737
2010+133044779+133202373+133384107+133562613+133721237+133848751+133959305
1996+134094040+134231029+134315190+134381778+134472979+134571122+134666441
1983+134755666+134830380+134887730+134949171+135034890+135125200+135227768
1969+135369752+135525384+135651758+135737574+135802368+135854459+135864003
1956+135816949+135736280+135620383+135434420+135177305+134880314+134533793
1942+134139786+133778253+133475488+133196432+132959853+132798446+132744004
1929+132873188+133248606+133849850+134646838+135627493+136689179+137691775
1915+138583094+139348221+139994404+140569560+141089008+141539419+141923826
1902+142258048+142569897+142881747+143175635+143439567+143687583+143904448
1888+144104060+144303366+144470324+144633317+144828699+145021063+145192348
1875+145383946+145638028+145902030+146083110+146225831+146416414+146617181
1861+146794727+146978381+147182904+147390808+147556542+147660348+147752745
1848+147910103+148083587+148144860+148170878+148283658+148449030+148640475
1834+148877360+149122232+149311465+149509714+149769584+149976709+150108328
1821+150259118+150437749+150603219+150750003+150887089+151023076+151185151
1807+151367344+151516924+151605008+151647109+151692800+151803841+151982083
1794+152110682+152100846+152068637+152117277+152176241+152195845+152213820
1780+152241424+152296339+152411485+152493795+152415047+152272200+152198001
1767+152201340+152296840+152393050+152415172+152464397+152571876+152725825
1753+152925451+153076256+153145307+153201544+153268021+153346185+153403215
1740+153402185+153441379+153501052+153394338+153243075+153206316+153165578
1726+153045869+152870049+152716628+152624022+152439325+152082550+151723145
1713+151456777+151234529+151007076+150724806+150452330+150275188+149966511
1699+149422395+148866327+148290614+147725907+147242258+146779868+146365937
1686+145830517+144990955+144198823+143692272+143302648+142840091+142368713
1672+142071778+141874990+141698794+141697486+141855568+142006943+142172050
1659+142473465+142953497+143478371+143876733+144306511+144883921+145419383
1645+145859136+146361443+146985393+147740001+148601142+149471995+150331495
1632+151219294+152101402+152956616+153814933+154620005+155327378+156024831
1618+156721769+157323458+157873445+158434285+158941976+159372867+159766233
1605+160121061+160425926+160691111+160903996+161038912+161114725+161173689
1591+161225363+161248417+161240458+161213258+161162586+161099059+161041472
1578+160893659+160563110+160250022+160049992+159758470+159361360+159000620
1564+158738802+158591823+158285177+157600942+156926918+156415401+155889915
1551+155326042+154766942+154214853+153632546+152989340+152163190+151118493
1537+150186408+149372099+148407944+147396916+146493715+145540149+144477225
1524+143342843+142003075+140542596+139142376+137719449+136258358+134840342
1510+133411321+131604878+129179187+126729260+124626230+122395546+119535556
1497+116040326+112359919+108638586+104397860+99607175+95009188+91089342
1483+87759463+84837232+82344063+80256449+78170232+75485340+72257187+69405997
1468+67477945+66147826+64804009+63265686+62163569+62807916+66125885+71219035
1452+76530594+81287797+85194641+88060043+89845171+90801437+91404336+92071020
1437+92850790+93545273+94079267+94491326+94835336+95203729+95667886+96264677
1421+97040141+98022292+99189259+100464532+101783980+103140938+104516999
1408+105850228+107086628+108178700+109044530+109521960+109361194+108291341
1394+106242273+103515926+100302458+96524658+92745642+90322108+90410574+93537634
1379+99371667+106681184+114206842+121329199+127930314+134007570+139162772
1366+142771443+144615063+145004993+144596920+143917429+143136859+142273352
1352+141329650+140336139+139578804+139620613+140715036+142398529+144010438
1339+145401504+146834379+148514964+150519058+152886452+155596904+158577284
1325+161780053+165153619+168614407+172101018+175558550+178907477+182074794
1312+185012754+187653347+189900184+191684380+193039647+194113284+195066920
1298+196013920+197002548+198000344+198932929+199738001+200313811+200469708
1285+200011895+198813652+196926248+194784706+193247385+193262884+195358972
1271+199350686+204450612+209764661+214694526+218904928+222212921+224578326
1258+226033866+226600535+226283120+225076028+223002048+220123373+216489255
1244+212281914+208063958+204596380+202487757+202334030+204729946+209765983
1231+216797278+224701096+232344779+238989998+244385273+248615960+251892704
1217+254415161+256346976+257837604+259009093+259935988+260637267+261123281
1204+261476203+261752741+261898885+261926294+261857980+261693972+261400905
1190+260961110+260405585+259756591+258976731+258069259+257115650+256102689
1177+254953433+253658452+252171162+250400685+248340507+246021572+243427880
1163+240596134+237671754+234799214+232053243+229415724+226779890+223972742
1150+220797939+217143688+213011771+208491954+203789862+199183492+194879427
1136+190954802+187403105+184125664+180989568+177929785+174884666+171711895
1123+168162327+163924975+158722120+152302934+144436988+134930374+123708462
1109+111017298+97492604+84157964+72290091+62876563+56107986+51494886+48512231
1094+47105484+47597398+50270847+54961876+60807251+66440496+70353003+71079472
1078+67620875+60169681+50580339+41944786+37037551+36471094+38020300+38113929
1063+34690901+28597987+22207221+17325235+14478767+13514424+14450691+17929722
1047+25424416+39203406+61754376+94334817+135145666+179085718+219821249
1034+252421599+274274282+283895986+279811804+260448103+225526926+180290292
1020+137626049+112179520+111712163+134317207+171645918+214811369+258699441
1007+301172462+340128262+372785183+396914950+411910223+418670157+418630949
993+413044118+402838507+388557619+370324974+347950743+320886385+288219223
980+249152089+204078365+156234266+112320836+79993065+64283664+67268302+90457664
964+134808564+197698345+271517945+345833744+411309676+462778753+499682862
951+524405441+540179851+549738918+555077065+557615661+558279040+557574979
937+555759812+553005618+549432773+545117911+540111065+534385297+527843495
924+520406241+511973194+502357417+491351604+478799927+464825768+450044173
910+435410642+422163808+411902070+405776939+402725838+398929993+389854520
897+372630580+346506668+312514890+274035532+236855608+206652662+186095894
883+176615770+183339000+213598239+267534356+333403585+394965437+441428669
870+469944366+482450240+482042473+471678391+455872453+442832869+441856054
856+455535254+476704382+495779608+508446819+515318976+518241742+518638824
843+517423704+515108331+511954161+508214303+504164181+499967804+495634744
829+491116472+486473705+481735326+476778456+471482215+465810960+459712375
816+452948824+445276689+436684336+427456959+418366877+410988365+407311478
802+408118719+411894195+415931156+418412095+419025109+418103167+416067644
789+413336128+410228150+406848837+403178851+399247325+395019170+390345126
775+385173436+379810886+374927755+371251925+368925477+366989460+364029602
762+359252155+352727132+345703294+340953368+340925458+345060534+350318652
748+354117558+355772640+355832968+355030568+353773569+352239170+350585340
735+348894056+347154075+345383709+343672529+342036146+340380201+338693481
721+337002920+335283782+333548309+331879008+330245102+328665429+327234933
708+325924758+324660748+323464410+322359009+321304642+320285280+319322016
694+318424645+317570126+316787094+316193335+315815426+315483541+315084401
681+314782819+314696641+314576069+313965977+313140481+313941546+316642703
667+317581841+316239110+316115227+317526856+318950757+320146037+321395551
654+322668633+323975218+325481207+327191357+329038636+331064726+333291027
640+335697114+338256023+340921674+343720863+346663609+349623718+352591284
627+355709669+359053364+362374047+365655661+369128136+372939007+377115294
613+381656216+386297397+390788093+395285245+399894426+404456274+409113260
600+414204866+419628412+424994218+430146847+435391887+441048756+446940091
586+452700113+458310596+464068503+470111212+476357499+482647473+488813175
573+494861895+501033051+507463103+513915583+520194983+526378327+532570575
559+538816306+545248528+551870971+558462082+565093652+571867359+578578791
546+585032941+591352634+597887090+604617499+611175942+617403363+623539568
532+629801772+636158808+642576171+648911892+654951763+660816273+666851580
519+672900133+678519716+683829313+689149373+694390739+699224061+703516550
505+707250009+710260094+712336439+713589569+714215940+713690078+711477607
492+707894856+703447374+698564522+694106466+691457065+691895386+695677930
478+701286159+705832146+706981095+704160396+698477982+692449909+689643958
465+693660799+706301020+726715248+752025630+777116740+796389087+809174561
451+817720805+822836285+824922815+824777617+822830164+819316700+815271142
438+812372863+811942334+815001672+822799722+836184352+854433803+875769305
424+898792029+922481527+946040687+967103992+982049290+992563968+1003387296
411+1015380888+1026382862+1036024906+1045908150+1055956570+1065038304
399+1073741823
##END=
