##TITLE=10
##JCAMP-DX=4.24
##DATA TYPE=INFRARED SPECTRUM
##DATE=16/11/2015
##SAMPLING PROCEDURE=Instrument type and / or accessory
##ORIGIN=Default
##XUNITS=1/CM
##YUNITS=TRANSMITTANCE
##RESOLUTION=4
##FIRSTX=3996.3359
##LASTX=399.24785
##DELTAX=-1.9287336
##MAXY=0.55452424
##MINY=0.004057297
##XFACTOR=1
##YFACTOR=5.1644095e-010
##NPOINTS=1866
##FIRSTY=0.024681505
##XYDATA=(X++(Y..Y))
3996+47791534+47783429+47797059+47843683+47910111+47980611+48024991+48068149
3981+48196991+48374325+48450102+48402537+48396452+48543540+48732964+48836887
3965+48895814+48987041+49083621+49112727+49100879+49127872+49183134+49225530
3950+49242118+49249042+49287418+49317360+49319171+49377578+49501168+49630047
3935+49715828+49728405+49704536+49706386+49740361+49787555+49851101+49917435
3919+49958443+49962916+49982211+50057570+50111811+50083368+50078434+50172530
3904+50280193+50299604+50209397+50095274+50064444+50124863+50147387+50088782
3888+50012537+49919632+49869643+49871237+49853157+49844230+49870682+49917020
3873+49944803+49866455+49798804+49857005+49912458+49887128+49784932+49680724
3857+49673028+49704738+49669781+49603548+49499217+49388124+49346604+49403413
3842+49530336+49602737+49520165+49384661+49319954+49327499+49336090+49252837
3827+49147835+49164191+49204143+49225116+49319669+49356446+49302735+49284377
3811+49333749+49327701+49134674+48916296+48805700+48798061+48896470+48948904
3796+48881408+48771613+48668516+48608165+48604025+48643500+48718588+48753129
3780+48654490+48520421+48470905+48476946+48469870+48408351+48326807+48225592
3765+48119306+48090979+48115977+48130960+48163413+48248177+48338157+48368536
3749+48346460+48312633+48164563+47939047+47800366+47735500+47691974+47644258
3734+47557939+47387807+47218881+47115671+47043635+46941803+46804446+46703826
3719+46667110+46691336+46729939+46639162+46332297+45911760+45546820+45302676
3703+45084500+44755407+44282720+43739361+43229901+42762715+42239102+41617996
3688+41077973+40768735+40593616+40478681+40476073+40541077+40512984+40417295
3672+40257068+39971598+39706026+39553196+39465546+39365511+39181068+38900705
3657+38596044+38395198+38311836+38231901+38057294+37739616+37325874+36916795
3641+36590310+36353920+36153680+35917088+35632934+35329853+34986582+34657370
3626+34383297+34136708+33912988+33669338+33396607+33095952+32715219+32312502
3611+31951198+31578219+31183596+30800897+30433551+30081091+29748730+29423835
3595+29080269+28733615+28398403+28005861+27539415+27106151+26742023+26397259
3580+26057328+25743989+25456708+25137020+24771595+24423320+24069763+23671800
3564+23297899+22974552+22660275+22340156+22032306+21720854+21366013+21001789
3549+20652433+20260662+19871431+19605718+19378963+19042010+18705334+18527466
3533+18413319+18198768+17879875+17536746+17200126+16882037+16625221+16430055
3518+16233031+15997677+15759625+15550851+15340022+15114130+14905930+14710518
3503+14520915+14362102+14221148+14054193+13856827+13689378+13577272+13444444
3487+13240312+12992371+12749514+12578508+12480137+12360868+12189594+12008638
3472+11819681+11646091+11534366+11433046+11292377+11147955+11013405+10878651
3456+10746191+10630785+10553021+10491414+10416668+10316131+10180207+10054047
3441+9967434+9862461+9730931+9640980+9593547+9521897+9411085+9318072+9275563
3424+9241345+9148838+8997876+8876423+8835266+8821018+8788505+8763065+8736300
3406+8648922+8497179+8335657+8251686+8289336+8360900+8361814+8307285+8286005
3389+8306329+8271485+8165243+8083501+8074521+8088889+8060920+7995514+7935150
3371+7882436+7856265+7900088+7974379+8020180+8062897+8127915+8176573+8172175
3354+8141520+8146447+8205530+8259491+8262762+8259381+8282376+8327559+8426950
3337+8566913+8669070+8725444+8782960+8847947+8912129+8986220+9061409+9118744
3319+9164802+9207943+9273719+9399501+9563158+9688136+9726114+9735435+9810488
3302+9938694+10067244+10228733+10455505+10676374+10804453+10854422+10924652
3287+11073699+11257612+11403519+11481134+11550245+11702344+11906243+12061648
3271+12159295+12283960+12503107+12761161+12962862+13123477+13288426+13474660
3256+13735666+14052343+14329202+14571900+14812098+15024369+15239343+15492199
3240+15742156+15994981+16296788+16634586+16987613+17331240+17636118+17930962
3225+18257415+18619392+18996931+19362948+19700280+20026230+20390068+20796304
3209+21180423+21507669+21830688+22213373+22650002+23105257+23576389+24043982
3194+24454770+24819546+25196476+25593927+25999114+26434599+26911868+27380770
3179+27782353+28147428+28580763+29107676+29655050+30179467+30658678+31055645
3163+31397185+31775545+32219028+32657573+33042761+33413410+33819683+34248577
3148+34678769+35126352+35582668+36011616+36432618+36890780+37333924+37680834
3132+37967653+38273126+38607434+38943989+39271571+39591466+39926673+40296871
3117+40664520+40997883+41297166+41545231+41749103+41961531+42216221+42488682
3101+42743628+42967427+43151805+43319022+43505777+43711633+43909593+44083883
3086+44248370+44389471+44460444+44505823+44620606+44766789+44846494+44884847
3071+44937815+44976912+44989921+45003320+45007450+44966452+44873392+44773783
3055+44697938+44609783+44475275+44311924+44137540+43930509+43685412+43439464
3040+43191919+42887185+42513272+42118584+41738096+41373369+40971121+40450509
3024+39829252+39195112+38558073+37899209+37239353+36510234+35601715+34562251
3009+33506564+32441611+31309535+30069913+28700873+27219425+25666034+24031315
2993+22272119+20408857+18507000+16627859+14803809+13054336+11447352+10131123
2978+9211892+8655371+8416231+8500911+8840020+9271260+9732073+10368654+11365481
2961+12706820+14165527+15501214+16551989+17205612+17421680+17209958+16614743
2945+15779068+14912942+14218826+13881270+13962739+14331419+14830098+15422063
2930+16129023+16949477+17853849+18772718+19649336+20514375+21365472+22081262
2914+22547346+22745583+22741316+22618070+22388962+22057256+21735735+21518868
2899+21356339+21163354+20863248+20407131+19841078+19192393+18427138+17605950
2883+16888731+16454309+16514759+17252937+18631593+20371090+22290153+24434585
2868+26754215+29089491+31381542+33583538+35640855+37621998+39647735+41742359
2853+43843721+45886917+47849320+49715565+51428146+52958687+54341105+55604718
2837+56777965+57904249+59033635+60200647+61375336+62497170+63573819+64645037
2822+65672627+66597976+67436612+68244836+69050723+69830332+70573109+71326194
2806+72145636+73046776+73974973+74841900+75609051+76280351+76852128+77320450
2791+77697299+78024390+78339983+78615621+78823908+78990819+79099113+79109933
2775+79065463+79039091+79055436+79063840+79003269+78905001+78818938+78730451
2760+78628894+78527510+78431565+78376548+78385853+78379982+78309947+78231299
2745+78173441+78147444+78207509+78405214+78721550+79086908+79457201+79806971
2729+80102857+80341642+80581155+80879436+81257050+81730190+82298793+82931552
2714+83549761+84057750+84426996+84713901+85008835+85343681+85697801+86059220
2698+86407735+86729294+87009621+87227580+87411406+87587774+87731356+87826407
2683+87879469+87906519+87951343+88071244+88290250+88587240+88941165+89335571
2667+89743604+90134627+90447717+90661118+90856500+91084090+91318972+91561458
2652+91795157+91973342+92130407+92324627+92526162+92700935+92866908+93028907
2637+93175829+93300981+93391639+93446353+93483833+93524264+93577838+93648674
2621+93730337+93803062+93846681+93843572+93804966+93776098+93769224+93767125
2606+93785750+93832262+93854501+93810247+93736295+93705761+93706388+93657755
2590+93579490+93538691+93515991+93496637+93503670+93530504+93566650+93615687
2575+93658383+93653391+93612131+93609952+93676727+93762862+93809734+93811595
2559+93801583+93778861+93720115+93628851+93529004+93465540+93467942+93513401
2544+93578495+93671331+93805890+93986044+94198810+94418941+94631808+94838566
2529+95047798+95277724+95531715+95761822+95933660+96101977+96306181+96506230
2513+96691527+96889138+97099531+97311057+97541921+97821130+98112940+98363433
2498+98571243+98758539+98953437+99156530+99367371+99614105+99872481+100096442
2482+100301454+100523836+100754318+100956423+101165337+101437801+101716786
2469+101954172+102193519+102429787+102641053+102877500+103167782+103466005
2455+103721070+103934103+104127350+104309568+104492081+104674240+104845609
2442+105005660+105140666+105250345+105348700+105413274+105456511+105540561
2428+105637084+105646634+105566580+105500989+105494302+105485401+105458401
2415+105485992+105599437+105755008+105920909+106082381+106234663+106420213
2401+106640661+106830330+106991982+107153158+107341320+107561948+107778934
2388+107957567+108091628+108164880+108167851+108110094+108011768+107915787
2374+107834254+107684828+107404855+107068884+106796398+106616294+106479817
2361+106435664+106598283+106976423+107445113+107652635+107543417+107646417
2347+108229634+108766072+108743790+108447183+108370158+108603822+108980490
2334+109305252+109530497+109762480+110069330+110411180+110787495+111177963
2320+111428275+111503028+111588434+111835233+112173123+112462178+112672895
2307+112851571+113026936+113208807+113388168+113532724+113640016+113752531
2293+113880042+113986396+114057830+114126949+114208713+114271801+114290873
2280+114268411+114232906+114219771+114210379+114165504+114096811+114011369
2266+113895810+113788424+113742569+113756924+113807987+113898443+114046736
2253+114254835+114498258+114762095+114982948+115194235+115347332+115455345
2239+115585872+115733414+115846924+115932021+116040452+116192763+116351660
2226+116483859+116602368+116712502+116812458+116923905+117035265+117120701
2212+117182289+117211590+117214446+117226702+117281062+117392119+117544531
2199+117733197+117953609+118170595+118388974+118621533+118822859+118975343
2185+119125266+119311097+119516585+119707156+119887173+120052122+120177245
2172+120294484+120443715+120605923+120759366+120899847+121014172+121119076
2158+121273298+121483742+121680985+121810480+121886177+121954517+122024039
2145+122095899+122182099+122265053+122355422+122479594+122635100+122833439
2131+123075795+123323820+123544045+123768973+124039489+124322168+124592699
2118+124865437+125123200+125346022+125554287+125759147+125947777+126121707
2104+126292477+126468137+126644519+126815491+126994412+127174039+127369811
2091+127568670+127751760+127937707+128119325+128258962+128348913+128407587
2077+128450867+128484078+128498346+128496571+128515672+128587316+128702470
2064+128847431+129027145+129252188+129508798+129781060+130078785+130393520
2050+130703220+130996054+131254842+131449358+131555900+131618902+131704914
2037+131808830+131927318+132096803+132326002+132585669+132870339+133198923
2023+133552769+133903816+134242354+134548130+134825297+135073582+135274533
2010+135452386+135639458+135810675+135953861+136115787+136287250+136413628
1996+136525046+136653675+136757779+136834876+136874045+136891559+136944101
1983+137034470+137132544+137217344+137295191+137381160+137486880+137625867
1969+137775329+137898057+137995352+138064759+138134916+138211537+138235240
1956+138180433+138065783+137899616+137679376+137410591+137124421+136785810
1942+136364548+135921661+135496734+135131520+134811476+134517055+134333431
1929+134389897+134792231+135520048+136494130+137648013+138771412+139786956
1915+140710746+141544686+142333009+143026764+143583392+144037244+144442161
1902+144802196+145121706+145423442+145692588+145979060+146303605+146563965
1888+146782473+146993032+147181864+147362286+147512223+147657184+147839062
1875+148073829+148390670+148706905+148936565+149106613+149223658+149355620
1861+149551030+149762455+149951157+150114843+150263353+150410448+150585488
1848+150855009+151028895+151004918+151019287+151095590+151223195+151443593
1834+151756856+152088629+152340477+152602439+152782557+152827309+152904276
1821+153026413+153168618+153352069+153586648+153789330+153905913+153995648
1807+154105767+154267434+154449009+154585862+154685623+154812795+155004137
1794+155111271+155066620+155025460+154992856+154947455+154971663+155011957
1780+154984820+155019891+155214162+155407871+155437965+155386115+155214422
1767+155082864+155129333+155171127+155218548+155283714+155331899+155577905
1753+155964297+156263509+156444926+156491683+156489302+156526653+156529928
1740+156568116+156870169+157040218+156849640+156654547+156412278+156119154
1726+155898165+155768122+155871346+156124564+156143767+155835697+155323777
1713+154790231+154412899+154205875+154046747+154016437+154075457+153804435
1699+153417999+152851171+151947997+151208192+150616953+150202688+150054352
1686+149672143+148893573+148131579+147471612+146925313+146408690+146072575
1672+145922204+145663229+145447924+145461197+145517375+145549344+145697118
1659+146142920+146973484+147685676+148086366+148717740+149244966+149445499
1645+149674509+150058810+150613116+151486037+152475007+153365269+154237945
1632+154999838+155693002+156539940+157453199+158177524+158856578+159596268
1618+160143058+160584344+161150365+161657726+162058083+162431968+162782899
1605+163101789+163372507+163583384+163741516+163865066+163981289+164097338
1591+164159907+164111952+163973844+163806551+163661317+163653065+163805700
1578+163717841+163317108+163096321+162908773+162500120+162075785+161689075
1564+161558787+161772447+161653585+161023611+160275467+159348676+158453595
1551+157695107+157103523+156741901+156556661+156317580+155459793+154104599
1537+152999926+151946020+150706053+149583188+148592241+147619155+146731749
1524+145758013+144397106+142883232+141279233+139582254+138020526+136706521
1510+135544516+133803939+131120471+128361681+125958064+123519043+120578519
1497+116991523+113228514+109433282+105106164+100276986+95661534+91733302
1483+88432217+85597419+83237010+81284208+79318602+76684820+73453892+70589823
1468+68577164+67057771+65521377+63939192+62904287+63549366+66748202+71638823
1452+76659285+81148156+84893132+87697540+89488012+90532222+91303067+92055286
1437+92814012+93528441+94007259+94245337+94459697+94785836+95264113+95969943
1421+96856036+97824563+98912826+100035691+101175991+102435723+103792858
1408+105139230+106372402+107505951+108497316+109079913+108950057+107745745
1394+105471270+102695867+99551932+95771979+91898532+89275714+89057567+91898741
1379+97612677+105028007+112860429+120463372+127618658+134233338+139961635
1366+144086166+146213597+146666973+146163262+145338208+144488889+143592294
1352+142569305+141476592+140632856+140586762+141612160+143261343+144830458
1339+146138346+147406951+148883749+150749954+153067732+155785117+158766628
1325+161920207+165236231+168691589+172228575+175764882+179211007+182537794
1312+185708194+188564726+190997442+193028112+194704461+196092144+197274462
1298+198353095+199423129+200506105+201502404+202282316+202747507+202746598
1285+202085982+200637893+198492804+196125456+194426241+194412737+196651009
1271+200905452+206332923+212000470+217230683+221645740+225124931+227670926
1258+229283912+229989468+229808787+228703191+226740370+224078556+220712586
1244+216660277+212481963+209098032+207116499+206977757+209270331+214192633
1231+221121672+228884954+236341133+242803105+248064033+252235681+255520572
1217+258070275+260031654+261572232+262804164+263767498+264485316+264998621
1204+265370832+265620214+265696214+265670794+265539164+265288253+264928767
1190+264476314+263910121+263235611+262475608+261586803+260563627+259461305
1177+258240280+256793159+255111746+253236409+251081567+248559679+245748563
1163+242771337+239712888+236681692+233769069+230982146+228250479+225392389
1150+222183685+218519860+214397393+209857068+205077375+200366829+195968435
1136+191963719+188284500+184791704+181414582+178117139+174824717+171433745
1123+167702965+163250529+157768972+151042745+142834455+132986316+121540756
1109+108742506+95138845+81748772+69882701+60465364+53509145+48478721+45057204
1094+43346339+43635142+46116148+50590607+56330922+62158249+66583383+68055852
1078+65485606+58914102+50026639+41823354+37075479+36469060+37874889+37795545
1063+34197260+27960855+21529998+16682526+13831895+12734247+13322742+16130651
1047+22521403+34684961+55148752+85590292+125000890+168983559+211401239
1034+246958047+272346816+285362196+284268358+267479306+234124516+188871988
1020+145172170+118967567+118976728+143370987+183128109+228582828+274201350
1007+317722736+357130355+389879610+414005863+429050399+435898129+435966800
993+430529404+420468167+406264943+388005889+365408615+337874324+304468275
980+264151885+217070012+166605924+119999493+85588633+68972862+72646959+98349691
964+146705622+213950913+291014667+366636450+431672005+481726358+516996058
951+540291501+555004279+563903295+568924507+571348726+571890711+570894052
937+568703720+565684310+561959950+557510038+552350213+546478686+539819572
924+532249436+523615816+513745358+502442263+489579518+475329956+460237292
910+445125036+431176878+420026707+412880718+408687574+403603721+393052089
897+374190428+346335920+310570602+270309062+231252663+198936254+176080107
883+164424205+169555234+199521693+255310576+325281129+392150040+443738450
870+476401317+491976268+493748281+484864038+469940283+457344289+456593462
856+470322160+491292554+509969927+522129222+528482546+531056168+531233560
843+529706745+527010437+523562610+519664897+515543050+511258758+506783974
829+502113564+497237716+492087181+486667559+480958997+474825105+468185092
816+460843217+452511087+443144759+433068056+423152789+415161593+411272161
802+412368770+416900020+421930379+425262561+426319121+425603178+423827847
789+421314730+418174626+414672784+411026502+407116036+402745472+397909240
775+392666288+387281116+382377944+378647842+376197078+374143714+371123756
762+366216342+359543552+352531097+347790976+347539229+351253779+356023273
748+359459184+361050371+361236679+360515282+359196213+357506231+355711337
735+353906460+351993123+349973114+347985449+346069025+344256588+342705132
721+341193840+339441015+337501882+335674269+333986393+332405737+331031962
708+329791835+328472247+327065260+325723656+324496168+323391509+322501319
694+321797494+321010860+320030646+319131569+318543591+318155742+317775827
681+317421707+317251875+317197428+316749448+316066484+317031318+319770531
667+320355884+318559894+318276725+319818169+321430679+322650117+323773530
654+325034345+326559371+328329768+330190967+332070603+334066404+336261987
640+338644137+341192628+343856505+346531634+349266490+352308146+355745442
627+359306087+362833550+366260777+369691898+373482362+377667542+381879902
613+386004058+390261689+394853474+399643425+404364041+409100065+414093664
600+419345619+424737051+430175630+435555146+441055270+446869032+452824956
586+458846117+464910819+470917380+476907813+483023412+489249260+495519717
573+501736794+507982032+514495551+521275157+528079808+534592980+540868746
559+547430161+554411512+561304339+567846769+574287981+580853955+587576547
546+594244086+600767184+607364205+614013104+620561997+627083768+633659783
532+640164761+646438796+652620844+659073367+665830583+672211663+678189948
519+684161597+689848057+695115217+700208621+705378718+710522039+715309133
505+719299004+722124345+724207630+725515966+725672814+724920544+723272486
492+720456782+716402337+711564807+707135092+704692003+705360483+709063953
478+714414038+718907000+719746869+716096605+709976476+704334681+702433289
465+707117145+719954326+740252346+764183779+786891591+803908095+814457130
451+821193110+824904544+825506371+823625004+819714827+814423660+808926479
438+804596137+803182370+805873773+813407092+827292580+847388740+871233036
424+896656256+922046468+945913442+967827896+984855769+995993244+1005729936
411+1016276491+1026540626+1035346849+1043377257+1052749356+1063321878
399+1073741823
##END=
