##TITLE=10
##JCAMP-DX=4.24
##DATA TYPE=INFRARED SPECTRUM
##DATE=16/11/2015
##SAMPLING PROCEDURE=Instrument type and / or accessory
##ORIGIN=Default
##XUNITS=1/CM
##YUNITS=TRANSMITTANCE
##RESOLUTION=4
##FIRSTX=3996.3359
##LASTX=399.24785
##DELTAX=-1.9287336
##MAXY=0.55643797
##MINY=0.004074411
##XFACTOR=1
##YFACTOR=5.1822324e-010
##NPOINTS=1866
##FIRSTY=0.024935205
##XYDATA=(X++(Y..Y))
3996+48116724+48112040+48150093+48183236+48169664+48176601+48204047+48232176
3981+48318935+48463364+48570154+48616689+48706097+48866076+48978027+48987796
3965+48957511+48954948+49035701+49173165+49269104+49314420+49335386+49329344
3950+49352272+49470794+49599703+49567455+49464036+49496392+49625000+49739740
3935+49785891+49763994+49761385+49817707+49846591+49803014+49812492+49915580
3919+49968599+49895686+49819702+49816252+49848945+49920670+50011433+50050416
3904+50078675+50142840+50171396+50175609+50154773+50070666+50012148+50117299
3888+50181906+50024113+49944129+49978804+49944216+49975928+50090766+50168187
3873+50191758+50097731+49998245+49932933+49793108+49688216+49662657+49722840
3857+49855818+49857651+49698474+49614785+49527353+49410496+49365916+49408156
3842+49510201+49578123+49591041+49660727+49668634+49466218+49227241+49129918
3827+49198738+49325131+49286349+49225120+49265527+49132905+48996815+49072420
3811+49174175+49108435+48948992+48981028+49009794+48888048+48894920+48955103
3796+48958916+48980586+48987459+48940492+48845552+48741289+48690782+48659738
3780+48550616+48440231+48425326+48480308+48521980+48477360+48420003+48371113
3765+48323086+48285253+48186647+48094748+48133599+48205467+48097530+47884971
3749+47893816+48047321+47907572+47683777+47721952+47753330+47613893+47425883
3734+47307634+47258098+47307376+47329710+47233585+47090561+46926219+46768059
3719+46656245+46600670+46529147+46374154+46188918+45979127+45696202+45354615
3703+44973412+44617617+44294069+43886886+43392240+42857489+42270210+41667286
3688+41234138+41014890+40813983+40603721+40517875+40508684+40444501+40465193
3672+40441679+40179476+39940761+39785315+39575301+39338394+39142674+38926510
3657+38654336+38509428+38474765+38288534+37929198+37563120+37263938+36990686
3641+36740207+36511473+36241466+35918958+35645436+35403648+35036692+34686199
3626+34466552+34233631+33916898+33525566+33187872+32953416+32649580+32224925
3611+31761981+31326094+30979622+30709802+30427392+30065969+29659434+29257315
3595+28855126+28485709+28172019+27853991+27548187+27304950+27021147+26610747
3580+26146449+25719914+25346895+25021477+24727455+24392708+23972178+23543618
3564+23171273+22840316+22565708+22344861+22109712+21814663+21484395+21143007
3549+20758310+20328194+19924133+19616550+19398638+19145829+18792192+18484688
3533+18318214+18178991+17944147+17598150+17217810+16904355+16678014+16473396
3518+16245006+16002639+15783950+15600424+15406589+15196776+14982905+14756745
3503+14578474+14455101+14287985+14055799+13834818+13656755+13463979+13225649
3487+12979805+12775115+12629747+12526556+12451829+12365063+12235186+12076972
3472+11865016+11636545+11499867+11431795+11335542+11205317+11094043+11003705
3456+10884121+10723940+10558074+10423009+10309685+10171525+10044639+9975853
3441+9890710+9754652+9645384+9573850+9476242+9371265+9321286+9300998+9242311
3424+9131285+9016309+8920958+8833622+8784642+8774921+8753947+8707375+8658059
3406+8617324+8557772+8490415+8446924+8374229+8254984+8166764+8154122+8185682
3389+8209485+8178303+8100125+8074200+8154576+8246722+8253837+8190226+8089914
3371+7964808+7863626+7862270+7967460+8077402+8115418+8121656+8148150+8187941
3354+8217193+8227327+8238071+8269309+8307444+8373490+8454630+8450096+8415387
3337+8477933+8593150+8711242+8827760+8887757+8914412+9008437+9107473+9077412
3319+9009699+9067025+9248093+9458346+9608320+9663942+9674644+9723979+9834558
3302+9954317+10051537+10158294+10292294+10429598+10557798+10687807+10834359
3287+10989982+11154497+11325391+11465594+11601383+11764761+11890759+11988347
3271+12163425+12404032+12613782+12799618+13018674+13246921+13427083+13574374
3256+13756391+13984007+14196393+14373821+14587944+14874131+15185056+15477249
3240+15720669+15931212+16186557+16533270+16920254+17257791+17561215+17907020
3225+18266451+18559857+18798131+19054650+19359815+19699759+20069107+20483617
3209+20960327+21470012+21943202+22342030+22696469+23068703+23495543+23943465
3194+24329819+24659701+25030177+25444899+25841247+26242726+26664803+27075512
3179+27515182+28021389+28546781+29036476+29467288+29869071+30302246+30757919
3163+31201789+31661463+32132865+32568877+32970047+33368826+33803524+34284397
3148+34763738+35178703+35539523+35916959+36315175+36679776+37003154+37348979
3132+37757661+38174854+38548742+38876021+39169459+39460226+39787465+40168060
3117+40554486+40874375+41117367+41344756+41609605+41887221+42142121+42386741
3101+42639024+42901249+43149816+43342423+43500924+43696860+43917758+44087890
3086+44184451+44260330+44378927+44529905+44669346+44795955+44899096+44929490
3071+44907848+44925712+44971446+44936646+44814196+44703218+44659436+44669123
3055+44674777+44621966+44537205+44437180+44263360+44019886+43790401+43585455
3040+43329638+43005865+42657254+42293160+41911461+41521836+41086445+40542898
3024+39917258+39297286+38713659+38102713+37367705+36506890+35603066+34690246
3009+33742133+32717501+31580433+30328117+28984176+27556364+26024231+24402752
2993+22700662+20853253+18866949+16901237+15043548+13278595+11672611+10334523
2978+9368139+8841320+8677130+8746228+8972039+9296680+9740486+10423430+11423638
2961+12695303+14129795+15552406+16692130+17359966+17543961+17271100+16623296
2945+15787158+14921467+14189521+13833942+13953809+14395791+14960910+15564669
2930+16219121+16950295+17770656+18689124+19684855+20670112+21533426+22218563
2914+22675845+22873642+22892437+22807356+22598361+22278631+21948082+21701578
2899+21537995+21362424+21082224+20666192+20122545+19453408+18647002+17760278
2883+16959743+16468704+16537443+17334351+18759974+20519047+22433816+24527093
2868+26809838+29160226+31417324+33515207+35514025+37502362+39521081+41610122
2853+43765328+45873099+47852762+49701066+51404874+52973236+54412692+55677365
2837+56788662+57889209+59071670+60269460+61392676+62468440+63575022+64688634
2822+65692512+66544503+67310080+68049281+68797850+69597853+70451885+71312409
2806+72160237+73019129+73888660+74725972+75495251+76187080+76786608+77289772
2791+77707637+78039261+78303089+78510660+78646452+78759277+78918238+79068278
2775+79103933+79042075+78992172+78988837+78958027+78871893+78786119+78727093
2760+78692962+78647890+78555387+78487031+78471295+78415210+78316848+78247241
2745+78223152+78245918+78314045+78445747+78675875+79001898+79378170+79720670
2729+79981961+80200142+80435539+80732097+81132831+81685310+82348334+82992050
2714+83541934+83979194+84320242+84630774+84941932+85251659+85585202+85937363
2698+86271000+86592876+86891720+87127146+87328742+87526529+87680630+87777453
2683+87855680+87908839+87906532+87942604+88165522+88556681+88971268+89349460
2667+89727838+90102169+90427862+90697053+90922652+91115658+91298586+91484576
2652+91664025+91847657+92054832+92261784+92444180+92616225+92781641+92918361
2637+93032285+93143917+93234874+93294546+93361451+93462364+93564327+93640447
2621+93718658+93812642+93878719+93871732+93819162+93779323+93766901+93780753
2606+93816955+93852697+93836479+93757800+93698070+93678187+93631475+93550618
2590+93489839+93481658+93495834+93486014+93452501+93423941+93418269+93426910
2575+93444658+93499220+93580638+93627723+93639670+93660654+93696273+93723439
2559+93714920+93680422+93654529+93639728+93616509+93568431+93532323+93574657
2544+93653249+93681134+93701097+93811772+94033202+94305398+94562433+94808160
2529+95058747+95285273+95471954+95645313+95842741+96058959+96254215+96442067
2513+96674194+96929963+97154944+97362752+97574024+97774866+97987799+98251685
2498+98546704+98828885+99079321+99287768+99459374+99627738+99826128+100051346
2482+100273783+100485379+100703322+100921172+101116148+101319462+101561739
2469+101800278+102026999+102295924+102600374+102874245+103096602+103318571
2455+103588697+103867348+104085636+104261656+104447890+104632644+104770356
2442+104881426+105025450+105181744+105304374+105403174+105474355+105499479
2428+105496898+105482967+105466678+105462961+105456412+105435300+105420376
2415+105440439+105514863+105634847+105799049+106016324+106249205+106446970
2401+106607613+106759142+106935219+107144478+107356980+107540131+107711715
2388+107902478+108081927+108184752+108190137+108132125+108048881+107949535
2374+107818501+107630980+107352983+106996120+106611898+106316296+106319236
2361+106523406+106532982+106374890+106493027+107133041+108116066+108956619
2347+109245895+109039281+108742824+108680283+108904452+109254493+109554882
2334+109789553+109955818+110073179+110264697+110575553+110870737+111029224
2320+111133660+111336263+111637788+111913168+112123039+112310093+112487385
2307+112671010+112888572+113103267+113263018+113380286+113493722+113625373
2293+113766787+113874530+113924339+113949629+114009747+114116835+114204478
2280+114214664+114166508+114105635+114050599+113997519+113937911+113869052
2266+113791602+113710098+113642360+113609005+113626416+113706504+113860037
2253+114088189+114361764+114640099+114836419+115001376+115164060+115315689
2239+115457692+115605209+115750656+115882796+116001962+116131902+116278780
2226+116391619+116462002+116548668+116657963+116755325+116844449+116947289
2212+117055240+117121051+117124811+117106293+117121763+117221124+117403929
2199+117620636+117833648+118021932+118208669+118444613+118704797+118931000
2185+119123122+119292456+119430901+119563207+119723807+119891236+120043922
2172+120209065+120393251+120559494+120688227+120818484+120982341+121123769
2158+121212979+121326214+121494915+121666176+121801566+121892113+121947997
2145+121994162+122047300+122119229+122223191+122342435+122463735+122635039
2131+122885863+123174010+123452266+123716604+123980943+124236698+124484920
2118+124739568+124987819+125212275+125410766+125597770+125775773+125923484
2104+126066523+126234879+126396450+126554354+126759157+126990212+127200363
2091+127377318+127559793+127759463+127924929+128028503+128094249+128133700
2077+128150651+128164568+128186637+128234915+128317354+128395480+128465008
2064+128603000+128819635+129066735+129339916+129626050+129900265+130164403
2050+130427447+130686351+130929714+131133510+131268195+131349699+131409997
2037+131468368+131576959+131760786+132004234+132292352+132601289+132916997
2023+133246881+133584543+133902997+134197816+134487185+134731539+134923201
2010+135125358+135335624+135513800+135674753+135862792+136076681+136262923
1996+136390089+136446418+136461673+136535672+136615853+136679832+136780385
1983+136870660+136917917+136967015+137065485+137171186+137256974+137387260
1969+137537616+137651383+137770613+137867285+137930717+137991331+138004529
1956+137932672+137809862+137663000+137482839+137256658+136966857+136531445
1942+136037158+135660678+135336012+135031662+134765541+134533997+134391102
1929+134441638+134811332+135480503+136419202+137559570+138585453+139568793
1915+140573225+141404728+142082569+142661393+143191235+143670138+144077458
1902+144456425+144850086+145212650+145477204+145744461+146013702+146184517
1888+146437196+146730749+146899134+147040922+147215144+147409883+147613823
1875+147862505+148154289+148254211+148242925+148486833+148827198+149067167
1861+149291121+149500308+149663935+149826310+150000921+150173145+150366230
1848+150600219+150568675+150428987+150638893+150835185+150884484+151063997
1834+151399589+151653878+151782252+152087076+152299887+152346929+152565520
1821+152790867+152917128+153078382+153313607+153474041+153533002+153635066
1807+153802301+153994595+154097306+154095724+154216536+154515624+154719449
1794+154562335+154389033+154582550+154720153+154592973+154536672+154580465
1780+154594353+154727788+154946119+154933755+154734473+154729139+154700945
1767+154709025+154814309+154743071+154775635+154935451+155037400+155345991
1753+155586909+155559248+155673632+155919770+156085725+156147072+156097040
1740+156164800+156491334+156251278+155671533+155761865+155927260+155784624
1726+155575422+155425411+155497656+155437286+154895814+154451847+154348245
1713+154251141+154056532+153772526+153419164+153308301+153210954+152504388
1699+152031336+151660060+150977562+150660373+150278760+149797556+149391746
1686+148454283+147452813+147154731+146890206+146300915+145546013+145189373
1672+145059303+144608291+144422811+144673679+144716882+144676396+145026307
1659+145701445+146331409+146254376+146234909+147437243+148194833+148073892
1645+148433048+149330255+150153909+150914949+151450067+152018282+153188770
1632+154346793+155069935+155817835+156660769+157333375+158166503+159042662
1618+159343432+159639271+160493907+161208711+161595543+161984014+162396553
1605+162707660+162928450+163164077+163397519+163552376+163658408+163764166
1591+163827267+163805888+163707175+163563044+163475343+163578959+163671376
1578+163197073+162664787+162848599+162778309+162086768+161632378+161432549
1564+161432219+161351534+160318865+159312708+159230399+158875039+158183655
1551+157492473+156951058+156548425+156086688+155375738+154085315+152953775
1537+152543968+151697570+150355850+149389748+148492512+147347328+146282627
1524+145119788+143574185+142189290+140830548+139309961+137907613+136628821
1510+135230153+132970566+130184588+128082115+126203221+123713398+120507707
1497+116873203+113343473+109653984+105157375+100217007+95687669+91889373
1483+88615815+85716681+83272592+81196479+79055662+76284435+73118418+70425546
1468+68428120+66846639+65418081+63994159+62850851+63212660+66392809+71601246
1452+76894501+81438181+85132875+87958591+89828169+90872843+91535242+92073458
1437+92689275+93539368+94164904+94375314+94589979+95001224+95523294+96226618
1421+97014285+97850648+99085323+100505327+101783241+103055275+104420020
1408+105785915+107023638+108181740+109151329+109582781+109364995+108204780
1394+106015260+103335191+100159074+96232930+92321522+89800098+89704389+92650349
1379+98420408+105795534+113494333+121003303+128128438+134639266+140227181
1366+144194632+146132113+146545916+146158682+145379612+144474641+143579375
1352+142655312+141636733+140801491+140757052+141790583+143386966+144837190
1339+146122322+147531614+149187849+151159232+153481704+156144168+159091329
1325+162271802+165622817+169057061+172559166+176120001+179591023+182875788
1312+185998623+188843475+191264619+193233456+194795621+196083355+197217598
1298+198281465+199344096+200427775+201455354+202279611+202762597+202780799
1285+202183758+200828409+198758212+196427559+194738343+194699194+196875393
1271+201089182+206522470+212191961+217401325+221791248+225230324+227736191
1258+229343300+230054739+229862085+228735491+226723004+223963897+220516238
1244+216432175+212207359+208741370+206708583+206585758+208940652+213934545
1231+220915952+228740019+236298569+242863944+248192466+252399052+255675349
1217+258200410+260179801+261750822+262966641+263878125+264549567+265048915
1204+265418523+265668916+265795665+265816483+265678577+265405238+265022777
1190+264537030+263978391+263329032+262552320+261674652+260719030+259653424
1177+258425499+257002591+255362761+253477972+251336378+248908276+246187024
1163+243262450+240219811+237168574+234273819+231561567+228866639+225942324
1150+222624520+218890239+214746424+210240879+205536671+200865904+196438874
1136+192386023+188704736+185266624+181963168+178752403+175542241+172159725
1123+168381924+163951932+158601240+152027512+143930279+134136669+122674418
1109+109820018+96220400+82922580+71095551+61618620+54651917+49675977+46301891
1094+44661528+45038095+47572005+52068873+57836855+63681779+68052502+69416722
1078+66706303+59887452+50717509+42397348+37679345+37099639+38482564+38356998
1063+34730157+28474926+22013972+17135162+14221991+13064888+13740847+16827455
1047+23582629+36147760+57144986+88269584+128304314+172572767+214814571
1034+249824619+274464951+286689911+284810643+267180301+233073369+187432270
1020+143677183+117470848+117312634+141291379+180447787+225307500+270492799
1007+313792418+353212359+386153663+410488623+425641349+432500866+432560589
993+427152734+417128946+402925832+384632674+362003449+334504822+301220681
980+261133150+214470770+164577151+118536627+84566184+68112347+71495941+96398231
964+143580410+209645852+285973756+361519398+426999876+477738182+513726610
951+537646761+552793793+561915011+566995671+569390907+569937239+569082430
937+567071122+564089816+560318456+555902826+550840339+545015402+538368724
924+530855218+522311560+512506622+501228541+488378922+474145329+459060722
910+443991182+430175475+419225597+412356447+408553399+403919208+393815627
897+375380451+347912390+312466067+272497177+233829794+202008630+179658940
883+168441748+173849689+203801419+259195741+328404706+394199440+444606669
870+476294456+491164009+492348630+482947115+467663585+454850484+453916860
856+467538504+488624197+507652201+520235555+526856412+529399617+529424346
843+527892545+525315870+522001588+518197851+514048026+509643726+505113711
829+500498297+495732497+490719812+485401354+479779825+473838376+467421618
816+460214805+452027672+442892824+433035496+423288037+415450412+411642017
802+412677604+417002168+421659334+424567432+425487743+424909695+423119939
789+420422726+417231053+413751089+410023982+406045619+401747537+397074441
775+391975005+386553491+381457074+377635912+375290737+373423000+370527554
762+365604842+358847949+351793506+347055741+346842844+350748113+355851834
748+359452911+360880046+360772303+359852424+358575386+357120532+355471500
735+353660668+351808975+349943078+348056536+346192249+344415835+342733506
721+340790691+338939544+337416140+335979229+334433080+332822924+331251701
708+329799464+328501695+327308850+326163191+325051204+323996208+323013040
694+322027313+321037876+320217343+319611144+319083933+318599825+318190680
681+317815264+317538158+317561075+317957367+318376404+317932754+317023686
667+317997681+320365025+321587515+321804984+322313734+323398319+324755437
654+326117587+327467804+328988850+330744791+332590359+334449297+336448011
640+338753101+341347978+344055342+346800920+349684232+352716462+355830930
627+359058344+362536123+366158967+369845847+373760288+377914944+382081963
613+386157401+390324507+394855470+399754805+404802771+409722895+414492807
600+419521910+424907538+430306566+435635692+441104679+446812068+452549994
586+458117148+463608391+469398622+475758619+482404952+488822314+495002769
573+501093051+507343092+513906325+520545699+527059532+533459325+539991446
559+546741640+553448299+560040977+566674485+573418985+580309903+587199785
546+593754219+600049116+606496584+613165978+619833072+626429027+632971614
532+639552617+646315463+652837002+658843724+664968971+671185024+677232634
519+683173048+689004599+694765758+700168697+705226468+709877020+714035356
505+717686063+720436645+722866156+724902020+725645261+724983222+722807784
492+719340242+715072237+710376943+706166964+703963290+704799179+708425387
478+713498053+717750128+718617646+715411078+709689887+703926140+702049057
465+707093141+720157843+740328947+763739225+786760688+804939117+815942881
451+822776002+826620053+827558077+826386338+823249068+819081646+814642783
438+810659158+809725217+812938514+820078501+833232858+852536041+875185251
424+900109330+925598259+947181660+967199331+987282734+1002310321+1013404546
411+1024025245+1034562096+1044368932+1053707187+1062469436+1069079826
399+1073741823
##END=
