##TITLE=34
##JCAMP-DX=4.24
##DATA TYPE=INFRARED SPECTRUM
##DATE=16/11/2015
##SAMPLING PROCEDURE=Instrument type and / or accessory
##ORIGIN=Default
##XUNITS=1/CM
##YUNITS=TRANSMITTANCE
##RESOLUTION=4
##FIRSTX=3996.3359
##LASTX=399.24785
##DELTAX=-1.9287336
##MAXY=0.9618414
##MINY=0.024207184
##XFACTOR=1
##YFACTOR=8.9578461e-010
##NPOINTS=1866
##FIRSTY=0.091146544
##XYDATA=(X++(Y..Y))
3996+101750513+101833320+101927232+102067122+102271247+102421293+102423788
3983+102362497+102367213+102461898+102604325+102758512+102871230+102913756
3969+102949363+103061714+103203941+103273491+103334782+103456299+103557971
3956+103624044+103690957+103718904+103687081+103727720+103925890+104084170
3942+104136744+104194824+104239073+104272808+104300721+104346616+104507790
3929+104723152+104806734+104759682+104798541+104930189+105004646+105037890
3915+105169222+105326928+105387253+105433099+105496511+105463740+105420781
3902+105495671+105555140+105612663+105730021+105755747+105604911+105626669
3888+105817894+105799197+105824382+105956171+105976199+106096002+106244359
3875+106221154+106178943+106085597+106100036+106252128+106229804+106194305
3861+106310616+106576630+106889389+106826044+106385979+106310383+106524206
3848+106632989+106620879+106636590+106751320+106767256+106622226+106670442
3834+106916845+107050771+107082360+107049141+107004634+107079657+107014241
3821+106960486+107228763+107279432+107190844+107348724+107555045+107537180
3807+107345206+107460685+107618349+107503511+107570541+107677627+107607154
3794+107559029+107539192+107516045+107526558+107537296+107553889+107580447
3780+107525427+107496824+107558281+107613974+107624620+107581445+107611928
3767+107636190+107610248+107652442+107617966+107506064+107556135+107765334
3753+107836780+107748075+107932022+108315221+108070856+107585013+107682958
3740+107922574+107861757+107602072+107454455+107487849+107675589+107755552
3726+107633337+107513550+107431632+107335259+107241206+107248242+107244965
3713+107008527+106727425+106652984+106649383+106526202+106194522+105781173
3699+105449226+105121463+104786240+104432260+103912150+103168301+102593263
3686+102446544+102380038+102231041+102138019+101982501+101573710+101498113
3672+101700508+101510947+101268670+101215081+101101965+100898755+100749574
3659+100581380+100257293+100089507+100080898+99746889+99165770+98802251
3645+98732235+98605054+98238973+97803034+97481518+97227139+97017391+96773468
3630+96112801+95351819+95019158+94850872+94500594+93918319+93384651+93034756
3614+92618704+92110004+91512226+90742544+90051835+89572064+89085098+88486638
3599+87888419+87300222+86677150+86148065+85703950+85004309+84048617+83287943
3584+82792926+82303465+81726189+81066595+80326224+79578175+78946337+78375224
3568+77653941+76849243+76169439+75551075+74895773+74220186+73532788+72780880
3553+71971491+71242739+70561961+69770217+68955680+68242452+67566727+66864670
3537+66161361+65522923+64911387+64221323+63450544+62657872+61870329+61128568
3522+60490708+59910380+59300105+58633600+57950394+57281601+56551078+55786727
3506+55092837+54401122+53704272+53096741+52531380+51932745+51299900+50664377
3491+50057417+49472239+48926528+48416984+47832434+47128901+46441349+45881718
3476+45357033+44718811+43981933+43308957+42834663+42499809+42104359+41592200
3460+41072380+40562342+40009644+39465184+38992012+38552651+38092355+37602270
3445+37096161+36599447+36122966+35635729+35145470+34720406+34381834+34076784
3429+33753937+33415769+33092119+32770188+32424720+32091168+31790091+31474445
3414+31136676+30839479+30614465+30402270+30103451+29704317+29332177+29120418
3398+29013827+28848993+28604541+28391335+28298499+28260965+28157973+28000872
3383+27859709+27742646+27634990+27547620+27489985+27385003+27179749+27023443
3368+27043598+27144804+27220760+27260981+27277110+27316416+27424442+27534479
3352+27553023+27558134+27663035+27816912+27963681+28106051+28211404+28332216
3337+28559505+28813120+29021479+29234059+29414261+29540049+29736576+30033427
3321+30348421+30691045+31060380+31378689+31613012+31774839+31920591+32157428
3306+32558881+33080395+33565825+33927612+34213632+34482884+34809208+35253512
3290+35756182+36237242+36721921+37243841+37761049+38233763+38674775+39107682
3275+39528354+39939682+40422082+41036873+41699444+42325398+42936767+43554112
3260+44176609+44813076+45471621+46156428+46847507+47528779+48232480+48979834
3244+49737031+50493035+51272810+52047491+52793939+53568852+54429036+55361401
3229+56282921+57149093+58028461+58972554+59931061+60866413+61789085+62729198
3213+63741273+64795443+65814838+66824177+67871139+68910912+69894982+70880276
3198+71915839+72949814+73955186+74987772+76076584+77188110+78290803+79380754
3182+80465631+81529166+82554550+83591111+84684556+85803609+86911101+88006584
3167+89053908+90020512+91000890+92059909+93118220+94144951+95162258+96138910
3152+97096964+98101811+99122761+100081747+100971540+101844216+102725043
3138+103609547+104542906+105538547+106484133+107321776+108146178+109005205
3125+109827753+110580068+111304869+112043453+112822483+113621817+114368776
3111+115058877+115763525+116490689+117186912+117819864+118411488+119034052
3098+119706953+120355326+120913289+121406643+121908630+122409295+122854516
3084+123261119+123655429+124045989+124477253+124948200+125390975+125768418
3071+126074589+126342833+126649154+126980942+127257570+127473348+127642141
3057+127746499+127814751+127897784+127996586+128086962+128130812+128075701
3044+127937216+127800761+127687445+127524616+127265430+126941293+126570688
3030+126171520+125753954+125232338+124532505+123694263+122800453+121859208
3017+120786083+119555444+118246446+116851988+115231438+113287575+111046024
3003+108552432+105771932+102640888+99124433+95090105+90390186+85059919+79179740
2988+72732373+65762164+58546155+51522760+45223701+40242214+36982949+35530635
2972+35743810+37269283+39615167+42436011+45750873+49786083+54552881+59610988
2957+64266325+67912635+70219452+71143329+70781931+69304927+67000439+64310706
2941+61865388+60267940+59732692+60061107+60912861+62037238+63355771+64942536
2926+66892587+69147903+71513852+73799809+75829408+77437066+78535625+79115995
2910+79210605+78881986+78234178+77425421+76605569+75879179+75289726+74769366
2895+74197546+73450895+72409492+71022619+69291207+67290711+65308289+63890795
2880+63685821+65040565+67758056+71364314+75480585+79893604+84437687+88944859
2864+93303773+97449804+101308178+104882463+108308650+111705110+115057072
2851+118297648+121404356+124338012+127027395+129460070+131666496+133689075
2837+135596275+137438533+139237566+141025495+142834109+144656547+146415157
2824+148027231+149502152+150891770+152229670+153509083+154716400+155924101
2810+157203413+158529520+159886733+161306343+162747047+164095776+165334084
2797+166505920+167601136+168596077+169469569+170239475+170950911+171597504
2783+172166945+172663492+173099955+173497825+173835228+174105476+174375209
2770+174657717+174887959+175054805+175182444+175291085+175430235+175606081
2756+175763197+175891451+176016494+176118299+176199110+176326333+176517283
2743+176733103+176988213+177350452+177827337+178332136+178797443+179247746
2729+179732816+180232956+180719124+181240707+181844931+182551093+183370355
2716+184239688+185058683+185782046+186409126+186960901+187476828+187995350
2702+188549271+189163410+189822047+190450408+190988509+191475591+191973636
2689+192492474+193008268+193450803+193780104+194061831+194374664+194760590
2675+195231787+195760107+196328949+196929314+197486329+197947960+198373710
2662+198799992+199207993+199621084+200048248+200444205+200797112+201156339
2648+201539737+201900162+202232076+202569529+202905883+203228415+203533646
2635+203814873+204083874+204346836+204588523+204804508+205021775+205268302
2621+205537153+205817548+206111934+206394375+206621573+206799665+206987205
2608+207202009+207388053+207528650+207675501+207839869+208006683+208183128
2594+208363864+208531459+208679559+208831717+208998680+209169236+209364096
2581+209582793+209795601+209986169+210156077+210333187+210520095+210694444
2567+210862006+211029069+211176935+211309780+211444555+211563161+211656998
2554+211719494+211756058+211820318+211917015+212016874+212164108+212419252
2540+212759233+213119709+213486788+213865811+214237049+214606972+215000118
2527+215404393+215808717+216217550+216604075+216944655+217277633+217642966
2513+218004788+218326222+218655690+219049168+219468015+219850465+220225080
2500+220648867+221122941+221608692+222080171+222538426+222980245+223408823
2486+223826821+224234855+224666361+225138804+225601201+226015290+226424488
2473+226872712+227360010+227852799+228299076+228714679+229161505+229665205
2459+230206451+230727568+231188168+231597383+231966441+232320778+232704759
2446+233082351+233375522+233612850+233889519+234219869+234519278+234733085
2432+234894874+235057995+235249677+235434839+235554792+235639845+235751365
2419+235900861+236102957+236355340+236627335+236920339+237247428+237600934
2405+237979075+238391767+238818448+239205922+239532246+239840804+240200131
2392+240600480+240951291+241184177+241297660+241332310+241340161+241351839
2378+241353353+241321963+241289342+241304912+241314145+241186423+240945552
2365+240895431+241299323+241955215+242553334+243225345+244010290+244407378
2351+244465234+244815479+245361182+245559235+245640130+246151083+246839496
2338+247274711+247476358+247727942+248101259+248435069+248703138+249013410
2324+249349665+249636781+249932597+250300458+250704865+251096581+251467819
2311+251839289+252216449+252595422+252985957+253381681+253764197+254146980
2297+254533538+254892067+255223115+255550438+255861641+256135366+256392655
2284+256652906+256881601+257056981+257209788+257355974+257480935+257597694
2270+257728676+257847249+257917930+257952530+257988461+258063417+258223377
2257+258494707+258861437+259304886+259795279+260271815+260707446+261141996
2243+261585645+262006737+262368593+262673874+262970388+263291789+263638723
2230+264014087+264408813+264791728+265143121+265457601+265726901+265988416
2216+266301599+266648300+266966024+267229519+267481602+267766921+268072519
2203+268379896+268699083+269062287+269466445+269870636+270291080+270743529
2189+271160013+271520688+271901607+272330751+272769958+273181286+273551825
2176+273911020+274281326+274649403+275014287+275376010+275719917+276064772
2162+276436808+276821437+277199911+277563613+277913892+278260992+278602820
2149+278914838+279173342+279415578+279688854+279966787+280231213+280539722
2135+280937492+281383636+281848777+282381056+282974618+283554572+284108875
2122+284669700+285230590+285751724+286216932+286672458+287152504+287622203
2108+288057967+288479991+288903545+289321743+289718083+290110597+290507901
2095+290906437+291306469+291725399+292150684+292544861+292902741+293243554
2081+293580940+293921454+294254149+294579525+294903403+295206555+295494337
2068+295766581+296027481+296404857+296911152+297415751+297876135+298315525
2054+298757544+299203455+299663007+300138462+300601607+301018041+301361217
2041+301683166+302023979+302349188+302672701+303017673+303394150+303796113
2027+304221763+304689000+305198223+305711905+306155487+306549265+307013308
2014+307493454+307899708+308276253+308644446+309007916+309375111+309720882
2000+309996154+310232367+310532059+310822202+311053559+311427175+311764894
1987+311941456+312141006+312412319+312704292+312966456+313222631+313497770
1973+313795533+314117715+314359817+314595365+315048862+315490914+315751847
1960+316012646+316293009+316491162+316636117+316753159+316794879+316744110
1946+316635119+316319757+315954791+315847929+315661919+315244753+314770329
1933+314328277+314003500+313905522+314168783+314733733+315740934+317265876
1919+318636713+320072892+321755132+323049382+323976670+324899999+325933284
1906+326881865+327642672+328333480+329035467+329683990+330239258+330916559
1892+331554202+331874754+332406035+333121130+333629488+334121445+334635559
1879+335130343+335643359+336219554+336847948+337104223+337239298+338027386
1865+338977630+339514134+339906615+340411846+341001481+341565599+342047076
1852+342485402+342955833+343527503+343610543+343657653+344659598+345517086
1838+345765976+346170433+346880205+347335665+347518714+348259992+348936428
1825+349252754+349940735+350596177+350948502+351392384+352071780+352594877
1811+352916893+353430175+354070147+354609579+354901386+355081141+355607831
1798+356462824+357047569+356929396+357016828+358090635+358951617+359036055
1784+359199475+359574689+359887389+360431445+361001552+360973739+360795015
1771+361471118+362195661+362714400+363125145+363014690+363230610+363857241
1757+364291308+365062629+365604323+365553421+366002992+366917837+367625080
1744+368012304+368130345+368509783+369493663+369284730+368534536+369542203
1730+370661456+370890084+370880736+370945212+371372925+371386000+370492946
1717+370288405+371074597+371650825+371667194+371295973+370744796+370820285
1703+370992055+369798877+369403070+369546062+368991559+369149689+368910847
1690+368159123+367460496+365619095+363998936+364392647+364680163+363709059
1676+362038829+361320041+361150799+360101013+359653438+360163227+359841477
1663+359066231+359244023+360033941+360268525+358603851+357426010+359712824
1649+360973672+359842542+359800223+361064032+361919158+362364804+362250190
1636+362494322+364597554+366775044+367677680+368535767+369826358+370977284
1622+372672798+374569760+375241005+376159876+378616431+380656052+381703310
1609+382734133+383999372+385214675+386292008+387347351+388336853+389169888
1595+389926869+390698855+391438902+392131474+392796898+393381210+393907334
1582+394576684+395142831+394728825+394589958+396091811+396690695+395876391
1568+396020115+396772106+397399137+397281163+395134281+394177616+396157485
1555+397065543+396615273+396044901+395811515+395665761+395162161+394372708
1541+393065981+392960517+394493144+394230381+392527481+392040216+391766507
1528+390699321+389822203+388884935+387382417+386683025+386036731+384810882
1514+383737308+382667960+381111345+377955532+374843734+374134827+373231759
1501+370141088+365639156+360875361+356666134+351636815+344364198+336431281
1487+329751194+324388713+319557381+315037750+311080208+307379739+303168616
1474+297560141+291349088+285976460+280900330+275518470+270406592+265685980
1460+260792732+257459609+259601284+266859495+274806402+281446782+286999963
1447+291934964+295978342+298808579+300726933+301577069+301857831+302973590
1433+304056613+304080900+303965588+304281149+304707498+305443952+306187260
1420+306755703+308487115+311037423+313154229+315004680+317037215+319164434
1406+321105711+323182926+325232794+326354443+326653370+325773890+323358390
1393+320277067+315889350+309093352+301405598+295458738+292800504+294565551
1379+300968803+310525671+321443929+333251414+345507904+357150705+367380383
1366+374951993+379178586+381229818+382201122+382304290+381943216+381457515
1352+380721926+379585971+378389466+377743539+377970936+378629506+379124656
1339+379797665+380962398+382369831+383980242+386003828+388518870+391404136
1325+394586831+398031390+401632317+405395864+409398620+413481056+417530056
1312+421642568+425652643+429371975+432836197+436049101+439022464+441786629
1298+444317208+446557145+448536315+450308117+451777731+452735195+452990439
1285+452341749+450649462+448049117+445056191+442651869+442060470+444074407
1271+448651228+454978326+461908632+468539580+474431146+479465323+483661275
1258+487004362+489488198+491139863+491928983+491910684+491201778+489777177
1244+487588542+484932736+482457783+480718819+480221805+481602024+485101811
1231+490258154+496269324+502398401+508084062+512979505+517042512+520464747
1217+523438144+526003922+528154065+529962829+531585383+533144360+534590353
1204+535858420+537064440+538339960+539557691+540594902+541430299+542176634
1190+542929923+543592352+544043986+544322718+544499113+544567615+544478253
1177+544233256+543844934+543248978+542372326+541138160+539515273+537620540
1163+535559261+533376315+531261471+529412152+527797050+526272175+524701720
1150+522958098+520892128+518354495+515322012+511918407+508289135+504546747
1136+500856026+497337874+493907122+490517523+487308778+484284479+481151888
1123+477499593+473023945+467481177+460340407+450821532+438224728+421972568
1109+401576590+376828261+348344563+317967031+288184258+260904218+237108295
1096+217861047+204820744+199437769+202156404+212132136+227316261+244926017
1082+261767130+274388421+279549255+275060132+261430243+243799444+230554683
1069+226650072+228101455+224968864+209650330+182235682+149277849+118615838
1055+95448509+81993268+79076629+87450392+108203668+142062838+188143782
1042+243224929+302005081+358554845+408163190+448557708+479700805+502068367
1028+515240402+517143751+503955947+474117547+435710816+407263382+405185967
1015+429971592+468625681+508424542+544088168+575044190+601482944+623266360
1001+640154434+652171783+659877469+664160786+665714406+664723507+661051683
988+654637653+645431112+632815777+615181801+589880599+553519843+503772565
974+443859154+386803993+352297747+354539081+392483698+452365670+517782991
961+577409453+626379456+663990979+691474062+710907853+724611501+734509249
947+741776376+747052323+750865741+753709953+755806531+757211902+758080170
934+758578947+758685276+758226489+757138177+755517818+753477465+750916245
920+747503391+743081473+737730403+731497825+724441227+716772204+709001177
907+702080718+696872508+692970858+688295559+679967999+665419306+642819122
893+611139288+570892554+525187222+479275620+438851026+410710171+405092014
880+431283442+486889017+555781672+619635192+668530205+701294226+720832150
866+730260731+731781481+728089230+723859476+724390524+731538015+742228775
853+752178024+759416074+763920967+766186221+766952352+767021353+766692517
839+765758509+764166828+762280912+760413162+758511210+756324870+753776691
825+751092573+748367866+745242528+741378007+736876641+731858799+725982937
812+718767111+710355046+701795864+694865091+691527693+692715681+697293500
798+702713038+706960424+709350240+709979700+709479259+708576924+707343024
785+705410797+702905203+700327614+697771982+694998702+691821596+688345064
771+685079794+682564752+680773255+679048829+676680971+673344304+668985133
758+664077479+660262131+659293256+660939299+663299172+664964245+665619189
744+665349839+664448701+663253726+661953487+660613058+659142346+657536692
731+655997178+654576570+653077379+651440785+649815170+648210581+646697084
717+645333433+643968917+642450496+640874652+639451116+638257871+637180471
704+636033804+634808155+633691564+632801471+632062488+631338876+630561235
690+629815532+629271708+628927967+628627544+628288594+627928817+627590000
677+627295432+626970855+626570090+626302204+626579539+627639971+628876599
663+629553834+629771815+630186420+631117501+632242210+633262520+634398674
650+635911638+637608783+639230739+640843645+642599876+644460840+646307365
636+648210048+650352805+652734237+655216742+657758799+660330134+662959956
623+665651327+668303374+671052900+674245908+677865632+681472247+684822621
609+688054621+691440460+695117740+698911131+702796145+706916309+710954763
596+714727992+718688329+723115636+727754538+732080973+736109047+740203859
582+744257084+748389824+752982548+757757722+762449988+766782345+770780542
569+775043166+779794186+784524646+788878827+793208256+797791532+802462905
555+807117111+811818493+816533515+821245145+826035423+830816186+835432598
542+839968963+844648720+849451641+854093604+858350172+862483111+866989601
528+871376519+875133513+879137300+883343765+886919439+890010510+893445455
515+897656045+901741276+905090585+907776300+910319555+913087512+915268861
501+917209938+919168981+920373071+920589190+919620381+918274696+917420335
488+916252575+914247288+912824683+913474038+915645140+918059642+919772623
474+919479784+917433909+914973960+911883023+909850987+911646609+917716766
461+925984175+933817616+941971975+949155130+952461854+953814792+953616572
447+950985153+946769439+942025006+937525437+932565351+927498204+925668314
434+927723638+931454682+937711347+947824881+960287111+973591990+986366886
420+996644506+1009453337+1025114164+1035244399+1041019788+1046567081+1051648201
407+1055971243+1060958676+1066856829+1071108674+1073741823
##END=
