##TITLE=34
##JCAMP-DX=4.24
##DATA TYPE=INFRARED SPECTRUM
##DATE=16/11/2015
##SAMPLING PROCEDURE=Instrument type and / or accessory
##ORIGIN=Default
##XUNITS=1/CM
##YUNITS=TRANSMITTANCE
##RESOLUTION=4
##FIRSTX=3996.3359
##LASTX=399.24785
##DELTAX=-1.9287336
##MAXY=0.93937099
##MINY=0.021443607
##XFACTOR=1
##YFACTOR=8.7485741e-010
##NPOINTS=1866
##FIRSTY=0.098522641
##XYDATA=(X++(Y..Y))
3996+112615656+112686179+112676360+112672247+112705563+112726360+112762886
3983+112866879+113034796+113231080+113421080+113564810+113628393+113690562
3969+113857866+114084937+114236434+114239525+114192072+114244337+114388135
3956+114554766+114722402+114868746+114969520+115048560+115152587+115243789
3942+115336745+115464166+115523210+115515613+115541145+115624384+115749438
3929+115859665+115896012+115893449+115957373+116076150+116164354+116187808
3915+116209099+116272315+116365578+116496661+116626373+116649001+116621655
3902+116673247+116733722+116784803+116898206+117002438+116949270+116944203
3888+117109343+117141518+117107189+117162494+117140386+117118371+117197368
3875+117287957+117393466+117358387+117226145+117213856+117191884+117113942
3861+117077382+117165781+117405908+117562225+117437878+117375573+117477079
3848+117541803+117523689+117526406+117644229+117773899+117756645+117718083
3834+117765979+117827203+117926205+118029576+118079772+118175333+118179362
3821+118112168+118264780+118339341+118222437+118199085+118250183+118191778
3807+118037496+118141626+118324480+118200363+118131083+118268971+118372946
3794+118410614+118419386+118440728+118485141+118481589+118484476+118586400
3780+118640078+118585037+118542192+118565356+118579842+118475824+118372589
3767+118331216+118313068+118382808+118429946+118338523+118287230+118429708
3753+118542694+118392296+118288550+118552777+118627100+118378806+118416533
3740+118648978+118636570+118395029+118260233+118269439+118343241+118324744
3726+118133646+117913158+117771804+117686938+117626200+117626157+117587587
3713+117303056+116879019+116605934+116466880+116270237+115866359+115317208
3699+114777366+114196807+113588536+113030946+112415300+111594496+110835366
3686+110474648+110343531+110209535+110066852+109850793+109429455+109255782
3672+109408625+109268693+108939136+108780494+108675930+108498535+108324018
3659+108117207+107772670+107580218+107670474+107585720+107129346+106659432
3645+106425309+106250929+105971286+105631382+105281292+104882711+104520537
3632+104225173+103646488+102891651+102430840+102139778+101744466+101169562
3618+100529832+99981865+99437765+98836367+98203859+97498851+96836416+96325112
3603+95792347+95091904+94387748+93752386+92986640+92143063+91443463+90701494
3587+89731662+88838255+88200382+87590152+86848814+86029201+85192267+84364632
3572+83618533+82921769+82058468+81046863+80168692+79430309+78653730+77811251
3557+76971174+76142790+75326763+74581004+73828526+72919416+71921880+70992011
3541+70163103+69389518+68618231+67840332+67062791+66277729+65460357+64578733
3526+63646177+62745591+61970328+61268505+60485457+59618605+58806355+58078183
3510+57343402+56587568+55824326+54995162+54152471+53438631+52822487+52167806
3495+51459026+50790749+50186148+49548407+48840720+48122947+47400876+46682783
3479+46024828+45388070+44722033+44070043+43415184+42714804+42048597+41479250
3464+40931449+40362251+39819854+39303743+38760643+38165620+37554602+36989820
3449+36475663+35969976+35457422+34953802+34462929+33950755+33408475+32907169
3433+32516127+32194720+31850387+31481002+31138211+30821844+30492630+30115158
3418+29701192+29302316+28983209+28767686+28562034+28271050+27914552+27511288
3402+27075769+26773893+26700090+26610577+26321290+25998440+25824048+25727918
3387+25601646+25462913+25352267+25269660+25183880+25069475+24942980+24804066
3371+24635383+24510974+24538814+24672531+24773492+24802618+24802635+24801362
3356+24809489+24821216+24832146+24897844+25043343+25192279+25307671+25386926
3341+25385457+25397437+25621140+26000605+26291495+26434638+26562289+26759221
3325+26999605+27265128+27555318+27842808+28127024+28421167+28700671+28941735
3310+29174652+29453948+29805866+30224057+30672940+31092144+31431388+31734467
3294+32100380+32554214+33068686+33588889+34061812+34500987+34950432+35449526
3279+35969273+36432247+36865771+37336243+37869992+38504140+39196757+39855457
3263+40484244+41128309+41783611+42421548+43072908+43783490+44501694+45183609
3248+45885134+46651941+47459009+48286333+49155459+50032812+50839479+51617391
3233+52501238+53497705+54495973+55470578+56454986+57432333+58404776+59438655
3217+60548976+61645446+62675570+63697786+64776448+65906306+67036645+68137761
3202+69237233+70373091+71547230+72735489+73922768+75122141+76313611+77455413
3186+78588248+79804091+81104885+82375335+83556636+84712524+85877500+87056774
3171+88284421+89541986+90784732+92004919+93180565+94296487+95396584+96523594
3155+97663523+98801714+99956572+101114853+102261893+103408925+104519566
3142+105561327+106585050+107655111+108747127+109780848+110737412+111667055
3128+112628882+113640205+114644860+115582100+116474093+117366571+118252466
3115+119123202+119988019+120831502+121642598+122454111+123274797+124048387
3101+124776150+125515888+126243447+126923255+127584906+128221469+128796372
3088+129341588+129895942+130444420+130986485+131508247+131985162+132454599
3074+132947627+133436303+133876674+134255975+134605477+134929975+135200982
3061+135435896+135661017+135836931+135935856+136021020+136132217+136202273
3047+136167518+136048987+135886683+135681729+135427968+135130040+134763693
3034+134286327+133708902+133089986+132411234+131598120+130654407+129598697
3020+128362814+126923885+125398218+123830079+122112240+120169689+117995034
3007+115562734+112826162+109763628+106367151+102601431+98426186+93791383
2993+88543156+82484642+75740597+68691042+61470951+54080154+46835285+40369022
2978+35323835+32063830+30629875+30857634+32366216+34652799+37431477+40745261
2963+44784168+49577993+54743492+59604136+63511627+66065506+67162768+66874588
2947+65357309+62927027+60120413+57604696+55957057+55395818+55729419+56585856
2932+57685243+59002393+60655047+62668599+64954571+67390388+69821368+72039491
2916+73797007+74899549+75367343+75369711+74990887+74290265+73385370+72413682
2901+71615684+71132101+70752310+70186460+69336171+68216873+66803860+65031904
2885+62967544+60923146+59465511+59276938+60751239+63695605+67576381+71986519
2870+76758998+81763385+86785435+91645887+96296616+100704357+104810824+108692401
2855+112556586+116472373+120323545+124024533+127525292+130731301+133586531
2841+136157332+138573204+140888498+143093557+145221210+147328850+149445841
2828+151555593+153608848+155578217+157433620+159140925+160745709+162296653
2814+163782141+165243016+166752759+168315558+169924617+171593479+173265593
2801+174863701+176398907+177863853+179186406+180359685+181418930+182367957
2787+183208604+183948214+184603529+185201614+185752536+186254336+186685774
2774+187019392+187282786+187507276+187693427+187895161+188146479+188376505
2760+188521044+188604232+188709136+188875358+189052481+189208619+189379763
2747+189590986+189821370+190061667+190334530+190660740+191073731+191607365
2733+192245749+192918881+193530354+194035475+194504589+195071964+195822441
2720+196735392+197741938+198777337+199766986+200647422+201403622+202059261
2706+202664994+203281474+203939941+204641039+205376476+206108847+206796286
2693+207434006+208029077+208609005+209167081+209633640+210021985+210404437
2679+210807413+211267533+211806021+212378762+212958384+213579957+214250227
2666+214883110+215405570+215854620+216313753+216819197+217318152+217739660
2652+218139212+218591055+219033087+219427939+219828564+220245796+220630037
2639+220956672+221271862+221586472+221859523+222125062+222433831+222745784
2625+223008564+223257701+223558720+223896972+224215517+224496471+224746919
2612+224965261+225154903+225361782+225605570+225797750+225905635+226035117
2598+226216140+226376571+226517483+226675852+226822470+226940114+227067008
2585+227220642+227388482+227571141+227783794+228025249+228273125+228509130
2571+228714101+228880528+229032016+229190761+229356046+229495646+229577607
2558+229635893+229714635+229772546+229777332+229790396+229852446+229962154
2544+230133315+230365794+230675107+231065837+231489286+231922001+232363607
2530+232810204+233258606+233695562+234115912+234523487+234919428+235317584
2517+235741204+236155711+236496773+236798933+237168951+237625239+238077456
2503+238508059+238984037+239508388+240026131+240491071+240940087+241437373
2490+241951470+242435045+242885968+243331134+243817859+244344084+244854127
2476+245335453+245833540+246367787+246912969+247448868+247975791+248501691
2463+249036824+249588904+250159856+250747620+251299308+251742720+252119789
2449+252517451+252915300+253267246+253578314+253882569+254231653+254586972
2436+254876783+255145235+255405801+255596022+255734770+255871883+255972972
2422+256005845+256045344+256180293+256375062+256564499+256796042+257112594
2409+257480040+257886439+258327006+258776328+259221852+259639527+260026987
2395+260425994+260855762+261262435+261587895+261821464+261978267+262064759
2382+262070345+262013848+261949839+261870007+261693259+261449981+261283811
2368+261170390+260957124+260771059+260963971+261601061+262475876+263513251
2355+264576414+265188108+265353581+265605119+265900602+265879277+265870471
2341+266343060+267013687+267482120+267691179+267897922+268329138+268898727
2328+269435972+269940599+270433576+270869731+271283097+271728979+272206456
2314+272690286+273121417+273480772+273836670+274222835+274596957+274956585
2301+275349444+275764837+276140033+276475985+276826449+277184119+277488595
2287+277722743+277936264+278162884+278368111+278521626+278646152+278766624
2274+278865465+278928247+278982684+279037870+279071543+279092459+279139197
2260+279239247+279407547+279661487+280015920+280469738+281007170+281598766
2247+282154798+282581977+282933140+283326765+283759872+284175043+284547752
2233+284884045+285219146+285576304+285943580+286307466+286642873+286951744
2220+287282246+287629304+287941376+288222961+288510472+288786742+289038894
2206+289308964+289611294+289916077+290234690+290614041+291038189+291460463
2193+291888188+292333762+292778179+293202735+293604979+294013014+294461212
2179+294919254+295317683+295654384+296001374+296399189+296809949+297205550
2166+297605886+298014772+298410952+298789589+299167646+299532486+299857333
2152+300180886+300533905+300849725+301099492+301339550+301587410+301851859
2139+302172619+302544612+302947367+303401560+303904705+304420591+304953918
2125+305521958+306121746+306755532+307391634+307963796+308464795+308962592
2112+309485188+309991263+310480033+310974219+311429264+311813555+312196756
2098+312648463+313135256+313615987+314048310+314418191+314803334+315245707
2085+315663314+316018207+316359814+316711403+317065989+317413830+317747807
2071+318087575+318440151+318758968+319046344+319414181+319876039+320367705
2058+320877322+321385134+321885452+322394150+322906561+323399078+323858279
2044+324280655+324642088+324953922+325266983+325602527+325960928+326335170
2031+326744772+327194298+327661232+328130380+328600414+329095145+329591783
2017+330062294+330565303+331075261+331529897+331950400+332321065+332623940
2004+332912916+333252343+333634693+334000487+334327582+334594075+334823267
1990+335126721+335387628+335574101+335815318+336089101+336335700+336547280
1977+336770613+337056216+337384402+337693988+337919501+338111186+338412358
1963+338762039+339067367+339341150+339578756+339762811+339896926+339982396
1950+339984474+339843511+339586488+339198314+338768579+338455280+338065607
1936+337486564+336815681+336156176+335634976+335416822+335672278+336395247
1923+337608041+339286509+340967157+342666609+344430717+345889940+347051944
1909+348132190+349226709+350251157+351140364+351933746+352693608+353412387
1896+354031150+354684557+355372098+355907095+356518465+357204576+357752823
1882+358279371+358820840+359341767+359850261+360375583+360939943+361329310
1869+361674494+362411771+363258533+363845922+364307337+364807553+365336247
1855+365842049+366307143+366750027+367193626+367710772+367983772+368224988
1842+369045554+369818088+370182213+370557885+371110868+371561587+371877066
1828+372577075+373307368+373797670+374444640+375037956+375427595+375861077
1815+376438348+376948954+377357976+377883196+378487890+379016005+379354308
1801+379593753+380038170+380676520+381170298+381285370+381498006+382280658
1788+382976170+383186012+383388224+383725710+384028517+384428001+384825441
1774+384874734+384823091+385349843+386005533+386499583+386842348+386816902
1761+386969821+387466051+387908015+388542277+389101971+389349217+389871098
1747+390657804+391293838+391677720+391825496+392053802+392707788+392806714
1734+392542231+393245953+394055516+394297754+394293019+394236198+394374333
1720+394363330+393831093+393614676+393996582+394304124+394219131+393812766
1707+393213897+392946212+392810700+391841336+391276056+391173383+390644654
1693+390395058+389853146+388894172+387964222+386410468+384869181+384520761
1680+384220134+383197969+381703591+380740154+380224439+379287676+378682505
1666+378727403+378394551+377769554+377676726+377985630+378083943+377206931
1653+376610174+378075222+379102803+378750466+379001595+380079184+380900738
1639+381456208+381839477+382635278+384608343+386641772+387916327+389154772
1626+390685431+392110009+393740956+395476415+396588785+397892943+400121123
1612+402104374+403426620+404643775+405944969+407176738+408283658+409345304
1599+410348938+411211200+411958355+412692225+413422109+414092617+414682493
1585+415185059+415606583+416047423+416443228+416324000+416302402+417191576
1572+417587552+417078138+417037396+417340373+417518637+417280180+415891302
1558+415153480+416272152+416869829+416547809+416006579+415559914+415100406
1545+414416715+413630691+412602156+412184276+412744924+412334232+410937212
1531+410122028+409475877+408327466+407176977+405934682+404242656+402987552
1518+401898074+400499249+399096165+397588433+395714907+392723322+389371224
1504+387347265+385395729+381994645+377221647+371718867+366252945+360160937
1491+352239415+343424733+335574135+329134115+323443908+318122900+313352491
1477+309037433+304437726+298422569+291319978+284788782+279069039+273408707
1464+267631735+261938410+256578381+253367620+255417877+262369337+270554814
1450+277925329+284283831+289788842+294131084+297093441+299023958+300109280
1437+300736219+301665624+302413597+302380928+302141142+302201983+302456349
1423+302975368+303605407+304184790+305362702+307006662+308479988+309896153
1410+311545972+313442866+315482359+317799109+320205656+321939718+322384782
1396+320737756+317325465+313779943+309566707+302882608+294572503+287655636
1383+284482364+286366808+293349727+303900004+316244878+329569607+343270111
1369+356489135+368166089+376891145+382098374+384665198+385675167+385786561
1356+385510564+385068600+384321172+383118563+381771381+380970879+381143761
1342+381899023+382558699+383217795+384244048+385660008+387462338+389733577
1329+392490315+395639588+399126074+402949263+407033459+411285939+415703670
1315+420215829+424740900+429327220+433845171+438073703+441960354+445541304
1302+448871771+451932202+454657225+457043843+459160664+461025810+462512899
1288+463415767+463518440+462532827+460270786+456987806+453372723+450464360
1275+449526132+451460226+456235200+462887209+470128889+476995441+483027869
1261+488118697+492300730+495581018+497972303+499469680+500016429+499877067
1248+499407613+498170291+495445881+491952616+489311836+487788944+487053678
1234+487912329+491180729+496601718+503299238+510338502+517015446+522928646
1221+528037154+532494127+536370968+539673468+542472958+544908801+547117462
1207+549160429+550975941+552545877+554014707+555489055+556845503+557988089
1194+558939534+559794813+560572797+561135966+561413053+561529659+561620579
1180+561687688+561590193+561246678+560747450+560089580+559066768+557560092
1167+555696581+553596691+551232794+548629963+546045119+543774459+541821152
1153+539982849+538082105+535950943+533389603+530254092+526547408+522383464
1140+517896070+513244276+508677816+504367255+500217005+496135500+492257569
1126+488615745+484847231+480452563+475095276+468462344+460022960+449030447
1113+434670131+416285131+393537041+366376398+335551005+303189878+271951698
1099+243669982+219268479+199678706+186231018+180137613+181919725+190903949
1086+205041529+221481193+237081420+248563929+252874728+247950310+234399063
1072+217327946+204435097+199848573+200330887+197546556+183905002+158436572
1059+127433707+98983052+78045936+66116711+63489991+70845283+89426266+120383083
1043+163585618+216605488+274634429+332166647+384716807+429243010+464168134
1030+488753471+503142367+506708055+494761167+463940986+423028469+392614585
1016+390346310+416912513+458841199+502690286+542616407+577760299+608206067
1003+633709840+653815822+668348576+677850083+683311235+685476769+684577717
989+680577423+673467508+663152316+648870146+628835770+600256510+559567836
976+504386638+438588192+376656026+339465965+341503686+381638594+445859985
962+517066715+582898511+637603577+680007169+711272005+733601432+749438413
949+760816988+769041045+774930466+779155319+782306636+784640590+786107648
935+786833921+787119184+787010107+786285128+784811734+782651923+779915590
922+776514165+772125526+766539626+759743657+751810042+742880629+733192103
908+723359958+714536692+707739292+702525454+696442269+686240378+669351119
895+643838762+608450452+564124996+514716308+465737116+422853680+392965152
881+386673486+414067102+473421373+548026870+618092308+672519810+709521455
868+731895916+742999517+745278012+741632542+737264002+738220966+746620936
854+758983659+770439632+778719215+783844482+786459747+787314651+787171577
841+786535645+785378718+783494768+781104743+778664914+776241710+773441334
827+770173854+766848258+763549915+759801228+755226933+749905857+743918736
814+736942221+728549745+718865103+708931920+700785192+696747494+697838199
800+702793412+708801858+713532990+716161541+716806943+716148392+714902554
787+713192814+710913638+708226631+705347087+702383879+699247687+695606714
773+691487191+687498752+684305330+682041483+680059698+677435508+673619235
760+668580561+662972860+658519974+657147208+658776963+661219993+662729156
746+663142641+662772351+661750936+660274748+658614471+656853224+654988828
733+653108897+651279316+649484821+647610137+645672977+643805310+641899218
719+640023239+638310093+636669574+634950091+633160843+631443949+629952500
706+628687790+627487395+626210762+624865794+623608101+622542060+621586119
692+620588958+619501319+618478337+617745523+617344097+617042619+616541654
679+615869204+615367217+615068532+614653139+614222689+614361744+615237700
665+616060310+616417724+616711435+617339669+618266382+619249099+620199727
652+621311007+622730237+624281710+625723968+627092441+628642006+630513556
638+632590316+634691262+636791391+638983428+641344974+643929649+646695074
625+649621491+652638864+655526720+658425817+661684576+665225124+668787338
611+672311466+675811272+679297247+682928886+686827188+690991609+695291064
598+699366983+703285180+707609435+712326804+716830925+720985330+725279608
584+729786386+734195668+738632680+743283213+748043096+752852782+757353087
571+761588637+766135339+770883026+775320038+779625012+784339043+789426158
557+794535756+799545815+804494352+809442752+814313484+819101369+823995469
544+828972689+833716016+838270553+843082420+847988920+852415099+856567461
530+860984374+865348826+869353685+873444524+877466484+881215511+884926591
517+888742795+892970101+897294969+900977842+903831632+906408335+909104948
503+911489318+913523565+915239981+916365909+916500944+915264372+913422936
490+911767564+909818754+907525066+906338842+907362778+909761320+912050920
476+913436562+913234827+911234305+907927718+903912504+901628763+903567899
463+909415147+917121411+925067766+933145273+939632270+942599975+943085815
449+941621482+938407416+933971494+928535210+922701451+916443783+910029823
436+905861791+905511190+908955606+917033454+929569843+944331857+959622361
422+974304799+986784503+999628365+1013921845+1025339323+1033030393+1038753917
409+1044327349+1050257921+1055736174+1061379304+1067573406+1073741823
##END=
