##TITLE=34
##JCAMP-DX=4.24
##DATA TYPE=INFRARED SPECTRUM
##DATE=16/11/2015
##SAMPLING PROCEDURE=Instrument type and / or accessory
##ORIGIN=Default
##XUNITS=1/CM
##YUNITS=TRANSMITTANCE
##RESOLUTION=4
##FIRSTX=3996.3359
##LASTX=399.24785
##DELTAX=-1.9287336
##MAXY=0.95059377
##MINY=0.023867074
##XFACTOR=1
##YFACTOR=8.8530944e-010
##NPOINTS=1866
##FIRSTY=0.087326266
##XYDATA=(X++(Y..Y))
3996+98639258+98684223+98696376+98707182+98757070+98857151+98980569+99094350
3981+99192302+99286188+99368764+99425714+99511950+99675141+99841900+99945120
3965+100018152+100081388+100121565+100191854+100311602+100390147+100435062
3952+100548465+100674853+100686071+100650413+100683959+100757193+100827894
3938+100868500+100879188+100928345+100996639+101048060+101179371+101388571
3925+101509380+101557804+101695285+101841913+101807896+101676004+101664592
3911+101777313+101897137+101999877+102058283+102047006+102050759+102104932
3898+102168555+102268939+102375441+102335533+102246687+102358937+102485544
3884+102453505+102476565+102520815+102529508+102629959+102740147+102829338
3871+102867184+102769359+102780105+102961314+103051464+102990526+102928930
3857+103082300+103359844+103304931+103032798+103025316+103197933+103324085
3844+103368807+103406493+103501381+103535844+103474652+103491930+103578276
3830+103648834+103718601+103756775+103821787+103857285+103704858+103714486
3817+103976882+104050957+103988470+104053137+104159227+104104137+104047356
3803+104222665+104333745+104286827+104313564+104332457+104301479+104275230
3790+104224828+104194539+104215966+104273353+104386571+104483883+104468002
3776+104405389+104393371+104443798+104495429+104513548+104517537+104508676
3763+104574613+104690532+104653697+104533494+104553094+104648125+104549273
3749+104339123+104464459+104716024+104574571+104388380+104506689+104611618
3736+104504392+104374553+104357074+104431621+104526929+104524236+104422422
3722+104308498+104184718+104082744+104083518+104203864+104257018+104061452
3709+103797608+103671986+103657039+103579555+103306715+102923662+102538236
3695+102165837+101812256+101469068+101065009+100619241+100332700+100230213
3682+100143370+100090730+100151180+100051916+99765426+99675747+99600510
3668+99373308+99279860+99236308+99016588+98758501+98611671+98379210+98013274
3653+97793025+97604435+97165106+96687543+96421368+96213237+95887403+95520071
3638+95204209+94880790+94566662+94351858+93995878+93351851+92836308+92535687
3622+92190707+91713894+91163324+90659875+90162888+89641496+89186867+88674715
3607+88068559+87581184+87182250+86676293+86086093+85487537+84809678+84114997
3591+83585113+83042488+82225382+81418804+80927027+80549789+80045591+79405082
3576+78681727+77937039+77304601+76788587+76124808+75277413+74584297+74065009
3560+73468279+72786195+72131304+71459025+70705382+69970052+69309064+68592787
3545+67802641+67097511+66490093+65843297+65123835+64420729+63785817+63169457
3530+62496311+61763822+61021734+60307633+59639776+58989328+58314739+57641800
3514+56984245+56289323+55549592+54859253+54266070+53672496+53046361+52469980
3499+51922974+51330999+50706303+50082112+49425975+48731710+48120328+47652574
3483+47143040+46458201+45782808+45261264+44788789+44259474+43656701+43043068
3468+42515928+42062093+41587927+41064477+40531863+40039943+39610068+39196116
3452+38738285+38252092+37766004+37273920+36792124+36308978+35781922+35244923
3437+34769759+34386800+34069194+33762470+33453581+33155286+32855686+32547463
3422+32230289+31895343+31563500+31245749+30910148+30579540+30329176+30137605
3406+29902590+29583606+29208940+28882350+28725050+28659754+28506151+28266644
3391+28109439+28042302+27945620+27816566+27711469+27633459+27546787+27434739
3375+27332239+27228119+27073619+26959020+27005508+27116727+27151983+27163969
3360+27229028+27301643+27342919+27354837+27353062+27414667+27562655+27719624
3344+27871247+28035387+28168297+28283478+28465577+28716662+28959721+29150046
3329+29295164+29434752+29638092+29919668+30203240+30466131+30740633+31017624
3314+31290209+31561484+31811454+32050250+32362396+32782796+33219690+33593877
3298+33915047+34233429+34591569+35005230+35462303+35929308+36388099+36846612
3283+37320282+37800180+38250009+38679197+39131895+39619607+40163646+40771309
3267+41381399+41961836+42524280+43061107+43586703+44155539+44817777+45552442
3252+46239950+46800441+47356477+48082146+48929898+49727706+50446394+51171373
3236+51915968+52654614+53448341+54356670+55328433+56255955+57095169+57900443
3221+58739552+59627767+60531497+61444724+62410685+63420900+64397211+65313708
3206+66250373+67258631+68289095+69297446+70303575+71344158+72402806+73412499
3190+74348478+75281773+76302945+77398328+78483216+79537681+80579371+81595923
3175+82602721+83634724+84687380+85724820+86716865+87677654+88626367+89562952
3159+90528714+91544694+92539491+93465506+94368437+95294662+96235522+97162042
3144+98049639+98891311+99741718+100660428+101607954+102507712+103327982
3130+104092220+104864133+105672411+106458825+107184990+107920017+108673374
3117+109382690+110107559+110897626+111644822+112284296+112900273+113549391
3103+114191230+114782010+115318795+115852087+116415953+116961903+117444464
3090+117891477+118355709+118847722+119353671+119872328+120362304+120772498
3076+121152698+121549696+121893212+122155793+122413047+122697509+122984050
3063+123247220+123478941+123686861+123856574+123981995+124094935+124186086
3049+124239796+124303941+124374263+124374348+124296771+124184984+124033500
3036+123826193+123560902+123224776+122834687+122407602+121917037+121350309
3022+120712401+119982179+119136190+118174172+117109760+115961012+114715475
3009+113323133+111706383+109792893+107589260+105125629+102335104+99079235
2995+95245068+90812066+85794924+80182044+73954762+67148124+59936046+52787474
2980+46414826+41450939+38264290+36935942+37267852+38823680+41091862+43825004
2964+47139455+51205987+55936298+60925175+65555267+69219848+71555184+72475619
2949+72089486+70624860+68385287+65771132+63341307+61686876+61081065+61358761
2934+62139174+63131375+64317577+65827332+67690383+69821451+72094948+74331486
2918+76350915+77986979+79087865+79645757+79746216+79449770+78850001+78103714
2903+77369352+76728388+76161467+75608810+75011188+74239384+73143126+71731554
2887+70080607+68200258+66264806+64828277+64561816+65785758+68321508+71736224
2872+75659339+79857532+84170364+88460609+92574711+96405033+99958896+103318380
2856+106552838+109687956+112735618+115701124+118557116+121236671+123685456
2843+125904827+127949040+129875726+131689767+133383428+135003931+136628524
2829+138272532+139884956+141424280+142900023+144342457+145725289+147003934
2816+148189753+149325330+150451851+151605774+152836516+154164090+155522366
2802+156826999+158056967+159222453+160311070+161317278+162256851+163113714
2789+163859959+164534552+165188341+165784937+166274820+166700474+167108371
2775+167453048+167721293+167981240+168235548+168425341+168568359+168729841
2762+168888311+169003607+169115672+169249971+169392231+169523030+169630230
2748+169754885+169936683+170136423+170325947+170558526+170868395+171239784
2735+171661180+172127516+172624300+173110160+173564175+174007890+174484628
2721+175071764+175785827+176547961+177317350+178067870+178717603+179263586
2708+179782218+180281644+180774810+181332457+181957195+182577001+183139984
2694+183644511+184130725+184643886+185167887+185647352+186067973+186430071
2681+186735884+187034779+187390599+187838908+188377536+188951089+189483472
2667+189955329+190401130+190826212+191226635+191631687+192045475+192447093
2654+192839320+193232607+193596034+193902369+194208838+194562049+194910126
2640+195205470+195472251+195735009+195993424+196261114+196528450+196760338
2627+196971928+197224789+197517777+197774610+198012524+198303694+198595453
2613+198817815+199009122+199221789+199442165+199638304+199831800+200049499
2600+200260416+200443207+200592183+200701404+200825065+200986026+201141112
2586+201297578+201478905+201664945+201836509+202006659+202179200+202353676
2573+202560250+202772008+202925058+203047424+203201820+203393548+203594231
2559+203767546+203897536+203999570+204067014+204096654+204142318+204229893
2546+204343405+204525944+204803311+205115975+205425760+205735748+206073036
2532+206459708+206851109+207210598+207568573+207954790+208354608+208727107
2519+209036371+209312089+209632933+210000097+210376502+210762736+211131802
2505+211454194+211778236+212171759+212624495+213083946+213527358+213945134
2492+214330780+214716593+215132047+215549875+215975209+216430402+216876490
2478+217313202+217776744+218238215+218667589+219096357+219524771+219928443
2465+220345446+220799680+221281349+221795251+222311678+222791412+223224926
2451+223593571+223914886+224242698+224570510+224876037+225175235+225469519
2438+225741837+225998216+226250875+226465393+226632632+226816618+227026053
2424+227191525+227282449+227346695+227451303+227614704+227820959+228067777
2411+228368625+228735486+229151731+229570871+229956146+230289428+230613016
2397+230978042+231368686+231717891+232006637+232265978+232495275+232658154
2384+232744079+232765169+232728729+232675390+232674615+232760608+232946715
2370+233195604+233346145+233276547+233211055+233496636+234019459+234503064
2357+235001969+235561283+235862821+235909697+236232038+236823635+237149595
2343+237264168+237686540+238340901+238914757+239300621+239506573+239609582
2330+239786650+240168576+240606887+240870369+241025421+241314453+241768990
2316+242235663+242592896+242830727+243033429+243303728+243692857+244159563
2303+244612047+245004408+245357080+245705107+246065841+246427889+246755835
2289+247033708+247279399+247519737+247758257+247964899+248143499+248344182
2276+248563783+248738276+248843423+248913544+248973262+249028116+249101132
2262+249212574+249348926+249503154+249722419+250055752+250474151+250920475
2249+251379977+251838318+252263265+252661113+253033815+253387934+253739361
2235+254080857+254404865+254739494+255119231+255493818+255796770+256070788
2222+256375894+256698505+257017211+257343761+257677801+257973801+258214257
2208+258471326+258788416+259129205+259471139+259809470+260155965+260537201
2195+260927912+261296777+261662207+262030583+262409917+262829814+263276760
2181+263701135+264073012+264408432+264758310+265140993+265526857+265904406
2168+266274381+266620136+266952980+267303330+267669299+268025943+268368180
2154+268707690+269047048+269384437+269704439+269987984+270240256+270493302
2141+270777302+271086818+271413064+271778714+272220593+272723723+273231751
2127+273746073+274277345+274799798+275309189+275822165+276350441+276876916
2114+277372657+277817566+278210146+278593822+279005994+279427693+279840975
2100+280260520+280687874+281087792+281467849+281842335+282215508+282597905
2087+282998800+283391312+283752585+284098508+284434770+284760730+285098069
2073+285445641+285752986+285997448+286241169+286563191+286976642+287416014
2060+287835322+288275771+288765200+289256177+289701507+290112332+290518243
2046+290927587+291331377+291695848+292017432+292330062+292627712+292931556
2033+293301952+293723650+294152755+294579503+294982686+295378935+295818677
2019+296272895+296692540+297104038+297532032+297947940+298346378+298720577
2006+299053001+299391720+299768007+300120965+300399898+300641802+300894208
1992+301155468+301452377+301768508+302040709+302297929+302572991+302830783
1979+303070263+303336202+303645230+303968464+304268638+304517544+304757293
1965+305076723+305445705+305777186+306086180+306408438+306706727+306918569
1952+307022588+307051909+307037872+306974349+306803340+306548510+306366561
1938+306191176+305843166+305400495+305007073+304708111+304547201+304672664
1925+305225244+306198716+307496869+308915300+310293369+311654472+312936905
1911+314042336+315018366+315919899+316738352+317463524+318147896+318834894
1898+319488835+320058887+320591741+321158764+321694075+322216056+322794592
1884+323338858+323840843+324360434+324883425+325387767+325852790+326286136
1871+326675619+327060995+327629969+328371333+329012651+329502719+330002179
1857+330569471+331126496+331599127+332000762+332364762+332774947+333196814
1844+333547484+334096160+334840587+335416564+335815910+336260870+336748245
1830+337147490+337591238+338177415+338752853+339358252+339998929+340529999
1817+341004852+341533633+342060226+342520570+343006666+343557901+344066854
1803+344472663+344829729+345226079+345682922+346155452+346534162+346846523
1790+347372611+348048601+348519414+348820531+349169787+349521331+349823458
1776+350147668+350431987+350600572+350920372+351460128+351936832+352328469
1763+352647865+352953662+353430534+353934707+354378691+354815740+355165096
1749+355607296+356313145+357011689+357516805+357858049+358066761+358363602
1736+358723967+358895077+359246554+359922510+360496467+360807111+360873966
1722+360816234+360761598+360615904+360525822+360801085+361234263+361437790
1709+361324750+360927894+360505186+360319298+359977112+359514243+359455333
1695+359407497+359191986+358859259+358200134+357494419+356720907+355669842
1682+354984864+354719733+354273359+353404310+352495775+351956054+351521125
1668+351109559+351066302+351110906+350876307+350617370+350505844+350457706
1655+350260238+349870788+350015271+350658776+351016144+351267810+351852001
1641+352423096+352858058+353422186+354239898+355416796+356800588+358019094
1628+359109545+360338856+361619706+362866725+364260582+365763171+367269699
1614+368942153+370658402+372095786+373288708+374442041+375603757+376714777
1601+377743490+378696797+379582509+380424492+381233620+381988281+382676995
1587+383315956+383893683+384352984+384718330+385126058+385502345+385702271
1574+386027524+386454239+386573945+386606666+386745526+386747613+386586468
1560+386109629+385610169+385973865+386665846+386887013+386751552+386503993
1547+386115857+385550652+385073914+384803060+384634139+384751185+384748021
1533+384187967+383534834+383022279+382244390+381304144+380474616+379516125
1520+378545380+377781192+376987078+376040099+374869698+373414843+371577036
1506+369433500+367694865+366223953+364049918+360741535+356557270+352039134
1493+347088965+340834685+333634738+327151750+322019060+317627564+313428320
1479+309490301+305903995+302127930+297173553+291038777+285232216+280427994
1466+275812571+270732025+265419067+260632316+258090376+260103905+266351184
1452+273913615+280709384+286337479+291012688+294698031+297254715+298873206
1439+299902660+300563636+301200678+301907638+302298434+302374008+302537072
1425+302908511+303516064+304427461+305573052+307146469+309315791+311720520
1412+314068189+316375597+318661226+320852260+322877841+324623949+325798659
1398+326167035+325492627+323488053+320269618+315794638+309570991+302292509
1385+296270976+293542778+295164434+301127898+310108660+320574910+331766163
1371+343256346+354412522+364142424+371316854+375606417+377610251+378339126
1358+378463376+378236857+377775503+377054337+375986003+374825734+374177516
1344+374346842+374967692+375545049+376135972+377058713+378361108+379974415
1331+381934857+384284277+386976658+389951102+393178726+396620954+400226852
1317+403971105+407811501+411663981+415507406+419319121+422983256+426372397
1304+429476141+432379926+435080318+437512347+439695741+441685268+443446895
1290+444855631+445788000+446105141+445578582+444037414+441618850+438828140
1277+436563248+435975152+437880488+442251078+448270726+454868876+461225257
1263+466917867+471828785+475965316+479332037+481901782+483653782+484613249
1250+484859529+484453484+483336910+481489610+479195431+476991874+475421420
1236+475061695+476493928+479884853+484820682+490567288+496384048+501707980
1223+506237494+509981377+513129489+515836749+518156276+520096150+521722922
1209+523203967+524628492+525909173+527015783+528073143+529196012+530253338
1196+531141171+531889469+532591885+533256564+533809751+534185769+534415890
1182+534569731+534680584+534700344+534565018+534301233+533881959+533157830
1169+532052668+530647366+529041767+527243245+525279840+523346935+521653038
1155+520207575+518889460+517566127+516095888+514292350+512010829+509293201
1142+506260822+502975230+499555018+496210111+493036044+489941052+486866224
1128+483932345+481225186+478495642+475294341+471324444+466345189+459829717
1115+451007172+439172211+423781847+404315311+380401197+352578115+322789980
1101+293499049+266394121+242469302+223055146+209997555+204807486+207873830
1088+218246328+233869069+251985813+269377940+282570402+288290313+284267868
1074+271015940+253818183+241143865+237905115+239912971+236832000+220822099
1061+192121823+157633535+125528102+101230867+87080125+83965793+92609662
1047+113930930+148470908+195101434+250246184+308381470+363615865+411565348
1034+450419110+480448307+502244066+515262792+517260970+504644283+476118214
1020+439318882+411865927+409657084+433345992+470325220+508072945+541411164
1007+569963659+594170037+614080052+629557839+640657394+647960686+652353528
993+654402673+654222575+651762605+646987080+639665475+628980448+613314955
980+590065150+555763760+507870124+449475161+393626817+359771228+361815828
966+398777450+456899809+519676740+575951462+621256232+655324505+679783087
953+696877110+708811512+717387474+723722950+728342076+731680991+734228216
939+736196030+737610287+738565311+739195351+739510169+739337275+738628329
926+737497381+735963485+733904039+731111410+727460976+722920690+717474325
912+711211831+704392885+697554885+691542441+687021140+683599818+679422622
899+671854401+658540482+637693958+608037311+569710849+525623104+481021827
885+441546407+413890261+408181594+433395914+486809266+552516274+612965734
872+659020452+689954414+708609735+717748613+719404975+716188190+712465313
858+713053745+719563192+729224859+738235143+744861671+749084917+751265752
845+751984461+752021692+751799044+751119048+749805107+748181331+746630940
831+745112865+743263680+740989396+738595810+736168224+733395052+729997765
818+725937381+721229183+715723369+709170900+701607257+693777473+687311519
804+684141121+685214303+689564191+694811067+698903229+701126816+701742449
791+701414502+700684617+699594402+697960122+695893742+693698297+691520290
777+689174573+686323841+683110288+680124903+677765653+675980967+674395432
764+672456770+669587725+665523840+660867079+657383412+656718564+658502376
750+660749459+662087638+662563298+662473687+661815303+660734311+659519542
737+658298915+657025101+655634071+654193422+652839288+651521038+650165826
723+648757090+647218750+645679199+644337721+643153114+641991129+640836078
710+639728425+638642721+637527662+636421827+635396514+634438797+633568267
696+632889416+632368916+631786947+631067498+630405612+629939781+629665965
683+629605775+629678690+629656742+629428236+628999636+628450052+628119412
669+628478127+629629138+630872723+631628932+632089781+632740625+633701573
656+634746815+635800337+637039546+638512444+640028432+641514189+643127059
642+644995365+647030708+649009160+650869184+652848646+655149254+657649081
629+660127566+662514352+664975601+667576350+670119064+672688709+675926634
615+679848461+683660007+686988150+690123538+693367590+696764137+700350813
602+704315527+708540793+712576738+716331595+720255172+724635559+729076539
588+733191054+737173070+741265030+745307910+749184089+753318128+757925405
575+762522716+766767440+770870846+775054639+779228334+783324872+787531894
561+792081067+796944924+801874222+806599386+811010608+815376587+819864291
548+824435211+829100321+833712781+838130938+842463657+846968597+851606237
534+856088421+860387477+864543465+868483604+872440710+876512540+880278708
521+883752882+887288861+890783435+894303121+897931405+901236725+904051504
507+906748934+909531734+912214621+914543304+916365559+917585647+918061712
494+917842766+917325767+916633518+915412151+913776255+912805746+913666446
480+916140353+918609008+919872117+919821286+918558041+916394644+914115311
467+913077206+914926055+920062247+927201128+934997383+942266608+947630296
453+950965508+952611166+952203370+950006646+947115182+944199548+940995083
440+936862188+932333078+929467332+929731386+933215457+940219012+950668666
426+962723784+974336837+985171867+996288389+1008346469+1020027320+1029748974
413+1037152246+1042659204+1047408808+1052144004+1057177187+1062597563
401+1067867532+1073741823
##END=
