##TITLE=34
##JCAMP-DX=4.24
##DATA TYPE=INFRARED SPECTRUM
##DATE=16/11/2015
##SAMPLING PROCEDURE=Instrument type and / or accessory
##ORIGIN=Default
##XUNITS=1/CM
##YUNITS=TRANSMITTANCE
##RESOLUTION=4
##FIRSTX=3996.3359
##LASTX=399.24785
##DELTAX=-1.9287336
##MAXY=0.95972496
##MINY=0.022312777
##XFACTOR=1
##YFACTOR=8.9381352e-010
##NPOINTS=1866
##FIRSTY=0.094613798
##XYDATA=(X++(Y..Y))
3996+105854068+105930307+106046999+106152287+106233194+106313867+106379586
3983+106428708+106469036+106504647+106549576+106626823+106790428+107009358
3969+107154758+107250794+107407730+107571802+107675157+107750103+107805936
3956+107865695+107926921+107919102+107875898+107910266+108073271+108292667
3942+108454430+108566596+108648877+108719781+108851427+108953515+108908994
3929+108840541+108848035+108862389+108925123+109127440+109307841+109294971
3915+109237179+109317327+109450507+109522736+109579728+109621106+109631051
3902+109713741+109841819+109912731+110016228+110161069+110137112+110036125
3888+110177065+110346914+110291106+110239100+110195312+110142497+110257272
3875+110411532+110514804+110571637+110522598+110537844+110582248+110449435
3861+110286930+110315097+110618517+110971618+110851008+110448701+110422861
3848+110683235+110872556+110933649+111019490+111178602+111203918+111081733
3834+111045447+111078198+111117418+111202459+111266969+111339940+111366264
3821+111232809+111311132+111571615+111514473+111347217+111438535+111632074
3807+111613027+111502053+111567972+111572398+111501511+111596464+111672769
3794+111659248+111683113+111715639+111740430+111750533+111719957+111698610
3780+111677620+111643060+111673111+111761444+111832031+111814068+111736887
3767+111714431+111736120+111793378+111854654+111807724+111767229+111893282
3753+112018743+111871259+111673311+111908086+112182256+111903993+111608734
3740+111732311+111882346+111847586+111805632+111784909+111737504+111671952
3726+111545874+111410069+111338373+111238886+111066812+110956522+111026267
3713+111055134+110761916+110362285+110159369+110110246+109920392+109412621
3699+108779198+108192522+107664004+107215950+106784535+106213938+105600904
3686+105250746+105131086+105012886+104925969+104903029+104644355+104273891
3672+104258828+104245633+103926341+103693349+103621420+103474787+103272395
3659+103118035+102904507+102671873+102613965+102470582+101956118+101408003
3645+101177462+101105600+100902833+100546898+100158728+99756196+99414298
3632+99234597+98888214+98177477+97627770+97364720+97011727+96411113+95737370
3616+95253173+94865995+94391468+93872252+93246715+92513446+91879531+91350805
3601+90778849+90157963+89518080+88813995+88125106+87573064+86940425+85992311
3586+85043840+84395571+83849231+83213507+82532254+81840872+81139680+80507282
3570+79905909+79078872+78058639+77215864+76547889+75832417+75098841+74435626
3555+73769801+72990537+72138859+71293025+70399561+69479147+68673162+67992180
3539+67304970+66525472+65715227+64973035+64282863+63553091+62760643+61966732
3524+61180086+60379186+59616096+58917205+58238418+57561687+56904415+56230135
3508+55487868+54712763+53933927+53183124+52522164+51889783+51212476+50544856
3493+49934594+49356778+48751234+48111521+47512525+46909706+46199682+45470227
3478+44823775+44208624+43552057+42861563+42213794+41671735+41220122+40750742
3462+40167775+39546709+39023276+38563307+38051664+37488511+36947594+36468344
3447+36027759+35568082+35072773+34584173+34096193+33579600+33099875+32680200
3431+32281863+31938415+31652860+31363331+31032355+30650883+30273540+29970188
3416+29684990+29355379+29029425+28739363+28481929+28219262+27874336+27484837
3400+27202802+27058177+26921796+26730106+26514532+26326338+26189132+26088339
3385+26022655+25970357+25877372+25732931+25571001+25435639+25318339+25163142
3369+25004086+24963571+25058073+25157991+25182921+25186620+25222760+25267543
3354+25279176+25284877+25384531+25582636+25732716+25782797+25840549+25939888
3339+26065386+26279564+26575034+26859641+27084743+27238773+27392317+27648132
3323+27958910+28219526+28460581+28759885+29089174+29381370+29630931+29840595
3308+30040629+30334943+30755024+31212234+31624560+31991309+32359927+32728241
3292+33088665+33492225+33939067+34382275+34834028+35327167+35846345+36344175
3277+36785218+37181557+37608866+38172386+38869728+39558333+40166758+40753705
3261+41351564+41938807+42527101+43163720+43862575+44619346+45393705+46099999
3246+46770345+47520748+48337474+49140820+49943275+50769145+51593281+52442550
3231+53359642+54309989+55237630+56146419+57075606+58024603+58981506+59964663
3215+60999305+62077468+63150021+64204461+65263510+66306534+67305579+68303994
3200+69365977+70480517+71607224+72730462+73847315+74978639+76135296+77292427
3184+78431079+79570855+80738931+81896463+82988751+84059950+85187323+86366869
3169+87525976+88614329+89679026+90788344+91913016+92987557+94011934+95023215
3153+96062688+97167763+98300721+99382248+100422612+101449373+102415775
3140+103336697+104309868+105346573+106352503+107271400+108150201+109036230
3126+109938522+110854026+111720124+112505382+113287265+114115969+114960144
3113+115774411+116534512+117263054+117999315+118745095+119503046+120262288
3099+120966090+121604373+122210721+122779443+123303801+123810038+124314957
3086+124837040+125400460+125957428+126443967+126904933+127379035+127784760
3072+128091773+128396860+128746702+129095944+129410251+129686688+129931150
3059+130145470+130323037+130463336+130592039+130709631+130747242+130655974
3045+130482875+130314326+130196434+130098406+129917196+129616618+129263425
3032+128820148+128207889+127496436+126766460+126004900+125165293+124185637
3018+123036249+121747288+120326807+118752214+117018084+115101109+112956437
3005+110554607+107856684+104802959+101354779+97495665+93167000+88265438
2991+82686089+76449903+69721504+62644610+55345598+48188993+41825887+36858856
2976+33608889+32148200+32329379+33802609+36124600+38960825+42251326+46194543
2961+50901458+56020596+60821483+64576372+66918184+67876484+67586405+66160334
2945+63824398+61058743+58549003+56916002+56409169+56826593+57738417+58815688
2930+60037655+61579980+63526513+65772598+68133658+70456652+72577035+74278089
2914+75432720+76048062+76115740+75658051+74883887+74002960+73109937+72379937
2899+71905951+71484738+70903038+70084037+68992258+67622803+65933911+63939556
2883+61934377+60488376+60259210+61628452+64422849+68150196+72401726+76956148
2868+81695205+86493130+91166702+95559277+99637271+103464117+107120014+110700324
2853+114296004+117879855+121304061+124462800+127360763+130014465+132436618
2839+134682078+136806486+138838677+140806240+142755866+144699823+146595182
2826+148429641+150226306+151977008+153598472+155018129+156323569+157653100
2812+159013140+160365511+161762678+163261774+164807417+166316132+167776217
2799+169191923+170515285+171697207+172763429+173747778+174627597+175398368
2785+176092517+176711427+177231976+177673069+178095290+178517895+178888117
2772+179181235+179437625+179661022+179826853+179948154+180052301+180174919
2758+180328280+180493577+180665510+180834842+180994904+181148982+181290206
2745+181446650+181682551+182009178+182382535+182779182+183224160+183764948
2731+184373472+184946253+185448764+185944656+186519154+187212352+188015249
2718+188894167+189797726+190683864+191494462+192170389+192714929+193207803
2704+193762195+194403596+195076622+195760335+196459201+197140447+197746970
2691+198271821+198770464+199268456+199710450+200068602+200391778+200730459
2677+201143327+201646771+202185875+202737033+203298244+203849752+204394692
2664+204946416+205477002+205945753+206361055+206777774+207215366+207627551
2650+208011495+208398005+208777097+209163158+209554653+209885198+210143522
2637+210399579+210682443+210954038+211211661+211507529+211825387+212079877
2623+212295555+212564716+212872354+213167855+213433581+213671333+213929707
2610+214206853+214421531+214581210+214755893+214918273+215029989+215140470
2596+215282928+215438739+215596718+215763432+215937165+216100479+216265276
2583+216468117+216686513+216859896+217001470+217176654+217387164+217581570
2569+217745050+217905929+218071643+218215285+218344171+218488413+218622084
2556+218716195+218781480+218820608+218860003+218938392+219061727+219241662
2542+219479730+219775598+220136435+220519178+220884316+221258806+221689847
2529+222169767+222622130+222990553+223317230+223688553+224102821+224489182
2515+224825545+225146670+225485551+225859608+226289031+226730491+227127271
2502+227539272+228029146+228562532+229056374+229469275+229862455+230299096
2488+230767014+231230380+231676508+232113800+232566963+233058870+233552662
2475+234000807+234447068+234951413+235474546+235968938+236459128+236967474
2461+237488923+238019708+238566498+239094216+239534859+239919036+240318350
2448+240719815+241081486+241384656+241663902+241968406+242249870+242459547
2434+242657721+242895055+243139042+243331097+243463801+243576317+243681897
2421+243778725+243880371+244012659+244203247+244465155+244796767+245182461
2407+245603131+246042724+246478315+246887999+247275894+247653368+248028759
2394+248406651+248779108+249104134+249342919+249511167+249634186+249696904
2380+249679766+249620565+249579153+249555580+249487160+249311477+249051219
2367+248831773+248806399+249055970+249666012+250711311+251926526+252703182
2353+252472382+251775666+251927076+253053482+253958958+254102133+254188757
2340+254602076+255118057+255556133+255922504+256276489+256598565+256856372
2326+257105110+257479000+257989680+258449245+258757316+259060537+259477473
2313+259927768+260333585+260708709+261096753+261523409+261964435+262373869
2299+262733906+263071269+263406898+263732192+264038796+264348068+264660308
2286+264921599+265115071+265287320+265466155+265637337+265789548+265929304
2272+266048138+266117008+266139731+266169940+266238476+266319199+266396205
2259+266529826+266811290+267240213+267726336+268227796+268755031+269253157
2245+269668692+270021677+270375978+270780344+271193929+271550281+271887445
2232+272253433+272600616+272901569+273208790+273556556+273913792+274229782
2218+274520332+274852111+275221083+275553795+275820822+276062608+276312446
2205+276589342+276909950+277266086+277636859+278011449+278406162+278843538
2191+279311772+279767019+280171802+280529904+280875036+281244309+281661428
2178+282095153+282483897+282844401+283219108+283599650+284005833+284447793
2164+284859511+285198942+285512732+285851795+286203530+286546661+286886125
2151+287217420+287509504+287764410+288040956+288359947+288684607+288987494
2137+289286946+289648116+290108315+290625063+291142645+291648823+292171639
2124+292752272+293361680+293931610+294479567+295027758+295534936+296001070
2110+296466770+296939705+297389101+297778646+298132280+298531028+299003897
2097+299479500+299919826+300337979+300747863+301142710+301526119+301910763
2083+302295840+302666179+303007944+303328369+303651462+303981556+304294179
2070+304582862+304872945+305200605+305607189+306075890+306542190+307010557
2056+307504932+307995106+308465074+308924272+309387405+309871610+310333776
2043+310704916+311015005+311331862+311650287+311958508+312278533+312629400
2029+313026481+313481111+313974386+314468227+314956634+315430870+315862227
2016+316285681+316744679+317202911+317635735+318044885+318413258+318755789
2002+319108290+319444953+319710996+319947030+320225677+320522495+320811911
1989+321080122+321309321+321549123+321827802+322095679+322314075+322522568
1975+322800514+323134343+323430728+323664162+323916501+324256465+324623770
1962+324952764+325271022+325566240+325771799+325879163+325920542+325892300
1948+325762763+325567407+325326438+325013315+324722532+324439351+323997391
1935+323439998+322936453+322559079+322359188+322519834+323192794+324335521
1921+325842219+327479522+329004925+330453007+331845706+333088362+334183042
1908+335176293+336091256+336924494+337686046+338412521+339114922+339759173
1894+340358078+340952315+341494137+342047262+342690613+343289718+343793829
1881+344274300+344764040+345259582+345739553+346248499+346750243+347149957
1867+347637030+348350434+349041732+349583721+350093100+350634889+351181679
1854+351683456+352124116+352515028+352949552+353393913+353707569+354135358
1840+354785245+355365011+355800369+356273271+356829564+357330907+357835785
1827+358426655+358967276+359518001+360137045+360691703+361184578+361705461
1813+362229144+362689576+363134903+363613174+364079241+364500561+364890373
1800+365286353+365729513+366216986+366615434+366899015+367351278+367965554
1786+368410181+368692296+369008420+369322143+369606758+369960559+370312160
1773+370510850+370749285+371157769+371578322+372003111+372350510+372607817
1759+372990860+373436722+373924561+374498893+374938719+375308625+375872153
1746+376514203+377058359+377423397+377611651+377953882+378430119+378600301
1732+378781920+379284730+379729158+379923447+379925314+379920079+380006437
1719+379898773+379601688+379575980+379813782+379956923+379859962+379480020
1705+379043161+378845471+378463495+377824579+377473845+377138182+376727798
1691+376311879+375624448+374884970+374002750+372675637+371620568+371111189
1678+370595841+369688648+368659920+367979291+367430801+366888546+366717563
1664+366674184+366352725+366006426+365927670+366125093+366234858+365915867
1651+365954811+366630472+367094505+367334273+367887365+368594034+369334013
1637+370213198+371190045+372398291+373857742+375241872+376527907+377956817
1624+379409699+380739614+382163488+383706631+385229367+386883374+388602300
1610+390064852+391289770+392496949+393723734+394866861+395881519+396814419
1597+397688270+398493067+399241348+399945650+400602138+401228050+401806816
1583+402256445+402597009+402987821+403324684+403400039+403586493+403972103
1570+404072799+403989942+403992242+403995443+404025152+403750540+403114391
1556+403049372+403404107+403430015+403107856+402687368+402253344+401784343
1543+401380894+400932032+400302552+399985694+399770366+399065697+398207918
1529+397515720+396629666+395584934+394609087+393419280+392117040+390986083
1516+389809446+388484966+387038885+385445429+383361165+380527386+377866624
1502+375707939+373053645+369184537+364218981+358833971+353104163+346087519
1489+337977329+330482782+324432082+319313015+314544783+310145856+306155279
1475+301931336+296397984+289583365+283152689+277885113+272882747+267393291
1462+261750507+256821945+254244757+256227025+262531998+270390082+277716615
1448+283945316+289115897+293152387+295978730+297831494+299076718+299883916
1435+300509061+301103298+301379511+301330563+301366040+301654756+302194611
1421+303002609+303972020+305203740+306848178+308641358+310389359+312206213
1408+314198550+316301319+318414124+320442906+322014589+322487325+321246569
1394+318387417+314815660+310475583+304189416+296376711+289731907+286731414
1381+288581044+295227715+305256788+317020392+329581991+342416234+354930886
1367+365944842+374104379+379003716+381286137+382047288+382114841+381863502
1354+381394835+380651255+379555541+378332958+377582509+377704044+378410913
1340+379153093+379864196+380823038+382138981+383821230+385959909+388595031
1327+391625199+394954820+398564621+402437864+406512098+410703698+414956617
1313+419239511+423539042+427776623+431791707+435465926+438808817+441913507
1300+444822140+447477267+449819772+451884563+453695649+455148232+456069829
1286+456257249+455456620+453488756+450517638+447181082+444532757+443770605
1273+445720897+450372297+456837115+463920278+470705322+476697939+481758289
1259+485913146+489175647+491569600+493118943+493808441+493785234+493234610
1246+491893092+489401778+486332799+483847921+482315382+481757488+482874075
1232+486220867+491453066+497746102+504287410+510427736+515773934+520316502
1219+524256831+527728459+530734420+533255842+535388353+537297134+539053737
1205+540619385+542019353+543364472+544710424+545969618+547099942+548044113
1192+548831938+549568683+550204131+550598845+550806437+550967083+551079816
1178+551039237+550768226+550263648+549538174+548528085+547133352+545362978
1165+543305988+541031203+538637418+536307083+534221219+532420303+530768663
1151+529069443+527162230+524853735+521959806+518529757+514774848+510791807
1138+506641851+502542410+498634490+494809228+491030078+487464590+484128434
1124+480701753+476743685+471872190+465733631+457840336+447503708+434006941
1111+416757133+395290449+369415469+339843797+308621619+278286811+250601513
1097+226523632+207111437+193839201+188072765+190325828+199760281+214302880
1084+231186884+247292732+259320911+264163232+259627766+246163008+228872538
1070+215820315+211524834+212409221+209434586+195020689+168674825+136813655
1057+107396285+85438436+72772491+70002756+77824571+97358176+129566854+173983146
1042+227834057+286126074+343146410+394314970+437027440+470375928+494032338
1028+507894176+510765632+498347041+468081070+428446682+399071432+396977733
1015+422751117+463152625+505057964+542905974+576048036+604627157+628371626
1001+646898201+660123790+668594750+673315036+675062203+674058182+670213880
988+663444408+653601588+639990088+620994713+593973438+555463572+503076696
974+440294176+380819403+344988938+347258488+386571785+448990768+517641602
961+580506380+632277478+672193914+701511780+722300403+736930528+747430269
947+755054787+760513418+764390862+767256883+769391761+770799765+771560049
934+771822724+771627935+770910796+769643567+767852454+765489043+762408561
920+758454428+753474334+747354047+740156119+732062000+723298089+714426014
907+706509212+700454611+695795876+690264958+680805448+664895823+640757108
893+607247708+564996669+517448447+469973212+428273799+399237980+393285075
880+420151205+477765811+549646638+616820984+668851890+704158739+725435901
866+735831613+737738826+734091514+729861636+730703477+738543923+750007074
853+760577636+768275908+773100690+775535255+776278601+776145029+775575199
839+774482153+772753724+770643453+768479767+766309945+763931664+761173207
825+758144072+754903677+751173875+746848903+742068000+736674788+730197465
812+722298603+713217067+703942210+696304689+692508068+693645260+698548265
798+704465427+709060210+711509045+712066271+711444893+710347979+708944710
785+707038364+704701294+702139294+699397108+696359638+692775544+688828013
771+685277263+682576289+680450146+678384421+675844627+672265402+667494368
758+662286009+658391160+657419548+659068354+661393020+662924525+663485820
744+663322306+662563355+661286189+659620112+657819663+656144783+654527320
731+652785354+651076131+649437995+647714434+645946461+644254443+642515545
717+640828328+639327098+637852476+636262153+634693037+633339116+632148708
704+630907953+629572503+628288002+627183019+626273158+625476663+624655695
690+623750435+622880119+622184320+621695380+621432838+621314871+621108479
677+620615471+619561969+618327749+618877373+621350681+622014938+620516042
663+620246565+621435972+622602106+623485560+624322466+625272538+626581247
650+628275732+630016897+631585013+633160732+635002726+637068784+639092431
636+640941761+642810363+645021930+647710367+650685752+653503026+656039620
623+658501525+660991305+663686144+666990690+670812052+674603205+678100740
609+681479775+685007519+688706378+692432779+696313491+700458879+704589929
596+708650292+712958460+717467618+721739709+725854421+730246279+734816189
582+739294072+743726675+748198756+752631093+757002678+761410808+765944574
569+770712473+775574466+780151977+784480817+789033655+793889313+798732901
555+803552548+808417342+813195177+817887922+822718773+827606706+832355400
542+837077686+841789436+846605949+851572772+856187695+860293538+864477536
528+869007367+873473380+877530409+881250942+884861643+888470543+892151665
515+896114667+900137486+903753722+906965776+909790585+912034828+913784129
501+915384187+917124953+918757020+919482628+919027698+917954124+916532583
488+914557817+912320110+910902170+911566560+914252397+916991981+918188124
474+917865565+916041709+912828122+909395472+907454916+908917668+914535878
461+922964826+932236616+940306728+945468873+947944916+948643516+947643163
447+944816753+940571870+935779097+930837615+925379384+920097738+916905090
434+916676824+919682019+926834335+938276946+952503755+967049456+980058116
420+992828108+1007324861+1020775248+1030217553+1036597448+1041910570+1047608736
407+1053165528+1057222357+1060785111+1066033748+1073741823
##END=
