##TITLE=34
##JCAMP-DX=4.24
##DATA TYPE=INFRARED SPECTRUM
##DATE=16/11/2015
##SAMPLING PROCEDURE=Instrument type and / or accessory
##ORIGIN=Default
##XUNITS=1/CM
##YUNITS=TRANSMITTANCE
##RESOLUTION=4
##FIRSTX=3996.3359
##LASTX=399.24785
##DELTAX=-1.9287336
##MAXY=0.96561986
##MINY=0.022962859
##XFACTOR=1
##YFACTOR=8.9930358e-010
##NPOINTS=1866
##FIRSTY=0.091570713
##XYDATA=(X++(Y..Y))
3996+101824028+101911011+102013038+102063717+102104395+102190756+102331093
3983+102502208+102644260+102736155+102810304+102884752+102977898+103098053
3969+103180545+103185011+103196121+103271687+103377095+103511019+103671737
3956+103821651+103955111+104057280+104079276+104034041+104041398+104153309
3942+104279346+104364175+104407363+104439384+104519209+104614807+104684259
3929+104774456+104869806+104890576+104883617+104947535+105063249+105184116
3915+105297221+105368818+105365422+105346714+105422587+105565360+105683468
3902+105762331+105751992+105680958+105766664+106010313+106076625+105954622
3888+106005972+106125389+106106666+106186391+106330605+106359511+106370372
3875+106398176+106486608+106559531+106451058+106374779+106412683+106377663
3861+106297573+106315924+106581337+106953334+106920195+106583574+106512581
3848+106674417+106816991+106862325+106881182+106933376+106899027+106818697
3834+106891960+107021974+107077706+107098982+107091981+107177464+107335290
3821+107324669+107363591+107495568+107367584+107215533+107359714+107582054
3807+107563429+107505262+107680942+107720096+107557340+107560331+107625624
3794+107632525+107667098+107696285+107676749+107621440+107590082+107661538
3780+107728513+107650602+107546156+107572642+107701786+107779937+107762547
3767+107719797+107639799+107615715+107719574+107782530+107793234+107934416
3753+108128927+108073858+107908509+108114238+108336007+107997845+107659020
3740+107808163+108029509+107983280+107818172+107692283+107643038+107666609
3726+107662433+107609319+107556387+107448701+107298522+107242119+107331736
3713+107335331+107045826+106685005+106482872+106388325+106172961+105712639
3699+105204514+104787447+104405574+104031182+103602359+102984650+102312949
3686+101946677+101868857+101806141+101756672+101782049+101588556+101238191
3672+101178532+101109627+100789932+100621526+100608196+100468348+100268567
3659+100151652+99958482+99697651+99656566+99627917+99201249+98603738+98245212
3643+98055796+97791269+97450083+97150421+96873699+96645261+96553913+96251616
3628+95451624+94702998+94322525+94021471+93546568+92954534+92507600+92163332
3613+91698139+91116908+90461130+89823579+89319339+88799880+88139272+87502873
3597+86976537+86394287+85721890+85134057+84547068+83728419+82877947+82248424
3582+81691012+81060404+80378007+79664045+78961400+78364436+77847603+77179680
3566+76304056+75503028+74853555+74182260+73443916+72719838+72044127+71343122
3551+70598647+69867005+69083243+68239889+67488115+66833633+66136684+65361236
3535+64600307+63905363+63213273+62482849+61741547+60985104+60231085+59553816
3520+58943150+58312802+57611872+56845218+56078440+55371839+54740651+54153029
3505+53492814+52743323+52050421+51457947+50894011+50321239+49753711+49198893
3489+48595421+47910286+47234550+46607836+45972799+45368118+44823477+44248742
3474+43615184+42949038+42267946+41658621+41170984+40699473+40154667+39615962
3458+39146502+38664316+38144219+37643724+37162239+36681872+36193439+35699953
3443+35225779+34754107+34245153+33737427+33321568+32996063+32700015+32431754
3427+32182722+31890788+31536795+31151930+30774021+30444811+30133956+29797042
3412+29470933+29169520+28890441+28636074+28313154+27913966+27651840+27586928
3396+27506818+27290106+27002069+26798270+26751778+26738373+26621582+26397464
3381+26157498+26017555+25970309+25900598+25789231+25684103+25588479+25534046
3366+25575135+25675164+25747024+25792197+25868165+25959694+25999268+26002711
3350+26080056+26249303+26388210+26435896+26467538+26557374+26732634+26985012
3335+27239301+27437801+27592291+27724513+27893409+28202425+28636196+29023763
3319+29281150+29466204+29641857+29854639+30095263+30328425+30593934+30962868
3304+31437860+31926605+32330791+32645248+32910568+33182909+33551499+34028486
3288+34534302+35025808+35499945+35948647+36372483+36798415+37255886+37736399
3273+38219210+38739108+39333942+39947811+40538346+41156933+41818726+42455535
3258+43041331+43642309+44296404+44980525+45671724+46372252+47120244+47890585
3242+48619091+49352618+50133936+50909392+51682727+52527080+53441974+54366044
3227+55280951+56199689+57095400+57966558+58892177+59875024+60842328+61811131
3211+62813393+63807039+64785697+65823484+66940226+68038969+69053629+70031849
3196+71050643+72155566+73308840+74399638+75407388+76413316+77459749+78560952
3180+79714110+80853399+81926442+82963380+84023574+85142830+86287206+87365643
3165+88377569+89413910+90487534+91548970+92596629+93626475+94596198+95518433
3150+96454404+97434077+98449176+99463248+100442747+101387591+102325202
3136+103273758+104211162+105119826+106001805+106851522+107677976+108494081
3123+109290312+110068647+110847786+111632053+112416577+113182734+113895337
3109+114561844+115234357+115935925+116635190+117292840+117920681+118544372
3096+119155320+119749235+120316622+120827316+121283603+121736178+122236549
3082+122769761+123257895+123677017+124080223+124486362+124875733+125233571
3069+125541726+125822292+126118383+126411260+126659921+126845485+126963088
3055+127049963+127154128+127262171+127325525+127324614+127265684+127149075
3042+126992914+126821782+126592756+126274660+125920798+125530483+125054851
3028+124508218+123899771+123210183+122424019+121511303+120462733+119291365
3015+118007705+116609035+115044626+113268755+111262227+108999597+106494719
3001+103721238+100538429+96862904+92729758+88085901+82790368+76824708+70323276
2986+63410096+56256610+49268328+43013883+38056670+34818754+33430481+33701500
2970+35206119+37453542+40177637+43435474+47389133+52026357+56994635+61663603
2955+65364782+67681168+68575897+68213158+66786083+64526357+61840186+59387552
2939+57787614+57256594+57620753+58521505+59636864+60891262+62420419+64323250
2924+66522136+68816405+71028514+73041041+74714205+75876343+76441137+76488700
2909+76139279+75476260+74622069+73739759+73014397+72531391+72138856+71614749
2893+70832801+69741846+68347422+66660393+64723089+62782988+61384002+61173307
2878+62491473+65173059+68771154+72889586+77300929+81865325+86435554+90851959
2862+95021724+98930243+102598718+106109077+109546040+112915937+116203890
2849+119397387+122431781+125217988+127732451+130008278+132075634+133987459
2835+135831274+137682768+139568413+141446320+143257633+144982801+146626114
2822+148194831+149685454+151108060+152467386+153731668+154957111+156254085
2808+157625639+159059330+160538686+161963180+163294470+164574726+165785753
2795+166899301+167913298+168815102+169646684+170423122+171078535+171630488
2781+172139591+172596102+172987179+173329392+173644415+173940697+174208131
2768+174448441+174669945+174845948+174963990+175061668+175162528+175281498
2754+175429979+175586314+175738373+175873018+175965958+176088010+176347690
2741+176706390+177064212+177430501+177874949+178400655+178939285+179447659
2727+179938834+180457961+181040882+181695865+182428493+183216281+184015270
2714+184810200+185570996+186221057+186745753+187254690+187846177+188492626
2700+189113558+189719759+190367401+191007338+191566880+192070962+192563131
2687+193027363+193436617+193806452+194161192+194509967+194885469+195338915
2673+195886260+196490440+197086004+197622033+198099421+198553762+198989975
2660+199397555+199802336+200219610+200641954+201053329+201418259+201739181
2646+202064460+202435388+202834485+203188645+203480056+203766546+204071792
2633+204355200+204591284+204803194+205033612+205315329+205625215+205901829
2619+206127309+206343626+206578949+206811371+207030770+207255405+207480686
2606+207675960+207848765+208017063+208145627+208252369+208411222+208617117
2592+208825166+209023405+209202888+209343465+209459204+209593568+209747980
2579+209912815+210104825+210303611+210476201+210646686+210843716+211054946
2565+211258571+211444631+211614239+211747011+211820713+211873819+211941688
2552+211989409+212002996+212053169+212185428+212371522+212617963+212953068
2538+213318545+213648894+213988954+214387090+214804380+215213651+215637453
2525+216061802+216437884+216779667+217143702+217522700+217865759+218186813
2511+218544386+218929946+219313401+219719623+220158404+220592198+221006705
2498+221440913+221895585+222322933+222750729+223215789+223648921+224030205
2484+224440437+224885647+225334105+225793632+226245487+226693564+227164126
2471+227631291+228096302+228598396+229122594+229646129+230154835+230610252
2457+231024809+231450500+231896274+232335022+232736654+233083706+233393542
2444+233707819+234034374+234336373+234595903+234849751+235118146+235371032
2430+235590580+235770958+235923730+236072078+236201057+236297343+236388509
2417+236521763+236731220+236994661+237265426+237568154+237939695+238349165
2403+238767466+239183232+239585908+239968568+240332405+240681594+241028248
2390+241382889+241704705+241925231+242030928+242047531+241998767+241935272
2376+241916416+241931428+241937343+241944137+242000324+242129253+242292994
2363+242503827+242856728+243333951+243864428+244426422+244781046+244958275
2349+245367397+245862730+246005180+246090480+246601124+247286529+247835134
2336+248210735+248499843+248733475+248897283+249100112+249424695+249778822
2322+250099644+250480879+250942825+251354614+251658618+251948918+252302200
2309+252701165+253141818+253616655+254045263+254382605+254682797+255001217
2295+255361524+255757589+256120448+256399448+256637637+256888966+257133534
2282+257321716+257469567+257636589+257820645+257974511+258095900+258205045
2268+258294388+258352913+258391503+258446084+258551898+258716318+258958882
2255+259323232+259793413+260287487+260755564+261188264+261585207+261968894
2241+262377966+262792672+263171836+263509625+263818334+264128784+264468015
2228+264834039+265213302+265575813+265896999+266202875+266533291+266849623
2214+267114770+267399752+267744252+268075264+268318905+268517708+268789649
2201+269175159+269616359+270045182+270445605+270835208+271228870+271623758
2187+271985093+272314564+272684432+273124655+273569932+273972807+274355897
2174+274742915+275137223+275518641+275861103+276192976+276560707+276950724
2160+277319979+277675415+278054661+278436758+278765003+279046919+279319888
2147+279580960+279847566+280158611+280485498+280784746+281082934+281430499
2133+281859554+282376594+282942780+283484773+283974705+284472094+285032447
2120+285636080+286229207+286772991+287269285+287737014+288180717+288619017
2106+289064244+289492471+289883416+290241122+290608935+291031329+291500648
2093+291929405+292277832+292622083+293010012+293388961+293738448+294103511
2079+294487695+294845401+295175834+295508055+295833086+296141779+296436388
2066+296726456+297075513+297517260+297983995+298433033+298894531+299366104
2052+299818787+300284096+300774525+301220912+301598701+301943317+302268413
2039+302578299+302885037+303215370+303594617+304016049+304456968+304916909
2025+305392558+305836459+306236584+306663683+307145795+307623863+308064549
2012+308485585+308893298+309269231+309613846+309948686+310297180+310652665
1998+310947307+311185910+311452748+311742717+312027020+312283452+312500382
1985+312742962+313033461+313320216+313585463+313862243+314173322+314472172
1971+314730295+314992095+315283258+315607294+315956781+316287479+316575924
1958+316821619+317016080+317168621+317278312+317309397+317249249+317136310
1944+316940788+316621059+316294107+315983028+315572133+315081837+314610231
1931+314235425+314071452+314308199+315028052+316131028+317545647+319123112
1917+320629626+322039473+323353680+324493971+325503528+326470865+327393564
1904+328213166+328926921+329599351+330268434+330892547+331471491+332066873
1890+332618609+333132004+333709954+334288070+334812135+335319432+335830507
1877+336340322+336818424+337311007+337848063+338349958+338860436+339454956
1863+340007057+340478630+340982315+341543927+342096757+342586391+343009083
1850+343399166+343899935+344474041+344870387+345275184+345880839+346446626
1836+346873461+347335589+347894484+348405095+348917893+349510623+350015401
1823+350498805+351070226+351603041+352066892+352554007+353089837+353618973
1809+354134919+354644933+355116075+355550698+355943631+356290136+356690890
1796+357245841+357787205+358127679+358506163+359037817+359457693+359755582
1782+360108682+360457241+360755098+361125065+361535860+361816517+362083090
1769+362444210+362798270+363204790+363588113+363880468+364275489+364722671
1755+365197658+365784356+366301893+366730484+367231916+367741002+368201904
1742+368590131+368863266+369275950+369808499+370029074+370202526+370637214
1728+371003835+371164328+371186399+371253109+371503145+371620989+371423114
1715+371260366+371280184+371323563+371289098+371046386+370728646+370662168
1701+370495941+370062479+369759784+369291724+368663601+368098940+367406195
1688+366817541+366209898+365103840+364062204+363475771+362940239+362101947
1674+361194824+360646964+360180130+359589985+359306644+359240928+358988871
1661+358692340+358632822+358920968+359248617+359100451+359090178+359675087
1647+360070969+360144174+360478749+361062598+361829607+362825577+363817802
1634+364821592+366052520+367363313+368661414+370080142+371502449+372793723
1620+374204067+375786735+377303854+378830716+380419316+381846329+383076064
1607+384255990+385443007+386582338+387624040+388574343+389449686+390259246
1593+391007433+391700509+392339071+392925140+393462528+393916669+394307349
1580+394792575+395274354+395460863+395661024+396074073+396255246+396184062
1566+396119242+396102009+396286363+396373951+396010810+395817641+395868410
1553+395727071+395427259+395096330+394761523+394463899+394329618+394117924
1539+393520024+393125898+392917419+392247938+391356158+390648965+389852759
1526+388966845+388176505+387157902+385950768+384841992+383640360+382301133
1512+380967341+379673781+377978372+375365833+372647513+370402521+367854471
1499+364288546+359667067+354557810+349119413+342498539+334787247+327560486
1485+321679414+316716865+312129752+307961718+304269068+300396041+295199396
1472+288603873+282282246+277142534+272340048+267051226+261585423+256877400
1458+254515858+256532884+262676220+270308789+277422976+283462205+288445997
1445+292304807+295016632+296857754+298160727+299007072+299604906+300167181
1431+300465004+300458376+300517596+300820722+301394927+302302680+303424280
1418+304769870+306490796+308394286+310283195+312226154+314310585+316450988
1404+318512454+320426648+321900255+322371297+321297417+318678316+315196068
1391+310819025+304567157+296907695+290454108+287588947+289438520+295929157
1377+305692171+317113510+329222590+341490142+353405489+363902506+371726007
1364+376451179+378608185+379264112+379288602+379044266+378602154+377884290
1350+376790957+375575472+374886141+375105987+375891257+376654290+377327516
1337+378223537+379491315+381139434+383222374+385776157+388718698+391942725
1323+395423548+399164680+403101932+407157789+411292053+415436193+419543250
1310+423571138+427414804+430975459+434240545+437260632+440044834+442572238
1296+444862564+446923565+448692278+450098546+451041592+451290800+450567070
1283+448731946+445978100+442890276+440415696+439721096+441670881+446265882
1269+452629397+459582791+466205422+472022502+476937894+481008796+484265697
1256+486717444+488363078+489157858+489156002+488519827+487167079+484879206
1242+482059810+479632851+478053464+477542356+478747037+482117175+487317664
1229+493492947+499788360+505623667+510691201+514977410+518641262+521822969
1215+524593882+526967619+528978646+530746597+532382984+533891520+535277672
1202+536612922+537923848+539085580+540063754+540935352+541782658+542582509
1188+543198901+543554585+543744043+543905000+544054459+544047632+543792062
1175+543352833+542719573+541753595+540392132+538709250+536790747+534681992
1161+532459238+530286788+528320665+526570610+524964048+523391951+521624730
1148+519413441+516694856+513536478+510006874+506209637+502287828+498425704
1134+494779217+491287723+487824961+484447069+481202595+477898073+474149418
1121+469559123+463782340+456311508+446424553+433452492+416840539+396097171
1107+371023453+342289032+311787919+281989493+254754610+231046995+211876503
1094+198810094+193253788+195700167+205372809+220203639+237350627+253675097
1080+265900280+270866773+266347031+252898874+235696510+222775948+218680887
1067+219758528+216733139+202015994+175294803+142975518+112999457+90523407
1053+77478787+74548756+82555974+102598179+135428142+180367259+234483263
1040+292673549+349139993+399287892+440718291+472897215+495793944+509184124
1026+511546528+498805812+468910851+430128252+401297395+399016746+424021634
1013+463352821+504061910+540713981+572687805+600087805+622718193+640315710
999+652883803+661010495+665621966+667377158+666420094+662684363+656206021
986+646870007+633928169+615754227+589707637+552407096+501602673+440635178
972+382747023+347801131+349973116+388206430+448854031+515508070+576559540
959+626838075+665471315+693658970+713594600+727679083+737804939+745148682
945+750429634+754210898+756968753+758945912+760244378+761024213+761418836
932+761431230+760950113+759851942+758125913+755889803+753107226+749471708
918+744769435+739008162+732272857+724692433+716502113+708240344+700875657
905+695262053+690973160+685888260+677103354+662039472+638817017+606390774
891+565386083+519074128+472767077+432047881+403608599+397820052+424266335
878+480715845+550873672+616058512+666115279+699801479+719969614+729771235
864+731515226+727900851+723695005+724425065+731988323+743100870+753312491
851+760703291+765315359+767644060+768430191+768455576+768067581+767124965
837+765497890+763433973+761318689+759275450+757051204+754412783+751502155
824+748511595+745234248+741281454+736545246+731118216+724908966+717609961
810+709172686+700365908+693087516+689588930+690704135+695230106+700826412
797+705342707+707838364+708473181+707869250+706709373+705288955+703459995
783+701201682+698736778+696166823+693354884+690068854+686453551+683122186
770+680504046+678427933+676360569+673778551+670341670+665955812+661126616
756+657410039+656424939+657992695+660334387+661997981+662612451+662329308
743+661464571+660269434+658809447+657223531+655668435+654082784+652484275
729+651009574+649444868+647621740+645820418+644090877+642453131+640957022
716+639583861+638264186+636913162+635537747+634286207+633163844+631956909
702+630649496+629475966+628511678+627639782+626844438+626131743+625357940
689+624504005+623823522+623475625+623298993+623065095+622746626+622448770
675+622116714+621594703+620995411+620737587+621363987+622681806+623826770
662+624534759+625192442+626043924+626905679+627738272+628913326+630615495
648+632488597+634190765+635847334+637729052+639772225+641709882+643515511
635+645370254+647417403+649745839+652343565+655034877+657736594+660450242
621+663060097+665803239+669102922+672715110+676179628+679521333+683017400
608+686723968+690421655+694121330+698172084+702456138+706402635+709997657
594+713858986+718295481+722910929+727365054+731732686+736096672+740407371
581+744602678+748911852+753569055+758342710+762854830+767170631+771705749
567+776410077+780797857+784839862+789072086+793797689+798739559+803635366
554+808493062+813309931+818029038+822829470+827819525+832723020+837363587
540+841835144+846406450+851121978+855569277+859649392+863799365+868213458
527+872633052+876632439+880128705+883655128+887523881+891523467+895510858
513+899190451+902394097+905494480+908616206+911340259+913399802+915052527
500+916685965+918097502+918511611+917702083+916332037+914812068+913025460
486+911186956+910179454+910990838+913493123+916130815+917558656+917508881
473+915857681+912834048+909578970+907913718+909838053+915800548+924118919
459+932739587+940030970+944856057+947513633+948860283+948846961+946898832
446+942975665+937804205+932070901+926246133+921496802+919245250+920024621
432+924074645+931951268+943270141+956326840+969641032+982541313+995541741
419+1009666919+1023358899+1033884615+1040406900+1044068863+1047700470
407+1052818509+1058269399+1063331631+1068260577+1073741823
##END=
