##TITLE=20
##JCAMP-DX=4.24
##DATA TYPE=INFRARED SPECTRUM
##DATE=16/11/2015
##SAMPLING PROCEDURE=Instrument type and / or accessory
##ORIGIN=Default
##XUNITS=1/CM
##YUNITS=TRANSMITTANCE
##RESOLUTION=4
##FIRSTX=3996.3359
##LASTX=399.24785
##DELTAX=-1.9287336
##MAXY=1.4596725
##MINY=0.46109504
##XFACTOR=1
##YFACTOR=1.3594259e-009
##NPOINTS=1866
##FIRSTY=0.85262877
##XYDATA=(X++(Y..Y))
3996+627197675+627346092+627449348+627603640+627789325+627979527+628182882
3983+628399040+628602878+628799481+629022128+629243767+629472947+629742114
3969+630028425+630246863+630359327+630506516+630697156+630867583+631098254
3956+631286176+631340895+631455857+631822449+632148440+632180184+632451237
3942+632919199+633075903+633050473+632920690+633018246+633554652+633898181
3929+633825923+633922120+634286388+634346676+634288405+634661837+635262169
3915+635428782+635271552+635123003+634738347+634361890+634778992+635719126
3902+636503872+637106879+637007043+636277103+636145786+636886073+636889449
3888+636488219+637113762+637394768+637329044+637859179+637806257+637339742
3875+637253892+637397399+638207093+638539090+638077880+638413298+638968820
3861+638665015+637258452+635971457+637468253+640924941+641732136+640237926
3848+639042042+638767569+638793482+638638444+639153760+640482233+641000223
3834+640779418+640821202+640770035+640584875+640220958+639656273+640243100
3821+640987727+640717026+641514881+642277485+641332002+640154795+640221703
3807+640977424+640564882+640640866+641978459+642122009+641807725+641923784
3794+641685221+641329985+641157935+641148465+641263910+641182533+641077041
3780+641541759+641916111+641569074+640937568+640755522+641302275+641674610
3767+641723498+641554123+641121675+641284254+641643305+640968128+639852788
3753+640198641+641768878+641776989+640571371+641651460+642919777+641273074
3740+639333789+639130390+640114019+641039640+641271188+640501920+639849675
3726+639923247+640098542+640237269+640176543+639616242+638493009+637733430
3713+638279745+639067691+638742051+637592906+636663513+636597701+636581698
3699+635795417+634676569+633389135+632171898+631853097+632595708+632730796
3686+631454104+630126902+629128234+628072655+627897448+629013710+628811977
3672+627971415+628538118+628428811+627171806+626083518+625145532+624011338
3659+623324104+623218788+622022991+620269786+620164382+620933212+620505762
3645+618868573+617301098+616130118+614983252+613722695+612320123+610515532
3632+609109233+609428165+609366518+607263120+604784361+603172120+602490718
3618+601520594+599724596+598033039+596451182+594915013+593588513+591796637
3605+589575382+587611939+585868118+583987148+582125119+580321449+578049421
3591+575534665+573768176+572373934+570274877+567838210+565671411+563614226
3578+561480093+559307463+556959364+554227836+551664937+549862275+548035630
3564+545597472+543076052+540689982+538256516+535727861+533256512+530788319
3551+528068104+525328070+522772011+520149176+517468992+514852646+512236694
3537+509644595+507043946+504380510+501711067+499066792+496327810+493461019
3524+490706735+488114724+485570197+482960866+480217939+477448309+474831788
3510+472369602+469744751+466909879+464159804+461513994+458894097+456342204
3497+453828939+451280159+448715200+446166200+443619876+441016026+438388412
3483+435818805+433196803+430558271+428059475+425588565+422948498+420113013
3470+417247274+414627640+412285328+409976777+407566637+405142158+402787044
3456+400424300+398048052+395687720+393285515+390950350+388722080+386519635
3443+384354898+382114220+379750248+377437927+375380654+373548791+371751259
3429+369966355+368280146+366630658+364944669+363273215+361631093+360023587
3416+358423842+356832844+355349223+353977167+352707578+351491810+350099366
3402+348537964+347288982+346565620+345846905+344853564+343809604+343054739
3389+342616241+342221215+341721596+341163202+340639074+340227036+339948179
3375+339779308+339614756+339360080+339183646+339392547+339969795+340572363
3362+341024387+341484502+342076700+342709412+343270108+343810722+344551820
3348+345556363+346609728+347613548+348632823+349669461+350821588+352208113
3335+353692260+355123441+356516784+357896885+359322849+360917771+362679876
3321+364479600+366268670+368082228+369934128+371793789+373582552+375277749
3308+377010477+379006805+381318381+383704056+385925135+388003365+390096460
3294+392287242+394627712+397113091+399594744+402001246+404435633+406947232
3281+409482113+411998842+414504171+417036115+419599934+422257275+425127091
3267+428148350+431143564+434076518+437054808+440106101+443146959+446218990
3254+449407739+452624592+455784358+458987576+462381170+465894506+469386884
3240+472891670+476432410+479905408+483356615+487031171+490924340+494795017
3227+498578090+502362918+506177297+510016229+513872656+517737194+521652593
3213+525594826+529530393+533479422+537416305+541355030+545325674+549293030
3200+553252976+557219411+561148972+565037450+568928515+572823043+576675348
3186+580499987+584338350+588133261+591865430+595598388+599296621+602928340
3173+606524544+610084663+613613213+617104408+620536147+623925532+627300712
3159+630642963+633892349+637011120+640073067+643207886+646393653+649475374
3146+652394254+655207202+657963941+660710508+663488118+666270419+669007208
3132+671612242+674068508+676484919+678890499+681221894+683449988+685613147
3119+687756401+689864841+691918080+693925894+695888768+697792318+699615807
3105+701344720+703047590+704744058+706339200+707852175+709326391+710717782
3092+712023456+713275419+714500329+715693101+716829926+717907165+718943233
3078+719989692+721055575+722035740+722843242+723512236+724145364+724794759
3065+725424512+725983322+726446462+726812483+727095243+727255279+727277947
3051+727258085+727233049+727111071+726824497+726411254+725925534+725373213
3038+724694178+723834939+722815444+721671297+720381978+718908200+717224886
3024+715289021+713067241+710566428+707802717+704731343+701280355+697429409
3011+693114797+688184332+682507048+676012791+668582214+659961628+649886995
2997+638108177+624192288+607618488+587965947+564966639+538561680+509076928
2984+477624787+446460973+418894679+398681136+389083761+391981990+407200001
2970+432418985+463933518+497684082+530216136+559271773+583657518+602816227
2957+616621625+625362830+629610841+630003564+627219992+622060829+615442533
2943+608291778+601414795+595381441+590395906+586302275+582863301+580200347
2930+578982847+579958189+583224018+588045264+593319828+598102665+601758718
2916+603908110+604378002+603201453+600575549+596750734+592054010+586987404
2903+582240520+578532116+576190462+574975285+574437959+574218425+574076321
2889+573917820+573796281+573895196+574568969+576341071+579732297+585067017
2876+592430554+601711541+612625551+624718127+637381527+649912338+661737983
2862+672611041+682463158+691278067+699164198+706329072+712954514+719135057
2849+724877627+730124087+734865534+739200402+743238393+747051895+750705800
2835+754277801+757846821+761438641+764999593+768461542+771792218+774952423
2822+777881650+780553329+782995608+785253474+787430225+789681163+792094241
2808+794713569+797566680+800567551+803553952+806394436+809021831+811420616
2795+813613239+815603033+817315900+818723514+819941190+821066528+822069449
2781+822915140+823644553+824301796+824867578+825287968+825593308+825852171
2768+826044127+826166806+826230557+826199515+826124013+826069118+826027465
2754+826037637+826123662+826266686+826538265+826983998+827519351+828086886
2741+828670031+829241162+829808873+830395700+831000417+831637053+832337703
2727+833093949+833913508+834886702+836068688+837417988+838860942+840292847
2714+841564014+842590699+843436916+844180886+844887061+845698728+846704630
2700+847873638+849141297+850420532+851655045+852850973+854014632+855133743
2687+856208132+857242709+858211168+859100529+859931751+860755256+861617872
2673+862482767+863273301+863964305+864574985+865119457+865604739+866058452
2660+866495328+866903617+867276215+867632591+867983969+868298340+868601225
2646+868954882+869320553+869638784+869907118+870124679+870291116+870434052
2633+870624079+870890571+871150224+871345073+871569562+871930936+872384386
2619+872846342+873297862+873702643+874070156+874457311+874806760+875064395
2606+875283097+875489959+875682002+875874922+876094237+876340824+876599863
2592+876876002+877137759+877371543+877632774+877907071+878125860+878303084
2579+878495653+878693045+878853519+878968658+879050912+879123871+879209720
2565+879281626+879294605+879269964+879223400+879114575+878949716+878782402
2552+878637361+878528800+878504247+878598690+878822389+879185254+879640984
2538+880127668+880644255+881199076+881786868+882401055+883003842+883538406
2525+884003869+884436361+884829304+885192783+885588444+886006993+886380030
2511+886723515+887122772+887606826+888109821+888590630+889098536+889668614
2498+890316036+891034225+891750046+892429124+893107062+893820340+894572202
2484+895307841+895992093+896660736+897342972+898033274+898734889+899470704
2471+900258168+901065801+901820557+902505949+903172488+903856477+904558618
2457+905266722+905941240+906505268+906943723+907343418+907748375+908115098
2444+908417719+908678687+908925274+909160110+909356801+909486408+909535340
2430+909519731+909477464+909420289+909343647+909265164+909214303+909224651
2417+909324794+909518766+909805954+910191180+910660677+911198924+911772510
2403+912330400+912859790+913386987+913898401+914431912+914967353+915443252
2390+915805327+915966591+915817604+915325833+914599577+913833685+913155922
2376+912531913+911934738+911518207+911282844+910962948+910617183+910532648
2363+911090012+912289010+913583327+914682621+916311918+919135740+921840654
2349+921828289+918713859+915750345+915872762+917996109+919878131+920858340
2336+921026619+920860971+920925073+921361774+921926416+922323129+922498248
2322+922724140+923270717+923998201+924402456+924335811+924211378+924360189
2309+924751290+925217455+925633461+925916264+926113656+926347090+926631910
2295+926931637+927258900+927577919+927853093+928073022+928207540+928239722
2282+928202278+928168517+928173516+928169833+928113798+928037770+927969634
2268+927866422+927677624+927430160+927191816+927042742+927070101+927320722
2255+927780134+928393006+929168983+930119289+930753295+931262428+931696323
2241+932116537+932527895+932897250+933203466+933482937+933763197+934031181
2228+934295832+934576618+934877310+935184053+935470013+935752992+936071485
2214+936411112+936734428+937027403+937331516+937680876+938032604+938355044
2201+938677308+939010533+939341128+939666724+939987410+940314848+940647810
2187+940959990+941245161+941543748+941909770+942330511+942728540+943084127
2174+943459268+943869486+944265937+944631433+944977812+945329102+945683811
2160+945984416+946237141+946536605+946878074+947165700+947398344+947622657
2147+947837763+948028403+948202469+948406439+948659427+948949245+949322019
2133+949830276+950444024+951111966+951842519+952651117+953496106+954308826
2120+955046920+955729945+956386223+957010056+957597235+958140918+958634881
2106+959092715+959498461+959808010+960062489+960385630+960754633+961088999
2093+961377765+961697925+962067279+962450839+962814844+963171307+963579245
2079+964046901+964532095+965007993+965485909+965959703+966364396+966705338
2066+967103192+967553573+968003953+968403648+968719949+969007312+969287748
2052+969573357+969868963+970153432+970416242+970678964+970983252+971258075
2039+971451258+971653473+971875594+972063165+972226533+972440324+972700503
2025+972924290+973067840+973148515+973301361+973559523+973704563+973783047
2012+973960796+974181865+974341287+974398900+974448182+974563408+974692226
1998+974705467+974546308+974513512+974746331+974794912+974710290+974656536
1985+974583577+974553850+974515617+974447393+974397935+974430293+974490800
1971+974453444+974480891+974653730+974706520+974726250+974806575+974863925
1958+974924695+974973188+974931447+974811837+974620056+974243336+973629500
1944+973168597+972703572+971732044+970613810+969395958+967933537+966388774
1931+964958623+963845563+963275133+963659219+964774297+966124912+968302804
1917+970499636+971978719+973471130+975019576+976344323+977351891+978225643
1904+979058707+979781982+980363548+980903285+981488534+981810886+982123417
1890+982858880+983278657+983444655+983865747+984285962+984655667+984988191
1877+985286778+985446463+985397795+985901667+986830314+987095052+987172396
1863+987539645+987892601+988212059+988591498+988951031+989214191+989366773
1850+989377384+989335994+990312870+991461972+991178818+991092442+991777045
1836+992139121+992019686+992314678+993108544+993120207+993222805+993862335
1823+994070338+994309383+994771690+995038270+995073785+995382720+995951308
1809+996238320+996298038+996346794+996669496+997285087+997517467+997155479
1796+997071822+998085441+998945952+998491012+998239953+998800035+999128174
1782+999261376+999490250+999200081+998757241+999340035+1000415389+1000364703
1769+1000097071+999817688+999638710+1000325593+1000614710+1000462391+1000706873
1755+1000530439+1000765714+1001898680+1002441400+1002424738+1002506642
1744+1002804615+1003379166+1003366100+1002318106+1003111007+1004876225
1732+1004304217+1003569368+1003775880+1003930742+1003616721+1002566622
1720+1002188674+1003334005+1003666091+1002592842+1001611580+1001093415
1709+1000822538+1000488085+999121948+997858234+998528017+997887172+996688964
1695+996326362+994476259+992674211+990931091+989111417+989214892+988807042
1682+985591329+982703667+981408560+980853915+979095011+977162917+976902475
1668+976033459+974252632+973861969+974062518+972956823+970899594+969622727
1655+971595071+973405976+970248226+968430657+970021458+970406684+969216718
1641+968469855+968424782+970064251+972276780+972209258+971721960+972738210
1628+973999380+975165582+976790582+977388546+977477552+979729630+982393417
1614+983063638+983848472+985464352+986791993+987658116+988530816+989511726
1601+990315764+990939860+991601664+992288897+992852136+993351799+993870315
1587+994374538+994830180+995053704+994745646+994553339+996030230+997248256
1574+995922984+995447962+996670724+996665112+995617907+994061920+993184484
1560+995311778+996494816+994197490+992879671+992573805+992109043+991127870
1547+989751122+988584219+988277389+989514357+989247163+986331528+985139282
1533+985321416+983875481+982124030+981001499+979547233+978433646+977944156
1520+976182358+974276571+972802399+970664583+967993518+965576318+965115590
1506+964287963+960043373+955556843+952544748+949420058+944669491+937663338
1493+930132268+922954241+915456844+908987798+904993915+903020081+901503817
1479+899474913+897235375+894849919+891655866+886095999+878711197+871869290
1466+864929870+855625251+844693439+835506151+830004423+827536450+827664830
1452+830550913+834783402+839535899+844489207+849254945+853128077+855242831
1439+856354839+856603881+854829280+852750217+851658816+850465430+849058517
1425+848252462+847810237+848252989+850024169+851507987+852992419+855483718
1412+858345423+861024906+863714561+866684740+869137981+870722117+872059666
1398+872403152+871397337+869025649+864456339+858135403+850081169+839636568
1385+829113571+822458708+821644586+826731448+836793979+850989997+867948103
1371+886116957+904282041+919753786+930500306+936881486+939443463+939489238
1358+938938101+938423180+937633085+936357357+934618973+932464583+930053609
1344+927510660+925055315+922983705+921167451+919703451+918858199+918592583
1331+918843028+919606465+920883245+922617157+924761112+927357113+930300283
1317+933367273+936678657+940392805+944359766+948514825+952805453+957098098
1304+961359701+965491433+969290817+972622107+975449700+977710635+979280916
1290+980057331+979957627+978801597+976387291+972645170+967883290+962936997
1277+959066408+957669054+959628770+964698444+971733710+979456736+986853727
1263+993344170+998821519+1003320150+1006945292+1009919592+1012365730+1014307908
1250+1015841272+1017129889+1018193668+1018913259+1019333913+1019727645
1238+1020212839+1020703820+1021212953+1021863006+1022741406+1023795100
1227+1024881327+1025893455+1026757562+1027431115+1027987514+1028535933
1215+1029007447+1029299107+1029475454+1029639085+1029792281+1029808416
1204+1029624090+1029438536+1029449585+1029458442+1029309104+1029079441
1192+1028910286+1028794972+1028578551+1028157372+1027629823+1027124373
1180+1026574463+1025782176+1024696387+1023454859+1022059434+1020296846
1169+1018044155+1015417987+1012584080+1009561813+1006406519+1003430991
1157+1000924171+998888164+997171001+995613522+994110413+992547322+990789646
1144+988826422+986682204+984231506+981378658+978244760+974946881+971393557
1130+967549539+963677196+959963486+956155509+951831645+946764865+940836872
1117+933630959+924319500+912129325+896580938+877003154+852165494+820781883
1103+782453503+738167754+690343721+643023253+601695405+571839677+556973745
1090+557696142+572075171+596677074+627549666+660721075+692532398+720260701
1076+742337281+757991248+767206598+770747381+768985145+760136606+739937795
1063+703346090+647632418+575551414+496686905+425000027+372916627+346994362
1049+348620481+376596050+427802409+496704530+575580571+655701209+729309526
1036+791646404+841736502+881389540+913119092+938686954+958835430+973498314
1022+982636408+987499834+991211790+997169598+1006175629+1016404247+1025971325
1009+1034095098+1040687701+1046056138+1050639654+1054563383+1057584861
997+1059712681+1061441683+1063077381+1064378276+1065035694+1065180034
986+1065153376+1064912664+1063991471+1061888205+1058134157+1052028415
974+1043159356+1033243006+1026706438+1027418926+1034852748+1044938079
962+1054045656+1060903436+1065755286+1069114812+1071254470+1072391208
951+1072959795+1073382027+1073715165+1073741823+1073431134+1073093173
939+1072846762+1072436982+1071785614+1071084613+1070385804+1069527573
928+1068345500+1066872030+1065339017+1063834241+1062122339+1060002850
916+1057534176+1054795677+1051752714+1048325228+1044402375+1039917248
905+1034874057+1029069006+1021902116+1012450615+999486918+981422415+956183745
891+921719377+877643385+826756089+775577045+734828046+718765133+738088482
878+789096440+853781988+913250804+958230012+988482410+1007617443+1019283929
864+1025917658+1029261575+1030961902+1032163268+1033002031+1033258615
853+1033183113+1033156455+1032950118+1032009107+1030422954+1028835836
841+1027462421+1025910994+1023924619+1021756725+1019754390+1017880260
829+1015730693+1013167050+1010580168+1008129733+1005383342+1001960590+997956010
816+993542614+988490916+982366847+975191012+967782797+961677405+958566482
802+959142875+962442859+966523029+969782851+971609803+972026949+971428195
789+970471312+969430070+968019474+966194451+964307781+962574921+960874770
775+958937853+956852037+954977381+953295470+951426776+949229330+947016713
762+945020254+943035107+940893082+938862686+937285478+935980286+934430350
748+932610763+930881586+929266232+927622028+925911090+924155343+922424149
735+920676119+918864161+917096751+915463070+913854731+912205089+910829482
721+908875027+906976870+905424741+903768347+901955864+900229932+898700427
708+897393131+896250518+895058010+893686173+892266107+890953286+889718335
694+888472072+887232912+886073463+885025293+884051223+883145551+882366154
681+881622535+880698361+879796109+879604154+879542507+876800412+872030378
667+871763885+875786267+877332082+875787407+874209672+873510600+873157294
654+872868790+872756897+872856338+872974633+872964198+872928333+873022074
640+873212802+873382133+873513582+873668970+873914154+874274125+874672329
627+874983807+875278449+875533191+875842477+876468327+877481858+878433568
613+879160262+879820399+880397055+880976516+881689531+882497340+883444752
600+884528524+885522413+886328818+887224756+888305108+889210692+890020255
586+891023790+892087831+893038576+893897947+894910864+896159144+897251948
573+898099218+898849852+899710188+900577100+900998104+901175766+901790479
559+902938791+904195928+905364059+906450900+907474340+908439730+909409328
546+910378576+911245400+912059610+912841112+913749852+914786885+915555145
532+916172314+917010463+917950335+918592583+918661157+918758494+919284815
519+919821395+920167862+920581325+921143160+921431664+921412196+921320910
505+921336168+921759101+922051287+922095922+922268322+922080839+921436574
492+920837119+920410678+919949249+919272626+918450787+917892634+917753995
478+917376222+916449943+915624421+914635092+912909247+911168232+909579536
465+908480594+908126848+907588514+906385482+903764489+900313063+897685492
451+895254876+892300306+888605450+884536066+880991599+877580774+873536206
438+869466822+866140969+863911252+863240592+864337079+867378638+871952508
424+876603546+881014837+886985886+892550050+895302930+897417947+898659124
411+898061160+897572108+898813899+900726174+901790567+902143610+902434832
##END=
