##TITLE=20
##JCAMP-DX=4.24
##DATA TYPE=INFRARED SPECTRUM
##DATE=16/11/2015
##SAMPLING PROCEDURE=Instrument type and / or accessory
##ORIGIN=Default
##XUNITS=1/CM
##YUNITS=TRANSMITTANCE
##RESOLUTION=4
##FIRSTX=3996.3359
##LASTX=399.24785
##DELTAX=-1.9287336
##MAXY=1.4544673
##MINY=0.45921925
##XFACTOR=1
##YFACTOR=1.3545782e-009
##NPOINTS=1866
##FIRSTY=0.84058177
##XYDATA=(X++(Y..Y))
3996+620548712+620681423+620796577+620955822+621147980+621340578+621571811
3983+621840137+622081006+622260008+622402179+622581665+622844623+623135039
3969+623381012+623569738+623718334+623895488+624172658+624487275+624739233
3956+624907718+624979662+625012752+625172436+625441599+625629093+625825827
3942+626169618+626450573+626509624+626423775+626472134+626911410+627436138
3929+627584866+627553448+627720129+627897107+627880254+628050763+628602772
3915+629046668+629076590+628948895+628746660+628447796+628497079+629146070
3902+629981455+630625385+630816091+630411798+630010628+630238824+630524356
3888+630417342+630625825+631108751+631322427+631588993+631735257+631431640
3875+631134141+631172731+631693235+632292899+632335625+632354942+632725354
3861+632719106+631799632+630549833+630820360+633346535+635326466+634877642
3848+633512644+632701021+632512383+632532976+632932429+633955616+634768120
3834+634803322+634632813+634563157+634429258+634111913+633649932+633738772
3821+634506834+634959706+635329942+635854714+635532441+634524787+634095104
3807+634507230+634693932+634682007+635337246+635886088+635790999+635694942
3794+635576135+635284884+635081505+635071296+635186846+635238681+635179454
3780+635348511+635695778+635650851+635165329+634841736+635092989+635551230
3767+635747216+635664316+635358147+635197495+635373768+635206823+634501597
3753+634351197+635347015+635986017+635390841+635369544+636327124+636042076
3740+634457551+633529013+633996934+635005337+635515368+635143196+634403120
3726+634065886+634181304+634385035+634424461+633996186+632989412+632037993
3713+632123226+632991348+633239698+632443299+631376330+630831888+630689013
3699+630241817+629318603+628160109+626998006+626308269+626486919+626809984
3686+626264927+625116949+624008706+623006376+622510645+623076956+623629097
3672+623293711+623111805+623097857+622320467+621069788+619905661+618834116
3659+618016552+617634655+616952266+615614067+614866862+615287965+615406507
3645+614284535+612630002+611182236+609973007+608802589+607542889+606019395
3632+604539596+604009455+604012623+602916084+600737703+598705542+597496269
3618+596638355+595265657+593468425+591755237+590259332+588886458+587281560
3605+585242051+583146482+581308855+579549025+577722927+575903121+573910562
3591+571616410+569497081+567848928+566135476+564011658+561762301+559616834
3578+557545994+555452934+553189452+550619802+548044608+546003470+544266389
3564+542147983+539658813+537175320+534732177+532245471+529770954+527341979
3551+524827904+522136104+519449715+516954341+514548424+512027793+509350205
3537+506660780+504072209+501497279+498864221+496266586+493679159+490981946
3524+488284425+485685645+483088846+480442895+477774284+475112493+472517850
3510+469987626+467404467+464676804+461890751+459257165+456790613+454331716
3497+451859136+449405784+446915514+444344456+441736040+439154949+436634318
3483+434119846+431534267+428960217+426495381+424065350+421504589+418712683
3470+415847205+413246841+410965802+408703905+406303664+403869629+401502170
3456+399202122+396937805+394657206+392309504+389960790+387696604+385490633
3443+383302484+381096997+378827179+376581827+374572283+372783851+371011435
3429+369239636+367583563+366003174+364382413+362733777+361137547+359599334
3416+358032300+356446719+354971254+353618753+352353333+351130661+349775762
3402+348282124+347067263+346340960+345601060+344548832+343477330+342781785
3389+342395378+342009125+341537332+341041953+340540128+340096298+339812153
3375+339665295+339490276+339201488+339012718+339233544+339825266+340436327
3362+340904270+341397206+342020082+342666190+343211710+343718353+344449474
3348+345481484+346578177+347588713+348568117+349577686+350706280+352058803
3335+353558316+355047774+356484913+357880030+359290922+360852918+362604410
3321+364416427+366184398+367909379+369645998+371431042+373220222+374980801
3308+376787186+378798490+381079748+383445404+385665147+387713193+389717633
3294+391817689+394114877+396600306+399112885+401548592+403971186+406427002
3281+408895315+411363628+413842237+416360800+418909945+421532134+424345733
3267+427301108+430265019+433233991+436217483+439164365+442082382+445102837
3254+448286936+451486436+454591330+457723463+461058974+464558966+468048661
3240+471497083+474944404+478353927+481775639+485376529+489159412+492965000
3227+496730459+500489801+504268680+508069692+511873960+515670220+519495126
3213+523350921+527219477+531139692+535073063+538952707+542820779+546695803
3200+550566031+554452672+558318192+562124088+565930161+569776056+573605449
3186+577380852+581128666+584838153+588498094+592167011+595829724+599402319
3173+602895931+606384923+609883287+613340332+616729835+620058613+623335469
3159+626586628+629796337+632890187+635879972+638895542+641967611+644988769
3146+647893673+650689407+653416894+656143632+658900820+661629539+664268405
3132+666808133+669243004+671603555+673934008+676206378+678399808+680542503
3119+682636752+684693818+686743713+688754533+690680868+692533412+694310007
3105+695998994+697642086+699252969+700809464+702328514+703819006+705237422
3092+706550365+707781771+708961738+710109584+711230676+712287789+713272386
3078+714270800+715332753+716346699+717188904+717881810+718528204+719172443
3065+719772239+720280115+720702317+721067889+721373397+721569340+721655188
3051+721701127+721707815+721579592+721286229+720892715+720424882+719868692
3038+719214377+718418507+717441830+716292268+714993406+713539084+711897356
3024+710038652+707930631+705546979+702875727+699879430+696497893+692714261
3011+688488802+683699013+678221159+671931373+664641721+656127571+646201254
2997+634655298+621058127+604830407+585513369+562869004+536865279+507833443
2984+476851026+446106178+418869991+398875097+389362974+392199146+407211345
2970+432107134+463201801+496459756+528464788+557016162+580985702+599840363
2957+613435950+622029523+626195051+626596177+623893199+618860781+612394502
2943+605386289+598650627+592763199+587873964+583803789+580359152+577708362
2930+576514402+577486590+580728904+585509057+590701644+595400304+599004450
2916+601126068+601612954+600493094+597929296+594171802+589553358+584586327
2903+579955211+576317623+573975597+572760516+572268129+572076631+571909334
2889+571726504+571620679+571760694+572449331+574167184+577463797+582710375
2876+589967245+599059937+609721050+621562834+633988090+646289435+657907731
2862+668572936+678213150+686875236+694660706+701683747+708130226+714179231
2849+719830190+724985419+729651738+733899418+737801328+741480498+745047241
2835+748578519+752126430+755668268+759143575+762514156+765753786+768833687
2822+771709594+774329407+776713015+778947895+781134636+783382101+785763509
2808+788344512+791152655+794069747+796954278+799734700+802340872+804715768
2795+806852786+808759849+810417242+811833502+813094610+814246504+815239549
2781+816054473+816751910+817395665+817971744+818412031+818722336+818963909
2768+819161128+819326401+819432886+819441951+819401029+819359578+819324200
2754+819337577+819413437+819541748+819805586+820243762+820756653+821278345
2741+821825031+822401726+823001038+823628072+824272794+824914173+825567080
2727+826278334+827096074+828071518+829232037+830553868+831983153+833407597
2714+834656912+835659990+836493923+837223130+837911855+838720355+839749042
2700+840939306+842170316+843376949+844587718+845800247+846949589+848027031
2687+849069183+850088278+851061522+851958026+852785622+853603098+854449440
2673+855280468+856029917+856700337+857334675+857927387+858440454+858886638
2660+859318829+859746444+860134985+860480140+860809806+861130847+861457080
2646+861806195+862148182+862466319+862758406+862986779+863164108+863354990
2633+863589347+863843329+864074605+864297169+864569192+864909682+865310103
2619+865751975+866188039+866584676+866942151+867288626+867633340+867931852
2606+868166033+868380412+868616265+868860214+869091931+869342568+869629464
2592+869912575+870162156+870408657+870673552+870922077+871135136+871334731
2579+871529310+871708575+871869008+872000751+872102396+872193481+872275854
2565+872330329+872356642+872372395+872355146+872265733+872119205+871960357
2552+871837854+871777483+871773787+871828702+872001543+872349514+872802650
2538+873266171+873762606+874332700+874940285+875554822+876165135+876711820
2525+877183701+877631381+878048436+878438385+878845847+879256477+879635337
2511+879999853+880393146+880836514+881303995+881787317+882319481+882898905
2498+883532891+884234288+884950647+885640780+886317448+887006261+887736348
2484+888494421+889213860+889887360+890580397+891305468+892033267+892779019
2471+893555045+894311710+895022172+895716793+896397774+897071362+897780680
2457+898509535+899162442+899685983+900131726+900558285+900959587+901312926
2444+901624815+901907222+902157243+902381567+902589963+902751011+902819127
2430+902819039+902812967+902800998+902753299+902671983+902597179+902583890
2417+902668375+902873866+903211364+903642675+904113940+904635720+905209247
2403+905781278+906337468+906900258+907421334+907913809+908366681+908717204
2390+908869364+908726268+908294165+907701277+907085772+906501333+906005426
2376+905645751+905284755+904808474+904354193+904071698+903841478+903742296
2363+904012559+905087273+907312032+910327338+912784254+912813120+910079693
2349+907209419+907056203+909386744+911552452+912128091+911948649+911877102
2336+912137684+912581139+913231934+913992911+914409174+914412430+914623817
2322+915475791+916458364+916842768+916738659+916759780+917148409+917663412
2309+918069114+918376075+918675467+919036990+919426499+919780454+920120857
2295+920487396+920820406+921105717+921370084+921579623+921670796+921693941
2282+921763113+921904096+922030119+922046928+921964732+921856486+921752200
2268+921625121+921452016+921239485+921035490+920916155+920955053+921201467
2255+921660499+922285597+923086264+924059596+924648700+925139942+925603463
2241+926033718+926409498+926747877+927054661+927345341+927643237+927937261
2228+928224596+928519500+928818980+929111508+929398667+929703867+930046030
2214+930399897+930723050+931007305+931314882+931684942+932060810+932393468
2201+932704037+933031062+933374017+933704298+934017155+934333884+934661438
2187+934979575+935275887+935595344+935998758+936455502+936866132+937214015
2174+937571226+937962319+938350508+938720920+939087548+939460160+939816139
2160+940108931+940373913+940697418+941048997+941352173+941617684+941855560
2147+942050315+942232485+942432695+942647603+942901497+943224914+943634928
2133+944159348+944781366+945457066+946183897+946946018+947704003+948467620
2120+949234229+949953756+950624000+951272858+951870235+952376702+952824558
2106+953267838+953684364+954025382+954337359+954711995+955102736+955450003
2093+955744115+956041483+956397198+956791371+957178240+957566429+957984011
2079+958430019+958881659+959338404+959835367+960360315+960834396+961208592
2066+961547058+961947744+962384687+962768564+963096470+963422439+963749465
2052+964045689+964311375+964564037+964831659+965129907+965429563+965683017
2039+965890796+966118552+966374206+966572481+966716280+966897834+967130254
2025+967357483+967551533+967710294+967871782+968086778+968303270+968449973
2012+968583917+968769079+968937960+969036965+969111593+969199774+969280914
1998+969309340+969267713+969248000+969359414+969510606+969523631+969429730
1985+969369271+969367159+969344365+969284170+969253721+969290331+969334597
1971+969309604+969284874+969375783+969528207+969621052+969670951+969749979
1958+969836312+969862449+969817127+969716537+969534192+969215439+968731413
1944+968168358+967608032+966903114+965881643+964572309+963094446+961577860
1931+960181929+959124552+958654079+958975296+960079668+961655744+963547318
1917+965629950+967460976+968894309+970157001+971362490+972474958+973433769
1904+974248869+974975260+975600094+976119145+976592347+977012921+977385182
1890+977847998+978364938+978744767+979048559+979391513+979726987+980031572
1877+980371094+980723465+980950869+981165953+981657899+982287133+982715188
1863+982938016+983131978+983419226+983818855+984214084+984496668+984696526
1850+984874824+985076707+985505730+986204927+986744660+986981833+987215046
1836+987495341+987650933+987792797+988179930+988621713+988894792+989215569
1823+989608862+989896638+990125978+990406361+990722474+991041315+991407503
1809+991800884+992098428+992246364+992372915+992694748+993147092+993386641
1796+993396762+993599877+994126585+994546632+994654173+994701256+994851304
1782+995085573+995350291+995454400+995326178+995357683+995805363+996245475
1769+996342984+996231922+996104491+996186776+996463023+996708908+996951625
1755+997167940+997327317+997710490+998364981+998933315+999238252+999398508
1742+999604791+999785641+999663755+999574254+1000036191+1000542570+1000593349
1728+1000483959+1000344911+1000073505+999607256+999134494+999096300+999388300
1715+999364539+998931115+998357940+997748948+997102025+996321423+995498227
1701+995008832+994684535+994023356+993129579+991995111+990480285+988722567
1688+986989226+985650146+984600777+983184957+981293119+979416859+977876688
1674+976517455+975167550+974085620+973294546+972403234+971492121+970885680
1661+970383789+969549680+968501720+968127348+968670953+968653352+967757816
1647+967245541+967298872+967160264+966758523+966516686+966975894+968275284
1634+969469508+969952214+970341283+971135350+972239721+973513677+974660379
1620+975487096+976650430+978529947+980301130+981537597+982610462+983676200
1607+984655692+985578422+986479766+987279641+987942141+988558878+989198056
1593+989819370+990392016+990937118+991454585+991913530+992257453+992411197
1580+992487145+992943449+993732588+994005667+993751685+993711643+993883076
1566+993733996+993087513+992267309+992060586+992575502+992612552+991879384
1553+990992121+990200254+989404515+988427487+987371518+986699602+986665984
1539+986631662+985751615+984374605+983229136+982193056+980915755+979543057
1526+978269013+977084381+975980802+974812539+973377358+971723837+969860953
1512+967680372+965318413+963214484+961389882+959088382+955938869+952235102
1499+948066230+943155654+937263826+930307492+922383458+914590023+908635007
1485+905039222+902976567+901365113+899605810+897521946+894857339+891040574
1472+885782115+879577254+872787689+865055858+856097944+846415928+837106348
1458+830109004+827596909+829131623+832315635+835892323+840068587+845041470
1445+850073405+854109126+856429898+857038011+856542368+855468007+854041010
1431+852484294+851047089+849900035+849210430+849007931+849268073+850240702
1418+852014349+854190354+856537968+859054903+861692669+864405767+867156707
1404+869694235+871591177+872706637+872981036+872042465+869602182+865542348
1391+859483838+850923882+840473321+830574901+824127587+823173879+828189709
1377+838132747+851894487+868594440+886738903+904568485+919851474+930506999
1364+936436141+938918931+939350682+938903354+938249567+937444763+936255467
1350+934548088+932415821+930079296+927698768+925333817+923113369+921306456
1337+920054413+919285868+918962450+919140220+919853322+921085740+922811601
1323+924994822+927566761+930430434+933509280+936808225+940380425+944243481
1310+948327692+952550423+956834317+961063472+965110810+968835082+972112290
1296+974882503+977113335+978702876+979498175+979401106+978285470+975931431
1283+972250634+967577495+962742427+958977320+957614567+959488276+964446374
1269+971417669+979051551+986318454+992702229+998099735+1002549870+1006121454
1256+1009006073+1011408866+1013355266+1014864811+1016114655+1017177312
1244+1017929136+1018393009+1018812528+1019270152+1019713432+1020236444
1232+1020948490+1021856347+1022889259+1023939155+1024936689+1025826328
1221+1026556768+1027163208+1027718782+1028183535+1028471398+1028614758
1209+1028748261+1028919695+1028967393+1028803616+1028639312+1028665185
1198+1028680322+1028529042+1028286501+1028120260+1028047832+1027871646
1186+1027446495+1026911603+1026436289+1025937566+1025207831+1024195073
1175+1023003753+1021613718+1019838751+1017601846+1015038885+1012304314
1163+1009401038+1006360474+1003474535+1001025364+999025104+997362519+995888880
1150+994450882+992914232+991163114+989215921+987125105+984767282+982002614
1136+978911712+975631599+972113258+968341904+964554444+960905856+957163367
1123+952930691+948002163+942265926+935235317+926033982+913949877+898588916
1109+879324240+854876087+823858292+785889444+742012750+694570633+647512217
1096+606342152+576588854+561773258+562459298+576708628+601161754+631915446
1082+664934073+696516154+724018819+745974283+761604099+770805521+774307846
1069+772535430+763773856+743784726+707521321+652199920+580456221+501789366
1055+430132044+377939256+351919338+353580559+381657719+432922762+501783866
1042+580462426+660181377+733193884+794865838+844380731+883582525+914911505
1028+940090890+959918883+974366443+983377599+988205275+991919514+997789694
1015+1006599935+1016616105+1026006826+1033998623+1040481316+1045758783
1003+1050325965+1054279841+1057299636+1059408493+1061126169+1062754257
991+1064057431+1064740171+1064931318+1064956047+1064767365+1063892158
980+1061821230+1058124240+1052132262+1043438539+1033736369+1027327513
968+1028001893+1035301269+1045202682+1054111224+1060824137+1065613354
957+1068981031+1071142603+1072286753+1072899002+1073372291+1073694652
945+1073741823+1073559125+1073313416+1073033737+1072576464+1071928486
934+1071257978+1070587293+1069715519+1068517598+1067082065+1065618194
922+1064191022+1062562230+1060522721+1058129608+1055486034+1052545796
910+1049191584+1045350617+1040968246+1036022468+1030346163+1023353307
899+1014092130+1001357406+983593827+958721315+924708895+881155971+830741934
885+779920963+739437644+723485335+742611446+793104600+857143177+915977066
872+960372283+990167164+1009048491+1020593479+1027143847+1030449833+1032124827
858+1033281913+1034137583+1034513979+1034561854+1034542405+1034242133
847+1033232542+1031658666+1030120695+1028827642+1027370019+1025420451
835+1023237933+1021216289+1019340996+1017254052+1014838938+1012403935
824+1010039776+1007327118+1003930136+999992628+995666844+990706457+984699607
810+977622442+970328962+964425253+961453333+961941936+965032310+968959785
797+972161397+973998496+974455064+973882417+972909173+971826363+970452433
783+968784391+967034681+965322021+963595369+961619134+959498484+957651353
770+956055915+954309286+952249799+950129589+948116921+946080051+943958873
756+941932917+940264259+938888833+937426194+935785434+934157347+932550292
743+930880315+929138085+927363998+925638401+923943254+922219769+920512918
729+918866525+917233773+915657785+914439535+912939671+911067810+909055582
716+907160312+905447212+903874744+902466316+901208464+899999895+898680088
702+897194393+895658974+894249754+893026313+891912613+890779464+889588056
689+888423577+887365585+886409149+885568264+884806847+883972034+882899433
675+881302763+879566517+879620288+881370614+880952152+878342196+877151316
662+877477197+877457044+876952601+876527186+876293798+876344928+876643616
648+876778264+876570660+876390515+876568372+877012004+877433459+877661743
635+877766997+877923205+878241166+878711728+879097980+879569158+880048167
621+880449381+880979169+881737858+882442688+883046400+883755455+884611037
608+885476475+886176113+886759760+887535698+888548192+889447776+890179272
594+891159380+892414504+893450055+894142213+894866140+895784997+896675957
581+897498009+898511559+899769059+901011774+901956505+902702433+903707535
567+904884598+905567075+905726979+906067821+906974886+908207480+909500006
554+910748441+911768064+912495775+913224542+914124214+914983404+915638600
540+916226119+917119279+918398076+919558506+920296338+920865553+921450608
527+921999493+922469087+922916767+923343238+923580234+923634445+923931285
513+924608218+925196089+925364354+925297735+925217474+925088635+925000015
500+925249596+925676155+925587446+924738201+923715410+923052646+922657769
486+922236842+921837917+921705910+921709606+921340250+920293610+918973363
473+918021768+917265015+915934384+914110838+912840313+912315277+911454591
459+909684904+907355947+904942417+902672159+900209787+897007735+893063275
446+888894931+885056252+881459851+877631909+874008403+871351716+869447206
432+868166209+868621017+871775371+876667202+881206662+884551721+887753597
419+891834993+896103926+899282921+900845709+901305270+902151259+903746609
405+904953770+905905981+907229396+908530722
##END=
