##TITLE=20
##JCAMP-DX=4.24
##DATA TYPE=INFRARED SPECTRUM
##DATE=16/11/2015
##SAMPLING PROCEDURE=Instrument type and / or accessory
##ORIGIN=Default
##XUNITS=1/CM
##YUNITS=TRANSMITTANCE
##RESOLUTION=4
##FIRSTX=3996.3359
##LASTX=399.24785
##DELTAX=-1.9287336
##MAXY=1.4522454
##MINY=0.39161345
##XFACTOR=1
##YFACTOR=1.3525089e-009
##NPOINTS=1866
##FIRSTY=0.91506106
##XYDATA=(X++(Y..Y))
3996+676565653+676639117+676763923+676970169+677168438+677294830+677448149
3983+677717150+678013343+678219060+678369734+678550949+678770768+679021921
3969+679312517+679593858+679779347+679890755+680056237+680306244+680556913
3956+680735615+680829792+680935868+681180499+681462589+681584926+681724539
3942+682070751+682357644+682371482+682202343+682138045+682450367+682908559
3929+683083869+683083692+683211142+683338239+683332334+683514694+684011139
3915+684379738+684371409+684223511+683968700+683554709+683443654+683959093
3902+684759927+685472269+685764143+685399907+684932328+685037214+685223276
3888+685023860+685102437+685457682+685596149+685848933+686002604+685661240
3875+685268668+685164090+685505498+685986827+686027636+686060379+686417564
3861+686440348+685545073+684168336+684116774+686322859+688299252+688140204
3848+687063582+686362301+686124897+685987753+686127013+686879635+687600924
3834+687759222+687786104+687881824+687854456+687573424+687059924+686993291
3821+687552491+687855602+688203488+688868015+688754007+687792539+687171685
3807+687347787+687428567+687372995+687993320+688589142+688595180+688573145
3794+688504484+688233456+687974855+687833215+687809726+687778172+687689239
3780+687866708+688268579+688302337+687830350+687376565+687417990+687731722
3767+687869264+687741682+687378548+687149253+687242152+686954377+686003574
3753+685437366+686039843+686605257+686217003+686360803+687321566+686988707
3740+685329572+684220161+684448795+685322697+685850916+685550008+684826560
3726+684414641+684373832+684376080+684223202+683586483+682259193+680819480
3713+680317130+680660300+680501870+679240155+677421927+675772046+674321448
3699+672573292+670366767+667882735+665382882+663415523+662553740+662267199
3686+661511492+660418211+659358511+657742167+655619683+654527372+654650899
3672+654705942+654770019+654813516+654142555+652987797+651853399+650849844
3659+650271298+650393238+650401568+649655997+649269109+650053549+650802337
3645+650434840+649416874+648472285+647710849+646930374+645937132+644529061
3632+643049598+642506924+642583252+641586837+639401509+637233104+635825033
3618+634768947+633216593+631252980+629392181+627752965+626227360+624484889
3605+622290439+619916361+617655718+615450735+613254875+611089290+608723321
3591+606065610+603599911+601580682+599482745+596991265+594375817+591830131
3578+589332262+586823683+584140456+581112560+578053154+575541931+573394811
3564+570906284+568033866+565186435+562406035+559527623+556576144+553647404
3551+550668778+547565787+544485581+541546838+538662917+535713069+532674684
3537+529630041+526624797+523596857+520542211+517519471+514459492+511314591
3524+508232313+505274311+502329927+499316574+496221604+493091598+490049424
3510+487156822+484265145+481187847+478009365+474990767+472134082+469267613
3497+466395195+463557239+460722853+457868988+454987580+452088103+449201054
3483+446290603+443299726+440356355+437603542+434935607+432105408+428980603
3470+425764265+422852316+420298345+417760196+415059605+412343326+409734621
3456+407163463+404568287+401954866+399309627+396710133+394228084+391815929
3443+389419552+386943012+384315974+381741863+379523263+377577410+375603925
3429+373590029+371684499+369854109+368004724+366172130+364395108+362618461
3416+360782518+358985114+357372758+355892744+354470438+353089272+351584006
3402+349912244+348487427+347571902+346735283+345632769+344492775+343704941
3389+343213454+342706278+342109221+341508596+340956314+340501669+340180732
3375+339963490+339717912+339359207+339107216+339299933+339882358+340461720
3362+340901359+341407081+342046664+342669237+343155237+343597367+344311053
3348+345398737+346571960+347634899+348659828+349721665+350912098+352333742
3335+353897312+355461610+356995037+358471812+359933273+361571784+363460479
3321+365413074+367283193+369124513+371042007+373023645+374928601+376689626
3308+378483262+380603191+383088148+385624887+387949608+390125945+392351597
3294+394730831+397275327+399917260+402539186+405124975+407761312+410462343
3281+413157690+415810112+418461388+421171366+423935417+426802106+429867858
3267+433078863+436321070+439540978+442747577+445978854+449225777+452537305
3254+455975887+459444964+462855826+466294099+469903274+473683352+477498156
3240+481289251+485084401+488860732+492652885+496634405+500822656+505014212
3227+509133494+513267319+517449047+521672334+525944934+530238115+534549805
3213+538908121+543275251+547606993+551907798+556224027+560590363+564977721
3200+569370808+573783903+578187302+582540726+586861318+591179883+595492631
3186+599780435+604032059+608253450+612464793+616669438+620812077+624867987
3173+628893885+632929126+636958594+640912526+644754522+648550244+652326355
3159+656042796+659687095+663237173+666698670+670172023+673680190+677126969
3146+680469434+683716930+686870116+689977426+693111970+696241006+699280052
3132+702196364+705005145+707772810+710511961+713151383+715685478+718174138
3119+720621019+723008318+725355954+727641408+729817437+731913436+733958269
3105+735930476+737852752+739751847+741595811+743367324+745072116+746683832
3092+748166337+749556207+750925981+752266140+753535347+754757664+755969580
3078+757184493+758382924+759477439+760395411+761161694+761863989+762562670
3065+763218074+763766742+764199418+764517425+764715827+764779199+764719000
3051+764549860+764219866+763678514+762950659+762079931+761032130+759726874
3038+758118418+756218574+754057308+751616553+748868191+745789747+742343850
3024+738493260+734237230+729594885+724514355+718908867+712748101+706031793
3011+698677223+690553196+681596296+671772414+660959916+648929199+635541181
2997+620787090+604380253+584945344+560921768+533462914+505053610+475811521
2984+445047706+414184557+386618527+366280939+356249906+358306198+372794791
2970+398007721+430306968+465441527+499710954+530483715+556402245+577075468
2957+592482936+602706486+608185891+609727978+607945491+603263615+596520821
2943+589043825+582076540+576237879+571521938+567690695+564478280+561849743
2930+560447093+561186670+564245107+568886218+574097458+578993513+582771210
2916+584710894+584386805+582093727+578616144+574224203+568823595+562490604
2903+555956215+551526154+550633611+551365168+551686964+551737424+552020131
2889+552367268+552495555+552752217+554029753+557050378+562089614+569180295
2876+578274472+589207677+601779525+615695366+630431565+645353781+659871262
2862+673554107+686143980+697538462+707827456+717251627+726014576+734183025
2849+741752963+748655334+754867573+760518630+765785662+770780345+775558204
2835+780216899+784877445+789532878+794024814+798243693+802211463+805962675
2822+809490806+812754343+815746763+818533818+821233439+823980038+826852853
2808+829919310+833224889+836674753+840126114+843469770+846568221+849336415
2795+851833491+854139834+856214812+857985355+859515543+860882409+862050608
2781+863034067+863914139+864719556+865416827+865942490+866295488+866567046
2768+866812161+866984210+867025018+866970900+866918986+866903121+866892721
2754+866893250+866940845+867075257+867361005+867820917+868413301+869094531
2741+869820447+870579238+871377869+872173239+872939523+873710390+874533435
2727+875423026+876395380+877538195+878924803+880532025+882261672+883943283
2714+885399346+886582969+887571188+888425170+889230941+890173503+891359947
2700+892734481+894172034+895567545+896918281+898264522+899597982+900881556
2687+902084835+903218395+904317229+905373756+906355540+907289817+908218807
2673+909114655+909943342+910716148+911419059+912002806+912494712+912982035
2660+913471561+913916753+914313644+914673077+915002542+915328217+915670198
2646+916000808+916301804+916617167+916947073+917215898+917389268+917514250
2633+917680128+917909731+918139598+918363913+918638908+918994639+919425288
2619+919895335+920362121+920775583+921113157+921444737+921802495+922099877
2606+922303303+922486721+922694465+922909613+923127229+923342907+923561580
2592+923796207+924017349+924232233+924466860+924687825+924889224+925082866
2579+925244161+925359095+925458428+925565165+925642375+925659209+925643256
2565+925601390+925516424+925419823+925312469+925144740+924910730+924646223
2552+924407366+924223948+924107339+924100288+924235230+924520184+924935585
2538+925433308+925980125+926564489+927169654+927777463+928369054+928909966
2525+929390854+929834989+930225799+930569718+930955416+931374607+931703808
2511+931958883+932298484+932771881+933273658+933749523+934261877+934854085
2498+935533904+936261583+936959735+937625452+938311705+939051106+939822238
2484+940570629+941293548+942032509+942796413+943556262+944299277+945058422
2471+945859080+946659209+947410245+948124085+948848239+949604827+950371375
2457+951121970+951799586+952330185+952752549+953155081+953537165+953862311
2444+954112804+954286526+954428166+954580295+954729955+954829994+954821180
2430+954715765+954588315+954444208+954244219+954015233+953839836+953759982
2417+953774436+953908937+954192305+954596777+955079252+955644313+956256089
2403+956843626+957407101+957955680+958455871+958938346+959386271+959715559
2390+959807048+959561315+959060948+958546302+958176117+957902356+957725813
2376+957704748+957604886+957181023+956706745+956428842+955969636+955498707
2363+955421409+956292050+959022255+963064503+965967373+964578826+958932970
2349+954556938+956138863+961307004+964201589+963578532+962345903+962003129
2336+962432632+963014087+963675750+964409774+964765857+964745145+965209022
2322+966531377+967615051+967515630+966923245+966949510+967614346+968265696
2309+968551091+968578767+968596130+968804139+969149998+969437509+969687825
2295+969969871+970184490+970321987+970445999+970516775+970445030+970296339
2282+970230675+970284704+970341025+970279857+970101198+969884199+969672753
2268+969427373+969124173+968789332+968469033+968238725+968185048+968376311
2255+968823706+969460161+970289288+971336912+971997605+972514895+972956738
2241+973375400+973751314+974062006+974332682+974614463+974908672+975182786
2228+975434512+975670902+975898566+976134427+976382803+976656388+976966286
2214+977265255+977517774+977760334+978036298+978337470+978617225+978858727
2201+979109131+979394614+979680009+979945573+980197916+980438096+980665055
2187+980874650+981075785+981325836+981690204+982128698+982514307+982810896
2174+983119032+983489129+983861606+984199268+984512163+984830081+985160868
2160+985443443+985665114+985908819+986173854+986373666+986516981+986653244
2147+986769412+986855172+986948335+987079663+987240164+987442004+987740972
2133+988176116+988738710+989389531+990094470+990844272+991643255+992479786
2120+993307415+994050870+994661235+995191746+995715559+996226326+996713737
2106+997182639+997590988+997901768+998179054+998511604+998861341+999185518
2093+999487219+999798880+1000171533+1000604209+1001023841+1001412183+1001810485
2079+1002235052+1002689939+1003179642+1003699223+1004215015+1004660383
2068+1004995137+1005291638+1005655036+1006065942+1006441063+1006758541
2056+1007049754+1007339908+1007628653+1007903472+1008146648+1008373166
2044+1008617753+1008863750+1009059596+1009220891+1009416384+1009627919
2033+1009766914+1009853732+1009994050+1010203292+1010408833+1010570217
2021+1010679157+1010764564+1010879498+1011012676+1011125671+1011241222
2010+1011377133+1011455577+1011426138+1011378807+1011401459+1011449759
1998+1011427108+1011299041+1011152730+1011113243+1011127169+1011039911
1987+1010869097+1010728074+1010644694+1010542453+1010369347+1010202499
1975+1010138951+1010125730+1010034065+1009893130+1009844301+1009877089
1963+1009860342+1009804109+1009789037+1009746378+1009571597+1009293518
1952+1008985911+1008615373+1008068909+1007314436+1006496415+1005717527
1940+1004786775+1003473146+1001777521+999875649+998012030+996370434+995112862
1927+994506110+994839101+996115183+997919308+1000001688+1002272335+1004356214
1913+1006089387+1007625392+1009038090+1010304653+1011371139+1012262933
1902+1013074609+1013793562+1014377397+1014895392+1015371168+1015771321
1890+1016222771+1016758218+1017200149+1017550591+1017910640+1018250946
1879+1018535725+1018829052+1019122909+1019241809+1019278475+1019631738
1867+1020271630+1020783984+1021053778+1021240722+1021491479+1021832402
1855+1022145120+1022345725+1022488511+1022599391+1022638436+1022814274
1844+1023371315+1023982474+1024317932+1024546654+1024757042+1024799173
1832+1024758717+1024956061+1025305710+1025570745+1025917926+1026345755
1821+1026622777+1026785218+1026969429+1027146589+1027282500+1027492536
1809+1027815126+1028085450+1028163189+1028129431+1028230968+1028505258
1798+1028627243+1028455988+1028408921+1028815861+1029290227+1029418558
1786+1029355362+1029336676+1029404896+1029523444+1029472235+1029071112
1774+1028668139+1028751343+1029160486+1029435392+1029425168+1029209844
1763+1029097642+1029216719+1029366732+1029526440+1029653097+1029667992
1751+1029854319+1030374694+1030927063+1031256264+1031373049+1031433865
1740+1031431309+1031093999+1030710505+1030957824+1031509488+1031704805
1728+1031626273+1031362119+1030848443+1030036591+1029058244+1028428576
1717+1028361679+1028328538+1027966814+1027297572+1026363647+1025271776
1705+1024054484+1022704012+1021538192+1020715676+1019942870+1019134984
1693+1018053690+1016397111+1014240164+1011834312+1009692877+1008184460
1682+1006793004+1004885403+1002627008+1000497472+998604503+996808663+995356655
1668+994395055+993438830+992356303+991566838+991018171+990089799+988608704
1655+987531641+987722287+987965728+987357302+987037268+987508901+987898037
1641+987790683+987496914+987763712+989214046+991052369+992192892+992953182
1628+993941577+995224534+996759570+998232379+999216543+1000306474+1002244747
1614+1004367232+1005926858+1007132428+1008260260+1009307620+1010270895
1603+1011175646+1011970751+1012611436+1013155345+1013679862+1014176880
1591+1014620045+1015027072+1015404926+1015721699+1015913843+1015848091
1580+1015497825+1015347371+1015740296+1015998809+1015728309+1015529731
1568+1015625715+1015474027+1014645076+1013233524+1012140948+1012213752
1556+1012613376+1012381833+1011703072+1010890691+1009948481+1008673281
1545+1007044906+1005507491+1004712914+1004580265+1004030099+1002784160
1533+1001528791+1000366497+998863368+997019757+995089240+993205261+991501351
1520+989944633+988281002+986424875+984269779+981568660+978325219+975057099
1506+972323368+969710741+966313761+961923010+956691409+950638349+943649073
1493+935502879+926205233+917076814+910096087+905726754+902940404+900583116
1479+898085158+895245043+891755693+887159489+881334798+874613113+867032334
1466+858200151+848067472+837261144+826717559+818224096+814247865+814883350
1452+817867396+821865398+827012562+833167422+839100613+843593517+846008801
1439+846480963+845808548+844620517+843036212+841142626+839154025+837253211
1425+835603947+834203413+832947515+831992613+831496829+831170184+830785280
1412+830573745+830898362+832046995+834266961+837505026+841132490+844119621
1398+844488661+840486957+834630448+831128671+828394675+821553297+810064770
1385+798280800+790727696+789919986+796209789+808237024+824696083+844587641
1371+866145299+887317347+905600626+918682537+926464363+930328217+931753430
1358+932039266+932001631+931720819+930874769+929292226+927156521+924780989
1344+922306387+919780665+917393939+915480962+914195097+913417972+913098731
1331+913352132+914214576+915576153+917395438+919737918+922601566+925847122
1317+929320166+933006860+936982916+941250184+945708273+950283236+954926947
1304+959539369+963954270+967962849+971427167+974327746+976626861+978146737
1290+978708890+978254619+976654096+973600420+968944545+963085656+957001483
1277+952093266+949779343+950875797+955139715+961327011+967970253+974108102
1263+979313790+983482606+986744557+989322810+991425463+993028365+994083834
1250+995421614+997915870+1000378044+1000787539+1000284440+1001710447+1004060330
1236+1004564488+1003575652+1002794649+1002922275+1003994402+1005789008
1225+1008039206+1010495122+1013018023+1015597334+1018201148+1020625950
1213+1022654918+1024298630+1025698812+1026926417+1027876383+1028493271
1202+1028961291+1029468797+1029912843+1030176116+1030360856+1030612758
1190+1030906174+1031038824+1030876559+1030553969+1030249095+1029894510
1178+1029240604+1028244982+1027086478+1025734332+1023886754+1021366233
1167+1018367467+1015173207+1011819769+1008310499+1004946484+1002053309
1155+999633090+997542071+995698019+993981240+992122381+989912110+987402605
1142+984676102+981635822+978150703+974277242+970124203+965615521+960782398
1128+955941343+951227032+946307621+940674633+934009622+926144857+916627215
1115+904624923+889391971+870456020+847288408+818892545+784158139+742926803
1101+696373832+646945446+598605978+556515856+525340959+507705019+504399043
1088+514362803+534289926+559947651+587469965+613728095+636812062+655824519
1074+670167880+679372055+682019498+676314059+663971550+646367869+616647139
1061+566340400+497739452+423770155+358852794+312533503+289545938+291270980
1047+316901316+364236810+429011672+504499346+582546719+656602702+722894354
1034+778900537+823132226+855731367+881133576+905229031+926414035+939671431
1020+946047169+950744557+958127288+969319049+982494300+995518215+1007205232
1007+1017188162+1025800348+1033555644+1040386357+1045853202+1049961114
995+1053224475+1056011970+1058141330+1059331211+1059732422+1059730306
984+1059371403+1058294251+1056044053+1052068174+1045495092+1035594396
972+1024037032+1016129520+1016686296+1024995460+1036296426+1046678892
961+1054819797+1060911462+1065411594+1068552970+1070536282+1071780810
949+1072728308+1073448848+1073741823+1073608292+1073333297+1073021107
937+1072503553+1071766796+1070963758+1070107748+1069016054+1067526322
926+1065682887+1063685473+1061539896+1058992932+1055930882+1052416325
914+1048458073+1043943575+1038770675+1032948540+1026530054+1019560521
903+1011871418+1002935672+991911463+977506052+957639348+930019112+893489747
889+848115773+795813338+742774851+700268359+682902213+702195086+755289409
876+823249187+885702281+933095881+965416767+986435804+999874856+1008195566
862+1013167508+1016316287+1018741618+1020776668+1022288523+1023288200
851+1023981152+1024249360+1023686325+1022406189+1020995695+1019683299
839+1018107015+1016012471+1013687001+1011436010+1009223888+1006806225
827+1004101403+1001342112+998610761+995553559+991804021+987401724+982493154
814+976870214+970142712+962331536+954224388+947425316+943800849+944164336
800+947595249+952080309+955770793+957819152+958224594+957500617+956376752
787+955134956+953518568+951537723+949597688+947854379+946036857+943839807
773+941501293+939519743+937841481+935982622+933726430+931320578+928999780
760+926662235+924236199+922001073+920201884+918626833+916921512+915092973
746+913325690+911571188+909761951+907912522+905988616+904054397+902136132
733+900181112+898275715+896463658+894624013+892816539+891304243+889633033
719+887448410+885081074+883161311+881597277+879936643+878163720+876493214
706+874989821+873516659+871921954+870219277+868643169+867352191+866181524
692+864860756+863394733+862028397+860899243+859920896+859023637+858139159
679+857134458+855714973+853149500+850336268+851686827+856819272+856260203
665+849990056+847300660+848693350+849624454+849229942+848632622+848261819
652+848236347+848483931+848578945+848406015+848313557+848440302+848594369
638+848693879+848787483+848872273+848989851+849369731+850151968+850887756
625+851360888+851535668+851740152+852385068+853446530+854460574+855213813
611+855807079+856367381+857016175+857728958+858446324+859353543+860538753
598+861661473+862542073+863551181+864813160+865893837+866687621+867581971
584+868654891+869596661+870397936+871385978+872588023+873787952+874839543
571+875689736+876547244+877502058+878240754+878736361+879373609+880293696
557+881353484+882459809+883525855+884494419+885380131+886277302+887354541
544+888573245+889640612+890474147+891370524+892283207+892863253+893392177
530+894294989+895350193+896113392+896450525+896645666+896968873+897288025
517+897475498+897882085+898589315+899101669+899273189+899373051+899511429
503+899585819+899526413+899475821+899479875+899230441+898612496+898050167
490+897714796+897193188+896199504+895105342+894673018+894826469+894562756
476+893543688+892275363+890952391+889427227+887696787+886099172+885099143
463+884349606+883016498+880994757+878624336+876074112+873327424+870300189
449+866801320+862601479+857919868+853304538+848814365+844011739+839045790
436+834864282+832437452+832267079+834165513+837390973+841456843+846483343
422+852085217+857382130+862093972+866228855+869655185+871809135+872427697
409+872493890+872931766+873534904+873699549+873532613+873736655
##END=
