##TITLE=20
##JCAMP-DX=4.24
##DATA TYPE=INFRARED SPECTRUM
##DATE=16/11/2015
##SAMPLING PROCEDURE=Instrument type and / or accessory
##ORIGIN=Default
##XUNITS=1/CM
##YUNITS=TRANSMITTANCE
##RESOLUTION=4
##FIRSTX=3996.3359
##LASTX=399.24785
##DELTAX=-1.9287336
##MAXY=1.473627
##MINY=0.44282344
##XFACTOR=1
##YFACTOR=1.3724221e-009
##NPOINTS=1866
##FIRSTY=0.8927775
##XYDATA=(X++(Y..Y))
3996+650512349+650595301+650687590+650846893+651022177+651183260+651379782
3983+651619517+651857515+652033060+652155794+652337810+652622148+652929982
3969+653218662+653464478+653604757+653697698+653891962+654175561+654430497
3956+654609516+654717658+654817157+655029270+655308049+655468784+655627739
3942+655963976+656270159+656336825+656208315+656165536+656498212+656977942
3929+657170121+657183150+657326861+657481125+657510571+657707571+658170233
3915+658490227+658465559+658322109+658099398+657805158+657877209+658506774
3902+659296162+659919213+660110610+659736589+659383066+659595875+659788966
3888+659595831+659751138+660187959+660356990+660570102+660657745+660320639
3875+660014629+660020883+660456445+661000626+661071027+661089181+661395321
3861+661398361+660594553+659439569+659630532+661872141+663629894+663246926
3848+662091117+661414995+661237234+661187203+661458208+662314392+663003891
3834+663043542+662977137+663011404+662922024+662608892+662153526+662207640
3821+662844719+663172356+663502209+664046608+663801096+662865913+662392479
3807+662659228+662754644+662754384+663425034+663973905+663889998+663785157
3794+663640839+663316241+663048971+662950298+662981003+662984043+662924457
3780+663092749+663398454+663319802+662854447+662564072+662804068+663202975
3767+663316284+663154376+662814231+662673256+662868301+662675905+661896984
3753+661617466+662469655+663088536+662620358+662684027+663524532+663079893
3740+661443528+660448888+660736657+661559313+661980326+661595187+660864082
3726+660498877+660526238+660642327+660664650+660312431+659400482+658410663
3713+658247756+658788463+658814087+657878425+656621076+655787171+655317473
3699+654561743+653325544+651809785+650258586+649193025+649036415+649115024
3686+648476078+647358183+646277117+645145846+644290748+644425381+644774517
3672+644474458+644303777+644199718+643382751+642196932+641103140+640053605
3659+639262653+638969976+638451549+637287923+636576101+636856530+636857051
3645+635758092+634194212+632842010+631710869+630576080+629289328+627684624
3632+626126824+625520494+625403189+624191745+621966249+619887850+618556018
3618+617535624+616083794+614286259+612509701+610811187+609182986+607404734
3605+605296022+603116778+601086935+599079892+597040060+595026677+592827021
3591+590358141+588101896+586291158+584368935+582021529+579558252+577183659
3578+574844071+572483463+570003942+567266490+564508017+562222890+560239561
3564+557895760+555155441+552431148+549814214+547150723+544409666+541660183
3551+538882254+536015813+533129829+530319110+527580832+524823662+521975158
3537+519128435+516384077+513635376+510766634+507842301+504900422+501914114
3524+498992691+496216715+493476613+490634668+487681063+484726980+481909181
3510+479231272+476503243+473577607+470583656+467768116+465110010+462427106
3497+459718187+457027986+454323975+451592603+448853109+446113181+443372341
3483+440602228+437790944+435051755+432458708+429888331+427143365+424137123
3470+421049101+418226351+415764203+413389523+410853544+408196524+405608819
3456+403124782+400658638+398192538+395726959+393301031+390947589+388627675
3443+386311930+383923830+381413258+378983378+376892863+375029965+373122552
3429+371179916+369351242+367598006+365825182+364084259+362401271+360704950
3416+358952366+357232962+355684326+354284047+352974321+351706527+350287508
3402+348694486+347335054+346432855+345572024+344485378+343398427+342661741
3389+342220794+341750292+341139467+340516655+339988543+339582688+339317220
3375+339142305+338904264+338552978+338301669+338442926+338981982+339606314
3362+340100941+340570444+341153191+341797826+342375340+342923017+343683894
3348+344712757+345770544+346759820+347768119+348804191+349941021+351319824
3335+352864421+354399072+355865104+357277196+358724509+360350863+362166856
3321+364048885+365932976+367810857+369680009+371539692+373352428+375106533
3308+376906760+378975561+381399534+383926567+386275579+388424856+390509291
3294+392694528+395107817+397709376+400325789+402890128+405455293+408040653
3281+410639737+413237518+415824832+418429301+421080284+423874370+426889993
3267+430001554+433082323+436156186+439265315+442414356+445597664+448872348
3254+452271244+455656806+458919157+462198272+465698968+469388455+473104218
3240+476817548+480533224+484179194+487813047+491655148+495716138+499778952
3227+503775926+507781542+511810132+515850667+519924208+524024545+528145773
3213+532300398+536469703+540650517+544839582+549013404+553171286+557314837
3200+561455391+565620526+569799777+573961655+578110200+582248496+586350657
3186+590405741+594429858+598445333+602475009+606498692+610433908+614267975
3173+618075071+621897021+625730653+629506784+633147151+636701440+640254600
3159+643790865+647253516+650609807+653892179+657219588+660602154+663895470
3146+667035956+670053229+672980168+675903372+678883730+681844675+684702473
3132+687441532+690079008+692668972+695220109+697692637+700085210+702416068
3119+704703149+706970382+709200265+711323788+713326791+715286495+717233560
3105+719126598+720964827+722753285+724443287+726020631+727551591+729062616
3092+730485391+731815487+733126907+734407491+735593919+736707905+737801740
3078+738904868+740023545+741064568+741905552+742568124+743190045+743856960
3065+744520227+745077350+745504009+745851972+746121935+746241715+746232421
3051+746187428+746071816+745788043+745347139+744807648+744156976+743370889
3038+742448777+741357896+740064109+738559685+736847924+734923008+732759921
3024+730318011+727579603+724554512+721194704+717410321+713161669+708451701
3011+703223654+697337421+690654763+683090906+674526416+664710700+653383350
2997+640325305+625153552+607195574+585769213+560856097+532968486+502512062
2984+470288677+438385505+410162742+389446987+379475226+382138673+397470336
2970+423348082+455979146+491093422+525063180+555464925+581026672+601222133
2957+615907945+625256351+629827169+630400014+627702995+622457358+615552338
2943+608021965+600845115+594654827+589585560+585453736+582031779+579386572
2930+578168223+579185403+582559326+587542210+593029058+598028619+601819994
2916+603952159+604228159+602745319+599802181+595672094+590638049+585122840
2903+579816054+575771307+573589458+572717074+572353346+572184489+572104273
2889+572030355+571954004+572101754+572945474+575047107+578926732+584886710
2876+592964304+603022100+614797563+627836630+641478161+655019759+667920326
2862+679883191+690777888+700583572+709391706+717382526+724745779+731591039
2849+737939848+743768102+749073281+753907417+758375956+762579049+766583319
2835+770515755+774491188+778483297+782398622+786174101+789771255+793169065
2822+796360928+799291950+801911837+804300674+806635919+809073052+811695458
2808+814552474+817633937+820840654+824044852+827104253+829905070+832428455
2795+834722007+836811523+838637158+840165382+841504163+842747397+843836281
2781+844709837+845436252+846111853+846730126+847194222+847477300+847671173
2768+847831517+847951211+848009668+847982046+847910039+847840985+847762376
2754+847710781+847749087+847890235+848161848+848590504+849125999+849690245
2741+850254144+850848009+851505109+852206942+852901131+853565440+854237567
2727+854984133+855866897+856946399+858243487+859697880+861231489+862755978
2714+864114390+865203360+866083257+866848585+867585423+868450553+869538395
2700+870792921+872116415+873439040+874750286+876036256+877240056+878363684
2687+879446921+880498368+881521411+882506843+883433732+884347244+885285338
2673+886170186+886932213+887602429+888221918+888765231+889220206+889671794
2660+890168636+890634469+890998501+891286183+891582812+891929733+892284905
2646+892598733+892890063+893198939+893489921+893707681+893861511+893996492
2633+894173948+894416897+894653331+894844685+895079469+895425434+895840888
2619+896277189+896716703+897124426+897481596+897818007+898134006+898398409
2606+898617558+898807957+898986368+899174247+899384971+899610461+899844897
2592+900106869+900370577+900595980+900796889+900989285+901178988+901369560
2579+901548580+901710053+901856587+901963686+902012675+902032132+902046551
2565+902044553+902016410+901973154+901889855+901734982+901543542+901340809
2552+901135732+900977819+900907462+900940382+901106460+901422024+901849204
2538+902339010+902873724+903445092+904035309+904636905+905240673+905814473
2525+906332162+906778191+907148911+907493487+907860038+908216080+908546845
2511+908909140+909330674+909804411+910294391+910765002+911262539+911853538
2498+912546163+913278571+913976061+914649751+915353321+916099193+916856182
2484+917583292+918267926+918933538+919627033+920370385+921128851+921873940
2471+922639182+923429960+924176526+924852996+925520258+926242156+927015475
2457+927770467+928430520+928950467+929354889+929739681+930154701+930530807
2444+930809021+931023654+931219177+931396372+931548117+931665118+931701339
2430+931655911+931584338+931492527+931363018+931206321+931073338+931028518
2417+931089320+931267210+931573654+931973300+932429578+932946398+933519069
2403+934114064+934694379+935242469+935730799+936225730+936744721+937228100
2390+937594825+937758471+937616975+937107885+936304426+935413845+934594924
2376+933802582+932931719+932099768+931363539+930668828+930173637+929914618
2363+930156351+931238112+932620410+933956151+935800374+938811133+941843781
2349+942068403+938798886+935449805+935371978+937601774+939606167+940528192
2336+940587344+940457661+940641892+941164445+941792099+942327768+942677903
2322+942991296+943595237+944421280+944919425+944885376+944811544+945065177
2309+945546819+946058775+946476226+946740890+946925208+947180665+947471387
2295+947713641+947946167+948206053+948458470+948657902+948766738+948767694
2282+948690648+948609781+948570433+948527177+948420425+948270070+948110073
2268+947915939+947657356+947366720+947104836+946938324+946956304+947202033
2255+947652491+948272415+949094810+950090406+950694347+951156618+951598652
2241+952038600+952404457+952691096+952963404+953269761+953582806+953854245
2228+954095110+954333542+954582310+954852881+955134917+955426768+955746241
2214+956070318+956350530+956593479+956875515+957235725+957600626+957889438
2201+958143591+958444824+958773504+959068482+959332104+959608147+959905210
2187+960188896+960433322+960684783+961034917+961465485+961864609+962219087
2174+962586854+962954187+963307797+963682339+964054363+964391642+964696262
2160+964950068+965189022+965481307+965789836+966037041+966229350+966403245
2147+966556467+966688755+966842064+967049661+967287311+967547893+967878571
2133+968327813+968922982+969632806+970389535+971147914+971902037+972674922
2120+973456232+974199237+974873622+975478605+976030951+976558021+977079966
2106+977568122+977959689+978231649+978456444+978744474+979084967+979425895
2093+979716877+979984321+980311438+980703092+981089447+981456172+981849737
2079+982296114+982762989+983214750+983672940+984148675+984584280+984939366
2066+985285853+985701567+986121451+986450913+986716445+987009426+987341146
2052+987640902+987884545+988109948+988343516+988584815+988833670+989084002
2039+989329383+989576415+989782882+989889547+989965463+990121464+990343567
2025+990557070+990722539+990824513+990919712+991087961+991275059+991397706
2012+991502720+991639786+991743498+991775636+991805863+991883690+991952050
1998+991943972+991864929+991802563+991848512+991916697+991850683+991701805
1985+991608603+991580982+991526867+991411951+991297556+991254733+991257426
1971+991200619+991102467+991095084+991189067+991272800+991315970+991364004
1958+991381984+991304939+991156581+990967399+990698826+990295446+989732242
1944+989077227+988392853+987548656+986382032+984892982+983205717+981501514
1931+979958436+978777047+978219141+978535140+979723826+981423687+983430338
1917+985616617+987558819+989111190+990491056+991806819+993000977+993987018
1904+994787438+995498130+996137163+996695416+997211801+997664084+998029854
1890+998447827+998932421+999309049+999604374+999936182+1000284753+1000609351
1877+1000936294+1001239176+1001404298+1001550050+1001968283+1002565102
1865+1003019817+1003267109+1003444304+1003705928+1004080123+1004428260
1854+1004658267+1004814355+1004944298+1005090398+1005446178+1006047079
1842+1006511262+1006733538+1006981177+1007257654+1007383776+1007475327
1830+1007790631+1008163610+1008382324+1008658367+1009038729+1009333013
1819+1009545647+1009779042+1010025812+1010254169+1010519527+1010840738
1807+1011121210+1011268178+1011345571+1011554731+1011891837+1012069206
1796+1012031161+1012147467+1012579598+1012943804+1013008863+1012990275
1784+1013055160+1013205689+1013405902+1013463404+1013271182+1013180760
1773+1013475217+1013827610+1013921680+1013810759+1013642510+1013650849
1761+1013836123+1013995598+1014163066+1014323931+1014451269+1014788809
1749+1015373119+1015884467+1016144962+1016242419+1016365414+1016475119
1738+1016314340+1016170238+1016529233+1016947119+1016949030+1016797198
1726+1016601414+1016244678+1015671746+1015056687+1014793673+1014837103
1715+1014668420+1014185041+1013556258+1012827325+1012021346+1011105141
1703+1010145072+1009426214+1008832262+1007974601+1006925934+1005651256
1691+1004023751+1002152514+1000248271+998643002+997324373+995767485+993786110
1678+991743845+989957298+988361323+986832230+985589256+984663323+983705599
1664+982762294+982119787+981586984+980721767+979612384+979131611+979608562
1651+979667367+978895177+978461656+978608016+978624606+978364807+978176059
1637+978635030+980017328+981442796+982186582+982753782+983650269+984839389
1624+986202752+987437474+988326492+989497806+991368347+993166620+994429485
1610+995491876+996531684+997486715+998375645+999234349+999999155+1000628807
1597+1001197309+1001780925+1002343521+1002830461+1003250345+1003635832
1585+1003999430+1004289717+1004395600+1004373017+1004632990+1005194109
1574+1005344899+1005047054+1004942387+1005032549+1004813139+1004095932
1562+1003161486+1002742384+1003052911+1003058557+1002352033+1001412202
1551+1000509895+999607936+998534513+997329150+996396181+996044222+995812739
1537+994908521+993510935+992255540+991089351+989685685+988131056+986619422
1524+985199861+983878191+982498499+980851363+978973438+976887309+974498211
1510+971889529+969396893+967099606+964459393+961066969+957015881+952330538
1497+946820281+940354123+932831916+924242800+915717788+909155997+905167189
1483+902840543+900986331+898977943+896633751+893654522+889456032+883796462
1470+877177343+869887921+861525251+851887122+841596148+831738348+824196336
1456+821253068+822630328+825907315+829749590+834318366+839716226+845093934
1443+849373205+851843778+852488978+851913440+850698609+849139637+847456714
1429+845850576+844476356+843512725+842998772+842926938+843540434+844901104
1416+846585590+848373353+850357508+852577663+855017227+857679068+860371570
1402+862666772+864243812+864572839+862909026+859528328+855283281+849602169
1389+841028688+829897253+819150696+812190823+811258897+816799121+827630280
1375+842572808+860701032+880362605+899646769+916214543+927854374+934400964
1362+937180414+937707918+937276655+936623638+935796291+934537769+932726901
1348+930466964+927970420+925405602+922854596+920448820+918471527+917101911
1335+916278473+915946231+916154349+916936702+918254636+920052562+922305290
1321+925000745+928072220+931395764+934950009+938817561+942984781+947326678
1308+951780190+956303973+960778940+965056212+968982307+972437184+975353266
1294+977671833+979276060+980007860+979777853+978480505+975847849+971719282
1281+966483678+961105709+956928673+955350418+957207061+962294221+969454307
1267+977250820+984621630+991047571+996426756+1000830150+1004365807+1007217351
1254+1009522195+1011302488+1012777206+1014262000+1015564386+1016194733
1242+1016420657+1017024685+1017859067+1018279733+1018421576+1018760506
1231+1019482751+1020539583+1021787508+1023073912+1024252957+1025280690
1219+1026240239+1027195009+1028047806+1028671899+1029122531+1029541894
1207+1029936762+1030151915+1030126726+1030056195+1030147312+1030259709
1196+1030215323+1030033611+1029871182+1029794397+1029633792+1029218165
1184+1028676763+1028191300+1027672221+1026882398+1025774579+1024482269
1173+1022969419+1021024699+1018570108+1015750963+1012732473+1009516983
1161+1006146014+1002953976+1000258521+998035847+996130735+994448334+992869644
1148+991169089+989199093+987027319+984658980+981931299+978770445+975294982
1134+971624170+967696685+963505144+959301616+955221517+950990280+946192714
1121+940595596+934031546+926000336+915694683+902438639+885728066+864848014
1107+838601979+805729530+765913277+720266382+671313185+623161710+581244822
1094+550845857+535260908+535106514+548649241+572500183+602657373+635131871
1080+666235623+693319210+715002982+730549147+739750195+742894980+739936163
1067+729885533+709732851+674032397+618818380+546863258+468685276+398448733
1053+347797847+322658350+324297560+351635822+401979656+470350044+549330879
1040+630210007+705322291+769954550+822655344+864443244+897317778+923656145
1026+945305955+961802156+972028071+977303718+981324839+987748174+997458659
1013+1008638302+1019293395+1028467950+1035998062+1042228306+1047647273
1001+1052340087+1055974939+1058522905+1060493336+1062249569+1063580880
989+1064195418+1064250053+1064055746+1063556298+1062339730+1059928048
978+1055851684+1049380141+1039961942+1029305286+1022255426+1023084943
966+1031093744+1041797913+1051426488+1058776277+1064116462+1067888032
955+1070358258+1071820990+1072682298+1073277293+1073673985+1073741823
943+1073506692+1073215969+1072916648+1072416940+1071661948+1070814189
932+1069977462+1068961889+1067556486+1065876430+1064163714+1062402183
920+1060350450+1057883004+1055071155+1051984219+1048546019+1044584832
908+1040015622+1034871829+1029171694+1022729945+1014937166+1004784736+991009961
895+971909594+945301177+909331629+863794048+811423237+758851952+717128850
881+700720681+720573564+773190972+840184404+901921819+948716880+980356258
868+1000581729+1013025627+1020122305+1023776440+1025756686+1027211860
856+1028323328+1028907204+1029085007+1029113411+1028828508+1027812501
845+1026224169+1024697335+1023349260+1021679193+1019483272+1017151762
833+1015006307+1012898290+1010487650+1007778296+1005118627+1002556676+999650410
820+996055427+991875873+987243254+981895687+975410420+967849907+960113762
806+953758699+950417088+950821163+954122905+958371427+961821526+963721513
793+964111951+963510703+962569222+961464269+959934916+958031541+956119481
779+954346918+952535790+950434547+948219951+946288260+944562602+942636905
766+940357511+937999161+935822958+933682801+931437283+929350807+927666581
752+926183264+924534999+922703024+920947834+919283499+917569133+915802303
739+913968070+912080938+910225858+908371560+906514482+904761290+903022689
725+901258552+899837688+897830428+895871376+894310058+892687851+890874638
712+889062380+887389186+885917074+884616077+883322377+881904031+880401084
698+878954769+877652730+876479071+875327387+874096053+872821375+871611755
685+870568995+869755893+868985788+867965090+866963415+866737317+866674082
671+863863363+858953833+858730080+862856476+864290716+862639498+861145410
658+860637450+860471633+860264124+860032640+859919374+859959504+859982782
644+859945953+860056961+860368009+860658383+860775124+860796318+860919573
631+861254855+861707398+862068651+862442498+862867073+863334990+863963513
617+864811966+865667456+866441904+867194464+867929217+868704099+869494443
604+870228241+871131938+872337040+873441732+874255268+875243741+876511557
590+877555099+878302447+879136221+880145975+881157378+882149239+883222835
577+884330654+885375325+886346426+887241958+888135492+889019211+889646430
563+890075174+890792989+891917225+893048062+894068673+895171194+896277449
550+897253066+898272983+899395047+900360849+901051564+901768337+902949987
536+904365292+905311811+905799533+906318004+906951564+907524323+907922665
523+908257078+908700935+909107182+909252152+909394864+909839590+910435366
509+910905629+911150228+911275220+911404903+911578624+911858489+912075292
496+911784918+910952447+910143341+909640158+909104663+908250476+907351731
482+907021400+907208063+907008892+905975600+904585571+903345029+902225136
469+900752503+898944067+897705783+897181320+896306982+894624407+892564509
455+890332976+887862229+885157566+882120835+878605677+874500562+869948463
442+865365355+860835231+856708054+853672540+851542980+850160769+850644148
428+853735600+858329132+863066418+867738384+872894511+878567719+883191739
415+885801029+887009779+887651158+888281244+888779389+889163225+890144836
401+891557275+892829955
##END=
