##TITLE=20
##JCAMP-DX=4.24
##DATA TYPE=INFRARED SPECTRUM
##DATE=16/11/2015
##SAMPLING PROCEDURE=Instrument type and / or accessory
##ORIGIN=Default
##XUNITS=1/CM
##YUNITS=TRANSMITTANCE
##RESOLUTION=4
##FIRSTX=3996.3359
##LASTX=399.24785
##DELTAX=-1.9287336
##MAXY=1.4657056
##MINY=0.462713
##XFACTOR=1
##YFACTOR=1.3650447e-009
##NPOINTS=1866
##FIRSTY=0.86834079
##XYDATA=(X++(Y..Y))
3996+636126247+636290558+636454869+636601584+636742840+636882044+637055568
3983+637269483+637527368+637791148+637983842+638179024+638433679+638695712
3969+638968924+639265016+639480983+639544472+639676777+639966625+640201062
3956+640357426+640485627+640605793+640766960+641042181+641339452+641449051
3942+641680257+642030887+642104637+642027786+641927226+642107737+642739351
3929+643178970+643138536+643141243+643397862+643429039+643419782+643866038
3915+644472807+644575725+644379014+644327839+644167807+643999784+644522061
3902+645476315+646095353+646445459+646273900+645603817+645381431+646005535
3888+646209406+645963835+646555102+646903941+646776658+647074017+646952977
3875+646522135+646547810+646763471+647517216+647963996+647571797+647679955
3861+648013032+647726590+646641864+645699705+647164316+650128862+650632799
3848+649146531+647962599+647764054+648066216+648271310+648806162+649786004
3834+650073844+649743256+649698806+649650949+649420005+649127668+648740097
3821+649396993+650378800+650216759+650519620+650914875+650130652+649148016
3807+649159761+650011359+650037122+650073014+650998930+651022640+650574114
3794+650443468+650098646+649743082+649627937+649671777+649814780+649829364
3780+649790284+650137901+650349414+650003369+649578421+649564492+650126024
3767+650442158+650354479+650127377+649729982+649851153+650211127+649813906
3753+649039639+649426598+650837151+651088618+650043671+650445389+651196689
3740+649841721+648214022+648216467+649299489+649979790+649908528+649114743
3726+648454703+648500377+648611286+648566485+648230003+647434515+646317477
3713+645762932+646430089+647073318+646615491+645468150+644455996+644090607
3699+643812549+642903051+641722481+640555796+639528534+639153889+639578793
3686+639650752+638619473+637408076+636507660+635693265+635574278+636674329
3672+636713148+635673747+635589953+635190332+633823836+632510481+631514527
3659+630568569+629931235+629765351+628809525+627290464+627111394+627553022
3645+626846959+625043465+623246258+621916397+620808311+619665250+618381019
3632+616811482+615402937+615313031+614962576+612904820+610395918+608623949
3618+607831255+606903680+605026872+603050858+601328624+599688742+598198631
3605+596367322+594108271+591989079+590123187+588199308+586231808+584323910
3591+582137867+579648876+577629371+576027303+573946973+571469509+569117059
3578+566871195+564578172+562249999+559819519+557184600+554742287+552904821
3564+550949940+548328339+545610063+543085835+540534403+537843505+535176885
3551+532616720+529818581+526849363+524179512+521706153+519098961+516337195
3537+513548531+510873266+508208349+505420864+502623293+499845720+496999637
3524+494202066+491599895+488976984+486178583+483313724+480469693+477717620
3510+475080780+472512930+469777188+466838448+464112357+461603673+458983469
3497+456311521+453752492+451251973+448680849+445987375+443284294+440644834
3483+437934200+435162740+432495421+429948531+427430983+424801740+421923738
3470+418934652+416188649+413813449+411527981+409101343+406611086+404154669
3456+401713492+399273274+396867946+394462835+392025413+389701868+387506917
3443+385277122+382987636+380609947+378245314+376142671+374283329+372472149
3429+370684942+368980785+367287501+365524571+363773191+362133266+360524845
3416+358850358+357204713+355697463+354302717+353028114+351823507+350424634
3402+348811890+347481658+346686104+345945415+344894945+343775637+343033725
3389+342594281+342134751+341599658+341050069+340513601+340095422+339872075
3375+339737893+339510508+339172912+338972773+339182409+339737653+340299184
3362+340709046+341145259+341750652+342429839+343019447+343546963+344301232
3348+345388599+346524282+347516634+348449077+349408681+350506200+351876319
3335+353427561+354952692+356385383+357762838+359181230+360780547+362576531
3321+364437226+366285084+368108490+369909015+371727880+373550805+375320023
3308+377104479+379111627+381442507+383863774+386107891+388226778+390366755
3294+392583233+394952188+397490040+400049332+402534349+404999630+407497703
3281+410025294+412547776+415080432+417676664+420325120+423063394+425974756
3267+428992923+432014233+435039998+438087420+441133096+444186369+447347102
3254+450648916+453944618+457133558+460352715+463770591+467345704+470922128
3240+474480867+478051527+481585071+485158307+488953797+492936436+496889470
3227+500757838+504618171+508504746+512432586+516413303+520389741+524347578
3213+528363097+532395514+536402430+540409390+544404211+548407984+552441230
3200+556497837+560585534+564673711+568690845+572640517+576569972+580507854
3186+584462896+588391128+592251942+596071535+599889906+603685921+607409757
3173+611085082+614761149+618440884+622070317+625597879+629055272+632476641
3159+635862379+639208339+642470025+645635081+648795814+651994230+655157102
3146+658210987+661113485+663883242+666648108+669519560+672418740+675199457
3132+677851318+680410478+682912394+685372785+687745627+690044457+692291369
3119+694455536+696587347+698742258+700831321+702778648+704659604+706516239
3105+708311612+710044150+711739181+713395001+714963752+716467618+717934630
3092+719294794+720551777+721785444+723028280+724217103+725287157+726286386
3078+727334476+728464264+729537898+730407268+731089227+731690843+732297743
3065+732923942+733480671+733888502+734201492+734496929+734738047+734850179
3051+734844415+734754640+734543564+734209177+733793923+733300946+732703696
3038+731955104+731023381+729940533+728710884+727330110+725798517+724060214
3024+722056036+719757642+717177959+714309520+711082896+707443115+703382971
3011+698860502+693754407+687906969+681183872+673454823+664524593+654134949
2997+641990060+627678821+610669523+590472681+566830805+539783540+509737933
2984+477777441+446098939+418066549+397532788+387812616+390788951+406233515
2970+431825994+463923200+498394951+531622600+561310154+586275866+605900303
2957+620022386+628961305+633312738+633718604+630853395+625538364+618746058
2943+611432874+604393425+598199155+593083541+588901746+585378376+582620627
2930+581367966+582404093+585757563+590651096+596024028+600945551+604712048
2916+606865474+607252607+605988332+603283548+599356801+594539768+589357609
2903+584504858+580696792+578277621+577032209+576520412+576349856+576234319
2889+576078610+575969709+576093412+576760264+578509875+581962771+587482853
2876+595085537+604592319+615761601+628183937+641193218+654051811+666200193
2862+677378295+687518438+696609617+704748113+712147929+718980362+725307766
2849+731168785+736564029+741463851+745910343+750016160+753889418+757621638
2835+761316481+765039794+768763281+772436378+776030792+779480063+782699569
2822+785665032+788381605+790858282+793149645+795384855+797713072+800212280
2808+802931822+805883662+808955144+812002871+814928337+817640980+820072770
2795+822242308+824223737+825995313+827500532+828809346+829976511+830969015
2781+831817339+832586366+833275399+833832826+834224938+834509808+834733897
2768+834877642+834968378+835027588+835029247+834983661+834906636+834817646
2754+834783937+834839391+834972395+835229058+835643438+836159122+836731395
2741+837333360+837928688+838530392+839161962+839799995+840430779+841081212
2727+841789546+842629572+843688011+844950191+846327472+847773568+849222023
2714+850520794+851573033+852418561+853134317+853835228+854685996+855748627
2700+856961727+858240762+859509753+860753943+861974292+863136741+864244608
2687+865329508+866395108+867410406+868352958+869233157+870074319+870914433
2673+871760922+872560253+873275835+873922339+874501336+874991170+875419261
2660+875829887+876219990+876585728+876942645+877296593+877628010+877943970
2646+878273728+878594491+878891326+879165454+879382469+879548396+879714585
2633+879910379+880122940+880334453+880552778+880809441+881159546+881600039
2619+882058259+882510279+882929812+883279568+883612907+883951834+884231639
2606+884434070+884610477+884814479+885036996+885248422+885458974+885704983
2592+885988893+886233678+886424931+886638365+886883937+887122610+887336568
2579+887519525+887662222+887781427+887913557+888044640+888122713+888137297
2565+888122363+888104286+888087431+888028396+887906396+887774877+887638555
2552+887485029+887369579+887328971+887359885+887506862+887835746+888306717
2538+888811135+889318696+889866168+890463068+891085992+891685425+892214645
2525+892703605+893180951+893597514+893946223+894300521+894686781+895065531
2511+895433801+895842855+896312079+896790996+897269215+897794854+898374375
2498+899018085+899728601+900442523+901125269+901802513+902495126+903206342
2484+903925678+904630344+905324006+906038365+906776477+907531532+908311738
2471+909097096+909844640+910543979+911212402+911882659+912593962+913328843
2457+914041194+914691889+915227833+915666928+916103665+916538481+916889286
2444+917169440+917436408+917665474+917854281+918042914+918193820+918246655
2430+918226307+918194432+918154085+918061690+917919866+917808870+917790967
2417+917873407+918071384+918394068+918815610+919298108+919820603+920368249
2403+920926898+921488343+922023675+922497004+922965791+923441739+923828523
2390+923998642+923881183+923526274+923083948+922686510+922356053+922127511
2376+922050835+922002017+921889012+921807097+921767449+921619687+921601086
2363+921987259+923055129+925066600+927707632+929753249+929442093+926506060
2349+923668273+923765384+926315680+928475787+928987103+928896804+928984920
2336+929280619+929591252+930022400+930601485+930989754+931074464+931287200
2322+931944358+932601777+932688845+932409564+932351490+932672078+933081918
2309+933370456+933575768+933774881+934031107+934322963+934587311+934834630
2295+935117928+935406291+935674220+935907740+936057249+936077247+936044149
2282+936079955+936198636+936311117+936323955+936230250+936095499+935962321
2268+935803468+935589248+935329790+935066840+934880827+934881788+935127360
2255+935586715+936205797+937012464+937992568+938579163+939035550+939458227
2241+939885357+940286988+940623819+940902140+941181421+941484718+941763475
2228+942005554+942265884+942568483+942880076+943171671+943446061+943726740
2214+944031347+944341630+944633923+944947787+945304792+945657256+945978368
2201+946296336+946627055+946938211+947215135+947501752+947827667+948150002
2187+948425702+948686470+948998762+949393755+949825776+950214482+950552099
2174+950914431+951321302+951708173+952065003+952410219+952737968+953061002
2160+953363076+953642794+953947401+954262749+954537751+954767429+954961738
2147+955141026+955312193+955479255+955696008+955981140+956286359+956633408
2133+957113111+957738306+958435723+959158117+959901469+960660192+961437516
2120+962220865+962955485+963608626+964224564+964826791+965372167+965859118
2106+966319347+966725170+967029078+967264257+967557337+967920891+968279905
2093+968585472+968891913+969258349+969646444+970004846+970347965+970721475
2079+971155243+971626563+972111157+972600467+973077463+973519964+973870506
2066+974162450+974589930+975075921+975439301+975724346+976005723+976316443
2052+976631966+976917186+977167386+977418111+977694772+977958770+978218839
2039+978468777+978669199+978861762+979018083+979135105+979302866+979529050
2025+979738642+979916620+980071456+980164638+980275023+980524437+980735251
2012+980845374+980999774+981125442+981163168+981204301+981299840+981382803
1998+981419045+981442449+981369267+981288836+981472840+981528120+981343330
1985+981211462+981148933+981122909+981086405+981048067+981051910+981091994
1971+981107626+981006149+980944145+981142908+981274776+981229015+981243512
1958+981306215+981313900+981272156+981168495+980969034+980659536+980200355
1944+979411242+978641778+978074395+977017353+975513968+973928318+972334110
1931+970860243+969746087+969285684+969520427+970662178+972538113+974195897
1917+976205709+978471310+979980808+981083873+982220996+983441345+984498386
1904+985296844+985987362+986630198+987153479+987567423+988146333+988584904
1890+988699918+989275684+989916598+990126889+990380146+990704839+991008834
1877+991354486+991817073+992248745+992144385+992190845+993167194+993904783
1863+993920065+993908014+994161183+994568578+994941738+995204776+995456199
1850+995814077+996280943+996166978+996340677+997581985+998066579+997838822
1836+998059243+998526633+998556238+998524013+999317842+999692313+999681921
1823+1000270612+1000575131+1000487365+1000664907+1001121817+1001333417
1811+1001444239+1001926213+1002462332+1002733404+1002661531+1002610356
1800+1003164028+1003949473+1004086494+1003504789+1003631767+1004805831
1788+1005180302+1004690031+1004657195+1004920844+1005096028+1005513728
1776+1005691531+1005163447+1004929752+1005814230+1006259962+1006290091
1765+1006159270+1005556432+1005720088+1006252714+1006394013+1006955196
1753+1007072130+1006770755+1007528866+1008585646+1009018628+1009012951
1742+1008854797+1009200187+1009966682+1008978893+1008084721+1009547061
1730+1010271027+1009777787+1009271972+1008948502+1009036443+1008533073
1719+1007322680+1007404246+1008177291+1008103759+1007368179+1006393489
1707+1005472508+1005301690+1004846876+1002996966+1002731483+1002405829
1695+1000827864+1000270961+998949135+997132760+995445021+992567412+990710340
1682+990890153+989789184+987145968+984467821+983386065+982516520+980488544
1668+979635505+979554900+978121379+976727331+976815272+977172626+976387705
1655+973798983+973178678+976287188+976307972+973691567+973390017+974330473
1641+974379640+974053026+973401719+973820029+976317841+977876506+977767954
1628+978202072+979345745+980361829+982101092+983663163+983720538+984802993
1614+987659818+989329130+989824553+990576987+991628003+992578503+993371284
1601+994134810+994819302+995372799+995922890+996531929+997069620+997509152
1587+997918205+998291628+998709589+999306664+999622798+998991578+999254353
1574+1001060249+1001017894+999690828+999959281+1000597051+1000742980+999860249
1560+997208824+996986831+999332077+999150256+997595172+996349235+995631558
1547+995026972+994101188+993025283+991561545+991523469+992495626+990851116
1533+988346406+987688025+986814551+985065944+983839220+982480017+980604693
1520+979782220+978575756+976544462+974797251+973017030+970677548+966835118
1506+963752109+963059495+960988727+956366615+950864566+945401379+940174332
1493+933356920+924244738+915682822+909820275+906336946+904010738+902182223
1479+900604258+898595233+895520957+890857537+885577656+880179268+873037512
1466+864035540+854901614+846004351+836195888+827405429+824666850+827582535
1452+831169088+834256551+838035755+843181847+848603727+852909355+855516067
1439+855657978+854394139+853927972+853047249+850948798+849187790+848193276
1425+847500575+847435078+847469660+847669820+849788183+852680114+854867642
1412+857035958+859671051+862482639+865106206+867814919+870122875+871137037
1398+871386888+870328624+867446386+863571032+857533214+848093196+837038185
1385+827146147+820534047+819428886+824679512+835010995+849021251+866355985
1371+885478711+903915810+919790910+930908886+936675807+939116679+939798377
1358+939271864+938335338+937388943+936127637+934296939+932083649+929732377
1344+927369753+924885390+922294485+920338906+919216629+918448125+917982307
1331+918067978+918801200+920089754+921870935+924106145+926683689+929588370
1317+932870754+936373471+940050149+944087587+948356799+952687753+957093549
1304+961469129+965651972+969480691+972856518+975730547+978024530+979615245
1290+980370300+980215726+979062621+976626465+972744736+967797843+962696552
1277+958770110+957404269+959381507+964534498+971770395+979652011+987139855
1263+993718333+999237499+1003792891+1007490965+1010462279+1012895466+1014841614
1250+1016355217+1017621414+1018690070+1019409058+1019820295+1020234675
1238+1020736211+1021192685+1021675794+1022364740+1023292009+1024345995
1227+1025402687+1026395192+1027281504+1028026865+1028657474+1029241188
1215+1029730235+1030031960+1030195791+1030340672+1030488958+1030518825
1204+1030363290+1030195966+1030197363+1030196228+1030041654+1029784293
1192+1029566142+1029427724+1029196387+1028712841+1028104850+1027560697
1180+1027018204+1026249788+1025176415+1023910131+1022433731+1020563560
1169+1018231501+1015543223+1012637668+1009569156+1006387202+1003343578
1157+1000740447+998627586+996856972+995271933+993748724+992127967+990292816
1144+988266499+986050240+983526317+980618928+977404662+973970062+970259500
1130+966288694+962321557+958501570+954558448+950100342+944933290+938898267
1117+931490679+921886655+909387992+893516909+873557911+848257813+816322473
1103+777398204+732543577+684214091+636483994+594884503+564880246+549902461
1090+550518574+564859244+589546067+620611164+654013254+686044919+713982862
1076+736256541+752041342+761288361+764797890+762916628+753845841+733393865
1063+696508270+640404017+567915268+488813764+417143340+365189224+339328883
1049+340899316+368746741+419857031+488838391+568075649+648823716+723202329
1036+786360266+837290569+877703551+909981224+935953763+956551143+971650055
1022+981028855+985969547+989723337+995753907+1004902767+1015336862+1025130130
1009+1033488916+1040318119+1045876233+1050582881+1054596303+1057691451
997+1059877495+1061657366+1063340739+1064660294+1065310116+1065458839
986+1065428623+1065124366+1064091602+1061866609+1057950909+1051607087
974+1042468182+1032282366+1025537874+1026252582+1033905044+1044254691
962+1053555680+1060544870+1065515342+1068990113+1071221044+1072403055
951+1072953234+1073340542+1073682963+1073741823+1073454420+1073091914
939+1072726962+1072181237+1071482510+1070799939+1070097719+1069164948
928+1067893598+1066401915+1064872244+1063270962+1061397822+1059171170
916+1056630567+1053804483+1050647068+1047059467+1042985786+1038402623
905+1033247536+1027275565+1019902472+1010194526+996917579+978472969+952718930
891+917591506+872794996+821167538+769270930+728015388+711836641+731464397
878+783149143+848763628+909186173+954931871+985760653+1005370419+1017342045
864+1024092738+1027515460+1029305113+1030545373+1031380160+1031657258
853+1031620579+1031581456+1031287416+1030228278+1028558005+1026917425
841+1025495082+1023901049+1021856392+1019597603+1017454002+1015415459
829+1013199025+1010690647+1008148647+1005660354+1002818376+999287189+995190367
816+990676893+985501371+979219378+971842879+964321937+958273814+955221632
802+955747358+958987911+963079581+966380915+968208818+968609575+968063501
789+967185049+966120672+964619208+962752268+960848475+959050439+957251267
775+955214471+953055674+951166553+949502481+947621132+945395179+943195075
762+941199673+939114932+936804531+934614209+932894595+931454349+929832545
748+928057651+926445191+924937090+923352750+921652086+919840863+918004838
735+916195798+914386933+912628632+910983772+909285467+907484374+906021423
721+904410272+902512942+900517627+898707714+897077526+895460524+893893825
708+892466417+891128173+889748709+888318244+886915463+885588572+884338793
694+883133029+881912505+880698182+879573110+878560782+877630281+876785800
681+875953197+874970036+873725410+872033305+870363207+870599609+872456331
667+871931041+869144255+867866618+868213056+868285452+867894214+867586289
654+867477476+867584280+867780249+867722174+867385779+867163612+867302117
640+867630041+867859806+867923208+867979448+868186682+868604207+869206521
627+869713297+870243914+870669647+870887798+871291175+872105788+873029477
613+873857191+874577051+875230541+875916431+876628519+877343752+878263773
600+879435566+880425363+881094922+881958091+883219660+884447694+885283616
586+886094213+887163917+888107517+888880300+889804687+890880767+892108539
573+893191343+893968317+894853494+895930621+896745410+897251400+897853976
559+898688501+899621884+900634387+901721645+902766024+903825074+905019224
546+906239922+907196010+907730382+908221264+909146001+910354735+911303662
532+912002127+912856126+913615111+913961200+914266156+914567007+914782014
519+915043305+915375945+915953021+916669127+917240177+917486797+917577096
505+917712458+917569935+917557185+918002131+918392147+918295385+917477540
492+916532019+916059913+915581869+914586220+913589873+913511800+913953864
478+913723575+912586888+910966306+909643083+908825849+907357221+905466441
465+904317615+903981744+903477152+901591785+899100437+896655111+893881075
451+891638092+889336948+885798863+881435334+877281223+873691700+869562740
438+864631218+860908954+859231520+858809280+860037139+863149840+867247711
424+872048937+877384535+881700555+885588659+889455892+891757298+893168026
411+894481206+895633612+896490668+897411825+899174667+900698400+900656744
##END=
