##TITLE=павел 7-многокр
##JCAMP-DX=4.24
##DATA TYPE=INFRARED SPECTRUM
##DATE=3/2/2015
##SAMPLING PROCEDURE=Instrument type and / or accessory
##ORIGIN=Default
##XUNITS=1/CM
##YUNITS=TRANSMITTANCE
##RESOLUTION=4
##FIRSTX=3996.3347
##LASTX=399.24773
##DELTAX=-1.928733
##MAXY=0.27882427
##MINY=0.052551102
##XFACTOR=1
##YFACTOR=2.5967534e-010
##NPOINTS=1866
##FIRSTY=0.27647996
##XYDATA=(X++(Y..Y))
3996+1064713972+1065539725+1066515709+1065461913+1060972203+1058647585
3985+1062401634+1067296473+1067456230+1063448544+1061218609+1060131530
3973+1055055128+1051910840+1057845015+1066728373+1071001057+1070738813
3962+1066847846+1061282764+1060836777+1067850801+1073741823+1071974172
3950+1066365249+1062181509+1059364308+1057518615+1058793454+1059932753
3938+1057810814+1056914249+1057635678+1057218957+1057726001+1059356389
3927+1058801718+1056347182+1055064080+1054433776+1055210524+1061388580
3915+1068892317+1069496109+1064577169+1059899011+1056884869+1056107318
3904+1056418223+1057421407+1063889940+1070237164+1067108139+1058888941
3892+1055261251+1057681815+1060062210+1061685713+1062555881+1062723213
3881+1063717559+1059008644+1050958842+1049055765+1050164880+1053049105
3869+1058193449+1057427375+1054414495+1055008647+1052465512+1044151974
3857+1034003876+1029070819+1040854241+1055581108+1056490757+1054590090
3846+1055405629+1054929687+1049720155+1042751350+1040765755+1044084720
3834+1049068849+1053704199+1053235373+1046074332+1039429860+1036548963
3823+1036367171+1042525258+1047648255+1045675744+1043687165+1042550277
3811+1039260119+1035174162+1034288156+1034871749+1033887043+1034834909
3800+1035440882+1037032594+1041840554+1041442425+1035980060+1032120999
3788+1029833909+1028691053+1028898438+1028426858+1030254762+1036680716
3776+1041600919+1042416229+1040592686+1037594037+1034507362+1030697880
3765+1028260675+1028193536+1028188256+1027965607+1027622911+1025565586
3753+1023453059+1027607188+1033047747+1028046633+1021788010+1025550552
3742+1026871872+1021052694+1021002655+1030718768+1035549911+1027401295
3730+1013701139+1003475228+1003441142+1009959484+1012819035+1010697211
3719+1006275444+1000535800+994263749+991059781+992693154+992175093+986785375
3705+980267837+977581471+979656929+978698389+971269137+959664810+945717387
3692+933318237+923906029+913635416+903623547+895904793+887274956+876902258
3678+868659131+868115247+873028162+874848377+875934365+875338434+869021567
3665+861511001+854947670+847699291+841134640+837852745+833103488+821426571
3651+810280798+808690176+809455217+804312652+796661840+791166077+787772628
3638+782519656+774675691+764951028+752558362+744071583+743891857+739335123
3624+727708015+717162075+711008522+705907215+697676942+688489736+680838522
3611+673792880+667550956+660353763+650195910+640172622+634421272+633323175
3597+631417229+622818092+610642854+602333678+598318245+594040397+585693921
3584+575097082+566807645+561264025+556533705+550134262+539344326+527814196
3570+521431280+519406205+517805598+513756424+506528646+499806878+496595106
3557+493533622+488123821+482522931+476484863+467997883+459507259+454547662
3543+451509304+446547842+440240356+435738367+433011373+430554944+426033645
3530+417115081+407959953+403452540+400603204+396280137+392956323+391315806
3516+388536651+386003414+385695951+383627035+377279984+370345810+366334824
3503+363956638+360509162+356483372+353729724+352463952+350325716+345349076
3489+339495583+335163650+331388340+326474134+321464527+318927646+319038655
3476+317864094+312882031+308778142+308353186+308532252+308769305+308771399
3462+308928172+310364661+308150248+300340024+293148369+291251518+291917228
3449+289798015+286057193+283588570+281564758+279998266+278576955+277213946
3435+277519744+278697747+278661768+276961371+272655920+266395605+261503807
3422+258873132+258514942+261533991+264723297+262896569+258229314+255559044
3408+253315595+250506141+250305958+253016339+254195634+251414757+248977580
3395+249450423+249758861+248582779+248207202+250541978+253266389+251926419
3381+246866745+242691097+241247435+241967803+243683149+244231336+243754677
3368+243097288+243118406+244434848+245758836+248272132+251603406+250910066
3354+245764746+241325621+240878715+242919657+245300741+247542583+248769707
3341+249028451+249845625+250040328+248939678+250990805+257636912+263236167
3327+263973376+263122547+264153045+266249161+269145179+271594291+270690267
3314+268905286+269933403+270395256+267069118+265945343+271973512+278490334
3300+279736308+280353787+283674818+286366033+286910375+287760717+289957858
3287+291970337+292240701+291051105+291237775+294252864+297950620+299830083
3273+299608409+300756717+304227232+305773152+305377462+305511913+305301859
3260+306353446+311934166+318768434+322104987+323458040+324055865+323484753
3246+324214101+326206438+327518290+329904968+333705957+336340161+337751746
3233+339406236+342150387+346261019+350306578+352805787+354832325+358278223
3219+362698756+366463393+369602058+373030196+376617860+379371279+380633580
3206+381275045+383558347+387962956+392339017+395471140+399109045+405567134
3192+411988526+413907268+414103406+416789657+420885169+424053530+426544590
3179+430701388+436823150+443280178+448715946+451247232+451292192+451615320
3165+453725897+458532250+465871698+473583107+480334083+486096164+490614393
3152+494466741+497886529+499768202+500630910+502815569+507387567+512361940
3138+516055220+520371344+526465045+531765588+534504116+536832751+540215068
3125+543967453+548966100+554767259+559411388+562801050+565036379+567053650
3111+570291646+574304783+577530959+580146456+584669448+590399681+594202219
3098+596774621+599737691+602692269+604913884+606048362+607657059+612172362
3084+618153305+621946432+624592974+628681054+632165055+633921401+635691864
3071+637607279+640243606+643569744+645420831+646842056+649813906+652304249
3057+653012078+653883164+655669408+658860866+664061618+667208260+666065519
3044+665189784+666244900+666086406+664254313+663848036+665826113+667322683
3030+667313215+667050913+665628311+663159602+661645875+659322806+654961636
3017+651530715+648467452+643031885+637648882+634659587+629745466+618441027
3003+602991239+588122921+575256723+561158725+541558251+516231733+487802701
2990+457393469+423631845+386372678+348237002+311316830+278759292+255694700
2976+242698414+236809902+238492768+249560026+270217223+299894754+334777026
2963+369060211+399922403+426738806+449480987+467382986+478040653+482710691
2949+484823219+482816908+475558975+466754433+458239163+449429485+442588129
2936+439737531+438603053+437420917+437013234+437715985+440166245+444727025
2922+449161617+451833723+454192800+457675453+460684029+460938095+459355479
2909+457367961+455138658+453359989+451302521+447291392+441746366+437102150
2895+434527482+432661992+430964292+429602287+429288024+431758111+436027466
2882+439310624+441805471+446531143+454218393+462770619+471690761+481340767
2868+491687356+502605085+512409684+520301680+528383501+537827672+547961366
2855+558091159+566466499+572698266+579488149+587801973+596260232+604294253
2841+611078168+616209313+621677761+627795507+632480035+635751314+639060122
2828+643308475+647942103+651518205+654504000+658257762+663272304+668985437
2814+673388382+675424073+676627469+678427312+680652886+683654518+687960887
2801+692282691+695485110+698549004+702950055+707755318+710684533+712144377
2787+713121623+713382662+714854786+718665301+722241575+724110853+725138597
2774+726363053+728118768+729765454+731579701+733188628+732353980+730084680
2760+728767836+728407466+729721670+731762755+731691370+731321301+733459365
2747+735375468+733918034+731229430+731081552+733322045+734817582+734260959
2733+732829061+731769641+731570003+731821114+731821516+731574020+732497210
2720+735384362+738394660+740714458+742702176+743187872+742538689+742961608
2706+744768108+747115680+750117656+752828927+754230469+756105830+758807402
2693+760804129+762466768+764589453+768198780+772728142+774104779+771716809
2679+770053884+770326227+770235733+769355121+767711649+765466220+764425335
2666+764559785+763689215+761543979+760019807+760641504+762915968+764766826
2652+765636822+767572435+770943103+773944678+776873663+780164912+782101558
2639+783045579+785287220+787535690+787314648+786482697+786793373+786856840
2625+786127836+784880886+783243037+781950811+781964239+783272991+783999413
2612+783242693+782360072+782267856+783332097+785119832+785579419+783654364
2598+780992616+780504050+783058720+785420064+784868548+783129245+782057028
2585+780783394+778906542+778025241+779426325+782378951+784466402+784395878
2571+783819974+783563181+782702711+782163418+783433035+785577066+786988995
2557+787904955+788350311+787246189+785041101+782886683+781381104+780900974
2544+780598619+779419037+777780213+776134502+774737493+774753790+775486180
2530+774727107+773421395+773451579+774759299+776864252+778231249+777626883
2517+776400247+776422971+777786008+778368167+776992792+775794503+775973713
2503+776448392+777119610+778068222+778586570+779075078+780017607+780294197
2490+780483105+782904530+786099890+787060610+786065058+784095646+781923783
2476+780900285+781212740+782483964+783880801+783785429+783294166+785381445
2463+788789699+789873737+789241998+789376907+789720063+789229833+788700238
2449+788956858+789881770+790373779+789670598+788856149+788867798+788908311
2436+788136671+786591038+784385204+781781069+779662516+778386587+777219802
2422+775565542+773623673+772497803+772667544+772293344+770699509+770694115
2409+772935469+773884942+772296558+770716150+770789429+772355721+774081596
2395+774484144+774490571+775080075+774910161+773593088+772093763+770176742
2382+767645600+766661984+768169744+767841451+763657999+761928393+767725765
2368+777089541+782148383+781546255+780708222+782392838+787105713+791920158
2355+788584093+779634685+774307229+772092616+770355665+769363442+769233180
2341+770162569+770253751+767563541+766307983+769624653+773503741+771607550
2328+767363157+769776318+775965622+777375944+775139352+773849536+772968465
2314+771389262+770167389+770471638+770257481+767180389+763694208+762279008
2301+761432138+759749587+758444048+758174000+757193138+754880456+752835354
2287+752156618+752097111+751576525+751515010+752094701+751455732+750141528
2274+749886228+749809907+748822619+747746729+747000051+745708112+743790861
2260+742262730+741590709+741147591+740722549+740651393+740171320+739092791
2247+738567615+738201850+736877317+735858525+736687893+737777899+737360546
2233+736276853+735241993+733921649+732322362+731260417+731450243+731297544
2220+729313786+727480373+727029968+726638151+726035678+725165682+723696944
2206+722307739+721462360+721425004+721725637+721228923+720140696+719245107
2193+718947572+719173148+718946654+717452896+715495534+714556964+714825406
2179+715687426+716210135+715642150+714885487+715017814+715709863+716100417
2166+715622639+714351875+712864371+711994146+712013484+711805353+710399966
2152+708934269+708974380+709239838+707851551+706247616+705639577+704662905
2139+703184239+702110989+701378772+700835863+700614075+701108781+701857984
2125+701194971+699073836+697437192+697412747+698464190+699643083+700342707
2112+699830212+698330716+697870670+698834201+699122727+698019867+696757825
2098+696371403+696478481+695874344+694704231+693798427+692570643+691156075
2085+690949780+691247717+690900545+690419381+689983379+689829533+690189387
2071+690347652+689998586+689534867+689363404+689607056+690155416+690350808
2058+689349517+687973454+687626855+687892715+687672877+686940660+686269786
2044+686117661+686347655+686428796+686660914+686883219+686121621+684992307
2031+684444177+684287175+684214183+684097349+684238858+684928496+685675404
2017+685600461+684390007+682917308+682411011+682740337+682649613+682017989
2004+681966114+682542363+682236908+680601929+679058706+678409121+678422549
1990+678682326+678390242+676938202+674997137+673640297+672327986+671064567
1977+671758968+673713805+673848485+672207710+670973499+670320873+669522090
1963+668921568+668958753+669064741+668274451+667063308+666705979+667012638
1950+667405947+668298667+668900336+667695965+665705952+663913396+661193403
1936+658032186+655964188+654051356+651068144+648941098+648794655+648642702
1923+648208766+648281356+648631972+649771614+651289875+651983531+651873239
1909+651526813+651065045+650580324+650586866+650952917+651619889+652941726
1896+654163599+653880410+651797492+649795256+649825211+651268184+652303044
1882+652375864+652525062+652749203+652062778+650854848+649716640+648956075
1869+649249135+650146044+650280436+649548104+648774054+648244344+647539212
1855+646986261+647098217+646765506+645369989+644359861+645690764+648726368
1842+648997793+645970855+643549659+642921364+641620301+639049391+638095270
1828+639158650+639589430+638635596+637106088+636609948+636858535+635996056
1815+634891819+634650635+634147436+632874089+631218394+629025759+626664989
1801+625452583+625358703+624598138+622912489+622062003+622263191+621032595
1788+618381233+616689099+615912983+614589311+613379316+612161517+608779429
1774+604198709+602067704+601769882+600771920+599467471+597861355+596598625
1761+596319108+595799383+594706164+592810719+590533500+589747456+590270625
1747+590315384+589552007+588395953+587854135+587902509+586489892+584140713
1734+583228712+582347584+580161662+577795269+575810362+574377202+572043058
1720+568106987+565255585+565086762+564549133+561976732+558380775+554290514
1707+550226019+546556668+542391062+538655663+536891684+535393737+532680745
1693+527659432+521560680+516416164+511959393+508272081+505651821+501706110
1680+496071249+489940420+484043430+478811432+474057843+470353259+468083614
1666+465424592+462243635+460069419+458027761+455023374+451718095+449199892
1653+449184398+448365044+445381831+444642556+445787678+444741686+442578661
1639+440922707+440563800+442925546+445950476+447737093+450242412+453606539
1626+456347476+459135526+462194600+464218355+466918120+472290708+477350067
1612+480804659+483821641+486076940+487917067+490231356+492684571+494775293
1599+496825560+498987380+501035523+502912835+504490373+505678562+506599171
1585+507232000+507605798+507855188+507750634+508086444+509799753+510535987
1572+509815878+510209760+511571421+511782364+510639336+508497944+507607290
1558+510604102+512016145+510417145+509304244+508705272+507290301+505214672
1545+503509798+502500245+502576795+504222792+504796803+503679195+502302156
1531+500833360+499341668+498172759+496522803+494458535+493851012+494220277
1518+493724596+492562459+490251039+486298614+481783311+478792036+477973657
1504+475585170+471407485+467595479+464191213+460759947+456376254+450121247
1491+442528479+435169177+429465885+425085406+420737291+415555934+409419194
1477+402141349+393430027+383196771+371976801+362382572+356686310+355226580
1464+356132011+356665250+356607235+357659482+360201757+362471057+365020620
1450+368588574+372840542+377162548+380500937+381962130+380668010+377501169
1437+375128836+373686494+371235000+367865997+364211049+360666222+357897969
1423+355815424+353382265+350419596+347811645+345409788+343065889+342238299
1410+343531071+345230722+346120228+346547910+346875256+347576515+348421463
1396+348080259+346109756+342192794+335747444+326157145+312887885+298114938
1383+286112626+280677317+283429961+292075349+301812981+308847777+313450332
1369+318697824+326280090+336034019+347900446+360227293+369667619+375228455
1356+377845415+378214364+376209001+371837703+366098575+359605195+352885464
1342+348258923+348251406+352093596+356073020+358504373+359740305+359134074
1329+357127161+355742059+354707630+352076266+347650597+342825422+338781843
1315+335641514+333058754+331085985+329780130+329062201+329453186+331390750
1302+333943957+336507407+339904614+343999265+347932007+351930253+356304191
1288+360734049+364451975+366917270+368875493+371206710+373344429+374366808
1275+374798851+376340983+379538352+383073654+386244339+389552373+393138718
1261+396536499+399223956+401298208+402763877+403245672+403367555+404012061
1248+405338545+406982362+408019632+408387261+409141514+410417472+411341007
1234+411507334+411414688+411679342+412437439+413556567+414484234+414465699
1221+413791640+413846585+414816285+415138123+414420079+413804465+413635700
1207+413313289+412523142+411747801+411387976+410924573+409836576+408468918
1194+406887277+404705860+402673153+401134148+398966618+396034592+392857422
1180+388984761+383477579+375574393+365030347+351591201+334941029+316113371
1167+298302927+285511875+279790880+280339269+285091251+292216599+300310041
1153+308060902+314506883+318779165+320473135+320641758+319377391+314715760
1140+306287742+295401745+282561400+269694514+261015901+258697365+261475947
1126+268080766+278075305+288512044+295002096+296916362+295849483+291957856
1113+286235083+281473661+279073439+278004235+276976463+275280800+272032130
1099+267001692+261138415+255441580+250682941+248139260+249130450+253429445
1086+260139765+269131464+279362568+288907562+297285713+304654914+310506026
1072+315174084+318781116+319424274+316713778+312015019+304202270+290892554
1059+271958248+250103020+229103213+212308477+202795646+202372326+210464333
1045+224714542+242467731+261905264+281417912+299610246+315684686+328270132
1032+337089996+344780173+352577715+358650041+362429626+364881206+366338927
1018+367475930+369356111+372009940+374329308+375460285+376261306+377232929
1005+377184841+376025057+374569603+373423734+373269343+373493541+373283976
991+373131966+373272900+372874800+371137477+368688622+366814438+365470423
978+363723603+361431177+358767506+355266606+350704822+345303886+338452775
964+328216105+312878789+292123752+266620348+240203939+220585489+213446225
951+218439994+231884434+250272790+270425899+289023821+304200061+315687124
937+323932777+330324760+336134900+341315797+345091193+347280271+348763097
924+350276079+351566985+352302473+352590598+352769348+353380601+353868306
910+352974897+351290338+349964973+348722842+346958061+344624892+342030972
897+339031118+334944759+329223909+321594501+312086290+301009091+289179245
883+278785373+273785349+277252680+287626870+300272799+311987905+321732423
870+329005477+333276095+334780928+335085321+335453725+335296637+334351698
856+334089138+334807899+335117771+334195728+332354110+331036635+331011242
843+331052559+330156568+328508849+326528476+324803605+323784640+322685884
829+320243457+316291319+310839627+302641058+290481858+277018640+268965682
816+271054223+281296287+292921846+300863565+304764431+306447240+307556756
802+308721647+309968540+311325524+312380583+312281883+310986300+309720671
789+309015969+308182498+307395680+307453236+307886541+307592219+306468816
775+305417344+305173205+305431432+305299793+304370089+303183909+302331070
762+301659680+301174184+301076545+301010095+300776399+300604018+300144231
748+298930190+297523081+296743035+296607121+296467736+295963074+295345567
735+294760854+294247671+293706254+292918748+292335470+292783178+294085074
721+295071874+295159098+294646746+293933867+293341437+292778329+291754889
708+290500364+290225553+290963652+291555997+291886442+292099163+291837178
694+291188052+290926267+291266983+291414718+291569396+292179214+292367318
681+291511553+290412940+290699400+292416438+293373916+292510950+291886126
667+293752649+294388146+293344650+292743067+293558979+294898891+295373828
654+295092733+295208907+296254526+297449056+298069002+298633487+299000542
640+298826583+299154016+300135939+300915670+301984816+303631015+305020879
627+305621114+305274200+305189903+306514465+308299245+309681076+310503329
613+311002711+311372579+311293963+311337948+312321076+314364083+316452710
600+317014613+317237147+319296939+322303277+324754427+326505178+326818408
586+326136200+326800074+328677643+330353308+332100703+334117514+336107040
573+337385752+338168811+340159255+342919445+344542690+345011114+345117331
559+346041727+349010278+353125960+356499382+358228615+358328577+358402832
546+359984416+361646165+361957616+361778377+361713247+362477484+365407904
532+370381674+375800141+380292318+383445042+384787422+385220756+387159324
519+390569989+393118633+393380533+392823566+394357607+398129445+402082329
505+405292925+407769180+409887561+412492069+415156141+417052619+419544138
492+423315115+425857304+426107297+426787496+429407698+432933130+436915567
478+441134425+445635468+450649866+455902207+460761038+462741238+461770132
465+463690567+470381348+476247810+479603128+483636349+488151021+491778366
451+495470326+499376442+501054919+500118587+501233038+506569274+512640424
438+518137908+523239731+525308188+526132392+531235591+540069543+549547398
424+557851983+563971393+571766296+582252786+589724904+598334542+612830956
411+624195074+627562299+632846832+639908714+640463787+642810384+658192115
##END=
