##TITLE=павел 7-многокр
##JCAMP-DX=4.24
##DATA TYPE=INFRARED SPECTRUM
##DATE=3/2/2015
##SAMPLING PROCEDURE=Instrument type and / or accessory
##ORIGIN=Default
##XUNITS=1/CM
##YUNITS=TRANSMITTANCE
##RESOLUTION=4
##FIRSTX=3996.3347
##LASTX=399.24773
##DELTAX=-1.928733
##MAXY=0.26412541
##MINY=0.080029652
##XFACTOR=1
##YFACTOR=2.4598595e-010
##NPOINTS=1866
##FIRSTY=0.26412541
##XYDATA=(X++(Y..Y))
3996+1073741823+1068436343+1062030780+1058730893+1060794761+1063995180
3985+1062031386+1056947498+1054797246+1056381706+1059092661+1063476760
3973+1068382551+1067610433+1062583124+1060732245+1062262670+1064288132
3962+1067182030+1070945091+1073023861+1072668030+1072354240+1072183775
3950+1072098119+1073276589+1072141735+1068628373+1067606434+1067449660
3938+1064783896+1061072447+1061109278+1065171470+1063537822+1054138892
3927+1049055731+1053515189+1058841144+1060290637+1061985710+1063161031
3915+1060055234+1055431248+1053667117+1053170625+1050252254+1049021929
3904+1055305611+1062768369+1066174509+1068954521+1067813972+1061826029
3892+1058576906+1057718768+1054061596+1053488535+1058279592+1060434326
3881+1061809673+1062630495+1057845738+1052582541+1049669258+1050344331
3869+1055884488+1057026248+1056119891+1061026530+1063090277+1055914534
3857+1044461550+1037567976+1047665119+1061958572+1058924861+1050567619
3846+1050962583+1056257401+1055196087+1050528365+1051786555+1053691105
3834+1049784355+1046625734+1047159420+1047309288+1047049412+1046884520
3823+1047788697+1051434601+1051737124+1052426857+1056550959+1051253475
3811+1039776382+1035539122+1040972298+1047220845+1050883833+1055241520
3800+1051421274+1039648443+1034191520+1036756968+1040702730+1042214375
3788+1039111122+1034503371+1033382934+1035166814+1037612803+1039576961
3776+1039497726+1038091364+1036858253+1037565795+1041043537+1041721518
3765+1036661619+1031180102+1028820253+1030637693+1035500716+1038396673
3753+1040104468+1046718539+1052556250+1046677709+1036554276+1034452365
3742+1034458060+1031490015+1032082461+1037640427+1043025142+1044594093
3730+1040362528+1034485319+1032632624+1031334937+1029471459+1031270604
3719+1032331918+1029140343+1024530412+1022637977+1026042421+1027999552
3707+1022805777+1015827758+1015244096+1021539711+1026554299+1025292716
3695+1018635152+1009032864+1000369162+999114970+1003772999+1003256942+995861788
3682+988232260+985270274+986961955+992603639+994064520+987598804+985678564
3668+990124877+990523536+986795791+983746573+981120851+977560966+977142316
3655+977185690+971858099+965991250+964464823+964466822+959538194+950281985
3641+944461114+945169444+947531716+946514684+941686008+935784508+932740560
3628+932844571+929671957+922777111+915516681+909997424+906777802+901505397
3614+893667181+888798100+886775849+884585193+882891997+879224103+870808343
3601+861279960+853699500+848608585+848312423+848806007+844463464+838485818
3587+833852686+828715793+821117705+812575702+807391135+805675101+803866203
3574+800272516+793565338+784409082+778383278+777641266+775681712+769526212
3560+763889254+763547174+765334688+763694861+759331479+752534829+743299337
3547+737632635+737739130+736189684+729849666+723358689+718103670+712203503
3533+706411527+700651657+692465182+685057852+684435602+686068342+682324484
3520+676280506+674612390+676880827+678300819+676440733+670235863+660135751
3506+650682121+646238716+646417904+647351158+645149597+638351917+632247847
3493+633189461+635438877+629462383+618469362+611795926+608573154+602236831
3479+595353797+593719725+593980450+591091216+587503526+587139517+587722877
3466+584487929+578516341+575162601+575299202+573696509+567723710+561853165
3452+559114345+557213067+554663066+551395164+547110169+543764546+543214807
3439+542096126+538265582+536831960+539317022+540048008+537385818+533934125
3425+531213720+529556750+527908926+526264556+525130852+523304386+520495357
3412+517770833+516947951+517528282+514528070+508167577+507289327+514789280
3398+523082189+525613047+522633311+520159880+520887110+519515398+515412559
3385+513996808+515824788+517001683+516470481+516714244+518560821+520175509
3371+518419555+514044967+513729177+518271141+521584173+522279661+523105208
3358+526204403+532303021+536571660+533643778+528672261+528508581+531597295
3344+533950057+534451152+534962121+536031371+537931923+542643503+546821821
3331+546930012+547044624+549607225+552106220+554407430+556772185+557559387
3317+558261720+559814134+560216852+560901860+563191621+564380450+564224584
3304+566426872+572053714+577227923+579055479+579631448+581915696+584558683
3290+585854613+587870988+589952060+590420323+592712325+597511015+601138140
3277+603346909+606396370+610303908+612582401+612437016+611802650+612352753
3263+614358042+616462861+618734085+622471279+625513471+626274079+627252826
3250+629664166+632617005+636456697+640553599+643077067+645359316+649159147
3236+653457954+657693094+661211059+661994565+661074215+662204405+666205232
3223+671097453+674893165+677912943+681884753+684932942+685569972+686839430
3209+690163972+693887658+697254907+701391729+706337501+709675915+710563312
3196+710283687+710821917+714869146+721523863+727310690+732555653+738465209
3182+743408801+746100310+745991634+743486037+742769347+746921798+752616851
3169+756751008+760775278+765183063+767967740+769703461+773366327+778375100
3155+782039844+784120128+785474031+786498938+787783721+791129284+796396357
3142+800147242+801296272+801247750+801163002+802520236+805345985+808252301
3128+811211623+814324932+816610694+818231924+820037370+822626988+825549297
3115+826744063+827250186+828178533+825839220+821161260+820323658+823856525
3101+828420357+832632053+835206285+834849061+833951972+836601744+841609001
3088+844441716+845581841+847797153+849648334+849532268+848588656+847378443
3074+846636431+848103068+851181787+853708163+854579386+853673695+852624132
3061+852875225+853682660+854888754+857295126+860400014+862302262+861681588
3047+859030544+855915660+854592894+855313279+855112102+853839676+854425277
3034+855585271+854497485+852905575+852292714+851842564+852212631+853074888
3020+852618741+851030586+849056252+846184828+842749914+840218631+837485021
3007+832755449+827793927+823578657+818548562+812518820+805491976+795923430
2993+783595953+769627861+751989149+727604732+696459588+659577471+619876997
2980+582308661+550978392+529488297+519321612+519115588+529133860+551485605
2966+584159176+620193513+653667067+682380942+705530188+722283260+733566203
2953+742131347+748736876+751629078+750396936+745853155+738048619+729328762
2939+723719002+721099277+718610944+715119633+711025820+708100179+707650877
2926+708258468+710336087+715287674+719679648+720727938+720798147+722942159
2912+726347814+727075832+724515654+721456077+718558120+715348130+712961022
2899+711262737+708845764+706623911+705326951+704688769+704759826+705243839
2885+706564060+708173235+709147984+710235104+712620880+717227904+722786536
2872+728205719+734748430+741171621+745949715+751660335+758881511+764911192
2858+769623378+773492449+775553834+776798091+779078584+783056452+789383386
2845+795951902+799289710+801480851+804888687+807398040+808265628+809081847
2831+811808672+816297328+819175173+818529662+816668000+816931451+819214730
2818+820999034+821321547+820757876+820231278+821855052+826592195+831174140
2804+832724979+832193837+832242723+833912476+834731178+833666592+832740123
2791+833009935+834439559+836475076+838597765+839751096+838400828+836487979
2777+837173169+838650770+838128533+837147363+837556442+838744180+839428219
2764+838479579+836527294+836327934+838419850+840052771+840439799+841007166
2750+841357000+840225719+837981573+835645834+834415994+835794309+838692569
2737+840257037+839425554+837315405+836660261+838221762+839523992+838831472
2723+837244893+836176552+834553080+833204691+835360333+839119760+839801920
2710+837972850+836312305+834120074+831952679+832041546+833295920+834465364
2696+836050248+837534634+837724241+837306863+838177722+839295010+838377385
2683+836849989+836522266+835463254+833793320+834631104+836798983+837211272
2669+835398194+832632356+831281846+832007562+833217230+833503155+832604006
2656+831861268+832982130+835544973+836899299+835762385+834184892+834433501
2642+835742091+835564660+834263884+834553807+835432057+834191373+832421911
2629+832450746+833360314+833861348+833403323+832001868+831221572+832060810
2615+833654598+834513099+832781376+829067383+826903017+827244067+827969965
2602+827445123+825984484+825264159+825231690+824951762+825420631+826399741
2588+826203834+825691956+826092251+826241695+825049050+823681699+824233800
2575+826570206+828429928+828760256+828283877+826947966+824215688+821972693
2561+822302173+823400499+822511588+820837414+821126367+822002133+820205350
2548+816599912+814280468+813357573+812519668+812717877+814755152+817013049
2534+817793648+817173639+816784491+817032797+816487844+815169803+814093708
2521+813210491+811764027+809978633+809789934+811513843+813066923+813409730
2507+813159061+812635734+811469197+810632201+810814781+810553572+809880800
2494+809390791+808480254+808156710+808528110+808088016+807957653+808899994
2480+808776900+807266345+806093145+805837448+806157720+806174197+806022936
2467+807318442+809255400+808843960+806046137+803838701+803598754+804401464
2453+805101979+805225618+805651779+806263064+805272383+802913625+800872837
2440+800453036+801543730+802166525+802075599+802533321+803029873+802145505
2426+799810735+798059628+797860571+797555504+796344988+794707766+792918131
2413+791452887+790738621+790625281+790617890+790631641+790604866+790038953
2399+789296275+789091948+789057843+788796816+788883138+789426577+789648775
2386+789790344+789423124+786871064+784077179+783668827+782201888+777562455
2372+775845574+780475556+785967857+791323434+801989761+813433295+816468641
2359+809424229+796077297+789218797+793555464+794468788+786461864+777743097
2345+777535801+784746316+787422802+785013340+783032887+784914054+790625583
2332+793090534+788738238+783647201+780905110+778834700+778541445+779204463
2318+777062875+774423946+774729135+775601387+775055465+774525110+773871906
2305+772816831+772825736+773015706+772013940+771452085+771905203+771885334
2291+771008720+769578188+767618270+765611950+764455894+764832200+766175380
2278+766465908+764910708+762810493+761689874+762188789+763501014+764456802
2264+763977272+761130746+757465941+755789465+755920069+755721982+754995175
2251+754953256+755620697+756047039+755697569+754661395+753929803+754528003
2237+755613670+755891356+755090766+753682950+752761691+752146892+750748829
2224+748860696+747786479+748346031+749237486+748531095+746846501+745621204
2210+745146581+746006657+747523331+747170771+744994229+743049577+741912481
2197+741528724+741389275+740555550+739461645+739157305+739399978+739417848
2183+739317290+739388347+739428570+739116536+738287415+737568969+737284316
2170+736701865+735775033+734415133+732365259+730616695+730007772+730343189
2156+730734882+730597008+730375537+730358394+730142678+729212696+727746907
2143+726662574+726394035+726375316+726021242+725179702+723760074+722071482
2129+721006291+721481277+722751462+722710572+721121266+719562007+718654802
2116+717284846+715210135+714227269+714634348+714760773+714330189+714564260
2102+715353764+715123691+714000649+713712241+713865319+712767598+711207854
2089+710368617+709128236+707026447+705894621+706510813+706654199+705092880
2075+703820757+704353959+705517648+705590826+705092275+705257408+705314593
2062+704229169+702218125+700162859+699321380+699604033+699649224+699479305
2048+699769409+700306124+700370457+699593917+698817801+698476751+697935371
2035+697199660+696482122+695398576+694017051+692830887+691822457+691364250
2021+691782052+692381161+692539086+691967964+691096196+690653436+690588619
2008+690261017+689115743+687940907+687877301+688267964+687733733+686392733
1994+684962625+683896343+684090675+684941786+685131938+684856433+684323050
1981+683486477+682451938+681531345+681083982+681309754+681899837+681701083
1967+681123721+680886803+679795200+678010109+677111627+677250228+677101813
1954+676483380+676409475+676481320+676120098+675397774+674528854+674142855
1940+673860504+673076392+672075110+671080007+670296258+669669223+668585798
1927+667095294+666466441+666796769+666740250+666559670+666734617+666518477
1913+666316391+666775930+666906777+665977461+665317229+665508230+665159547
1900+664183647+663467684+662982460+662287699+660837782+659367207+659063897
1886+659383624+659843284+660639694+661483111+661958401+661939864+661278178
1873+659850978+658491139+658336727+658676021+658092964+656930001+656069259
1859+655684654+655559440+655380495+654973900+654400658+653657435+652123194
1846+650655285+651616647+652643977+650584834+647881209+646989996+646748959
1832+646571831+647628905+648422649+647388352+645953579+644401710+642757643
1819+641851467+641216678+640227330+639243857+638449083+637801088+637534306
1805+636868198+635233762+633854478+633308495+633171166+633618530+634417968
1792+634085096+632196417+630558953+629925738+628990122+627171047+625883174
1778+625168786+623597108+622369388+623679372+625005469+623688883+621238956
1765+618966096+618509283+620015658+620053398+617670287+614488708+612209184
1751+611989228+612667209+612351662+611217898+609361628+606971248+606188772
1738+606532426+606212397+607334833+608408323+606239838+603240293+601831023
1724+601933520+601665526+599978631+598696088+599154053+599144663+597631261
1711+595340107+592694394+590893492+589678857+587063432+585228365+586117700
1697+585677727+583831028+582135531+579901562+577170980+573984797+571933347
1684+572151970+570751181+567229278+563798787+561269019+559255854+557009224
1670+555590443+554256411+550660361+546644148+544355296+542727887+540076419
1657+536308875+533720347+534807286+534970117+532252620+528961275+525614501
1643+522742290+520782675+518960753+516790632+515929889+515792439+513657211
1630+511304087+511257260+512666470+514431753+515825575+515683643+516528393
1616+520955563+524569906+525151145+525445430+526482271+527901960+529720369
1603+531629644+533106276+534149114+534875435+535336186+535359145+535105932
1589+535583281+537122913+539167820+541093148+541671540+540161772+539083194
1576+541354600+543376851+543011994+543606621+545328894+545337738+543427736
1562+540516513+539559331+543648298+546412258+545850464+545270740+544827314
1549+543736075+541892223+539998032+539181390+540622160+543306703+543394600
1535+541884227+541264037+540742285+539617304+539650379+540702606+541078428
1522+540836967+539465255+537143025+535380650+534290743+533387960+532088093
1508+531007212+531806226+531645515+528984052+526075131+524431669+523785249
1495+521758575+518071236+515747673+515778507+514926366+511701534+507781154
1481+504420720+501373713+498188983+494779330+491107257+486784340+481496973
1468+476850877+475161801+475969417+476114591+475134177+475722474+478392933
1454+479632525+479928294+480809148+482022421+483065440+483597430+483495933
1441+482072881+479534027+478238884+478386693+477294878+474694114+471957020
1427+470090937+469067362+467993993+466715419+466131333+465340496+463360225
1414+461694622+460723720+459625575+458811901+458668545+458431748+457790537
1400+457641578+458554659+459876395+459790194+456744549+452153942+447184575
1387+440256927+431381840+423570308+419515355+420138665+424343123+429975175
1373+435050521+438414045+440178843+441883578+445099687+449739150+454383307
1360+457633612+459529742+460447639+460324122+459715259+458512285+455961891
1346+452945142+450469651+448523091+447799556+448814741+450252088+451052465
1333+451456031+451537901+450824695+449156851+447262417+445391397+443138225
1319+441125151+439928537+438929800+437470039+435836118+434876846+434293699
1306+433385615+433042293+434108847+435824881+437239421+438176582+438942703
1292+439665723+439956282+440057931+440779921+441644813+441916745+442258552
1279+443327892+444459294+444393356+443283520+442934170+444286437+446485211
1265+448247434+449110812+449556570+450065904+450491671+450279923+449456951
1252+448859144+448815922+448928989+448971666+448947647+449194681+450149561
1238+451258458+451726055+451788631+451707851+451246494+450565212+449793972
1225+448821222+448522516+449121867+449134528+448646972+448705732+448559195
1211+447692455+447044460+446939874+446622994+445993384+445729994+445622136
1198+444735315+443302359+442570767+442623560+442391640+441496005+440371145
1184+439264883+438432581+437974678+436719153+433777914+429680436+424507075
1171+417804744+409659522+401146112+394342434+390707434+390181956+392642939
1157+397359153+401449907+403381353+404669680+406173542+407478316+407694334
1144+406026369+403295878+400084495+395474048+389468507+383250794+378041966
1130+375581437+376643145+380157294+385193205+390116290+392816977+393199190
1117+391677943+388525743+385402378+383633007+382447933+380791054+378797637
1103+377091326+375517256+372783887+369067986+366104848+363561602+361102497
1090+361082597+364695911+370103191+375306538+379857194+383754615+386442430
1076+388516051+391378691+394179603+395344686+394727343+392591266+389561221
1063+385879727+380223263+370990346+358604835+345687062+335035849+328664966
1049+327853746+332671033+341456102+351475585+360632720+368784908+376927253
1036+384435625+389627311+392801803+395088837+396388553+396973124+397849859
1022+398825396+399291326+399541389+399877654+400073288+399822559+399486021
1009+399439559+399068159+398160288+397544338+397313902+396776036+396109201
995+395876797+395765304+395264845+394711199+394507296+394058418+393213819
982+392879372+393039417+392663505+391169003+388952843+386754463+384630775
968+382531681+380744560+378385923+373248939+364149898+352046375+339242639
955+329182811+325342363+328516491+336197237+345219527+354215980+362337426
941+368016122+371053528+372838195+374412477+376240458+378060078+378929786
928+378982458+379152438+379287647+379340167+379941911+380575974+380349082
914+379756727+379535801+379224313+378465431+377510551+376201961+375100938
901+375074739+375076435+373794438+371844637+369857974+366884235+362571678
887+358147416+354339255+351233367+349625464+350614449+354175666+358391724
874+361528174+363782800+365208092+365630195+366167909+367461567+368554593
860+368492290+367968599+368376284+369190594+369114237+368695617+368200307
847+366784041+365479842+365650791+366822265+367789684+367103131+365095055
833+363637202+363014952+362354720+361234434+359886014+357665312+353021760
820+346913540+343033838+343933713+348208531+352251641+354835686+357035247
806+358992015+360098065+360184327+359914940+360290337+360491605+359188013
793+357590650+357465195+358366918+359104052+359478359+359156694+357997305
779+357203380+357193778+357293458+357386262+357245269+356841067+356925663
766+357112150+356025727+354101035+353268915+354038580+354739580+354096249
752+353086790+352728293+352877525+353224906+353103630+352387243+351553972
739+350680872+350385618+350937780+351562211+352241100+352920051+352648149
725+351759420+351715229+352440581+352840694+352884522+352742287+352155020
712+351764811+352222776+352750616+352669533+352075028+351374542+351407648
698+351982375+352230923+352350866+352465358+352540019+353241958+354443842
685+354646685+353211488+352047283+353244048+355783781+357171425+356488446
671+354949602+355676347+358799561+358233224+356173051+355858746+356746869
658+356967370+356879079+357417823+358541259+359012762+358269449+357977890
644+358506124+358822580+359188437+360413885+362030602+362307046+361519117
631+361299918+361746767+363106091+365462184+367244155+367353104+366996485
617+367027773+366724978+367671013+370590445+372039241+370970052+370162830
604+371313253+373700028+375410912+376247121+377715363+379945516+381923758
590+383036593+383317672+383737200+385527834+388114544+389317004+388252994
577+387045779+388346041+391535556+394887024+397832776+399594364+400524619
563+402053741+403903438+404352528+403935665+404484708+405397092+406423756
550+408078091+409057081+408363865+407587385+409098849+412503868+416699239
536+421735028+426088748+428741397+431195595+433762769+435143538+436389915
523+438819761+440463798+440580682+441593898+444097133+446262256+448184222
509+451609201+455554600+457136727+456781986+457799442+461830558+467196887
496+471065534+473406968+476656485+480454075+482046954+481370700+481942095
482+486663246+493579476+498985514+502973892+506698911+508513291+508642381
469+510535482+514627357+518527686+522188432+527837445+535442863+540608288
455+542199532+546226891+553988659+560836679+566185168+571876889+577602835
442+582892929+587157145+589579449+591771984+595153347+598280892+602026930
428+608119309+615061769+621392156+627729448+634708497+639069031+641666161
415+649409756+660376243+669444481+678376541+690423364+700998159+702294392
401+698804171+699725248
##END=
