##TITLE=павел 7-многокр
##JCAMP-DX=4.24
##DATA TYPE=INFRARED SPECTRUM
##DATE=3/2/2015
##SAMPLING PROCEDURE=Instrument type and / or accessory
##ORIGIN=Default
##XUNITS=1/CM
##YUNITS=TRANSMITTANCE
##RESOLUTION=4
##FIRSTX=3996.3347
##LASTX=399.24773
##DELTAX=-1.928733
##MAXY=0.36012039
##MINY=0.024216862
##XFACTOR=1
##YFACTOR=3.3538825e-010
##NPOINTS=1866
##FIRSTY=0.33864173
##XYDATA=(X++(Y..Y))
3996+1009700661+1011932448+1016090346+1021129017+1024487627+1024861724
3985+1023810787+1023851040+1025590903+1028264942+1032062605+1035010953
3973+1035724758+1036975896+1039163342+1039731063+1039677925+1042852508
3962+1048658300+1053007423+1054324849+1053866780+1055019728+1057185671
3950+1056372609+1055200734+1056748128+1059333841+1062625451+1064235935
3938+1060547746+1054186585+1050197607+1050434684+1053367392+1054590805
3927+1052879822+1051947422+1053161505+1055295725+1057697411+1059115070
3915+1060660597+1065285362+1071657809+1073741823+1068158446+1060250957
3904+1056703610+1056447606+1058859244+1063723662+1064088607+1059536085
3892+1059161365+1064586307+1067571087+1067655414+1065831135+1059546215
3881+1056740575+1060474793+1061479879+1059102452+1053810710+1048507950
3869+1050168284+1051223131+1048189923+1047434176+1046054015+1039287834
3857+1029240260+1022458795+1027990634+1039150280+1041467105+1038152391
3846+1036628900+1037975206+1035888348+1029559087+1028029376+1032048210
3834+1033730936+1032813910+1030687065+1026905041+1024008499+1021886986
3823+1019415012+1019471438+1018421211+1017386891+1022466081+1023930836
3811+1015983449+1006863476+1006014427+1008775104+1005177018+1001876078
3800+1000988019+996607973+993995868+995374430+996910716+996783558+994848383
3786+992857316+990672535+987792343+987753245+990359040+989966549+985702997
3773+980974178+979649377+981401413+980518509+974994578+968065429+964435531
3759+966279004+968655809+965481226+958384399+956530086+960736768+956786622
3746+947385144+946899262+947944335+942506331+937752010+936664907+933663688
3732+926986454+920810564+915889987+911496790+908052342+904393743+898155385
3719+888105323+876206369+863698552+852213148+844209958+835213499+821237729
3705+804490174+787106831+767308030+745100834+724114918+702629836+676980236
3692+648730660+623385269+603818080+587368469+574075092+564439337+555115833
3678+544357386+537262025+534975990+529685848+523422387+519410084+513609179
3665+505961870+497706097+488671119+481423098+477466199+470477780+457077684
3651+444407565+438043693+432773100+424176953+414949905+407861786+403172421
3638+398522376+392483507+384761467+373949127+363055414+358452265+356865773
3624+352367544+345249346+339130504+336290853+333886680+330004711+324692465
3611+317486008+310269644+304304572+298580153+294478325+292671440+289709164
3597+283788944+277380576+270750060+262957999+257615852+255078478+250150104
3584+244376590+241343449+239440574+236751340+233581889+230370429+226675754
3570+222336783+218210496+215204701+212608636+210590244+211024054+210904761
3557+206409242+200208338+194255240+188356324+183985952+182378189+184031514
3543+186666044+186287760+183112211+180294320+176915872+171419076+167324046
3530+166554337+166448527+163888261+159115846+155540475+154899934+156520825
3516+157303974+155116661+152778432+152368314+152494394+151158974+148555078
3503+145820837+142735579+140543102+139912835+140199405+140912634+139886466
3489+137038696+133617640+129319755+126053314+126062988+127823488+128619045
3476+128113291+127404995+126138119+123104455+120573069+121297782+122105467
3462+120625129+119061052+118017512+117219434+115897810+113295513+112879330
3449+115798032+116589101+113165890+108366728+104338397+104176763+108511324
3435+112371411+112928114+112205000+111247720+109255809+106845448+105143984
3422+104384849+104856180+104979716+101876010+97806948+98328207+103126958
3408+106769984+106395154+103359902+100909378+99972935+97977425+95233931
3395+94283316+95089324+97528264+99657885+99045734+98953898+100634803+100370835
3379+99984776+103433400+107848002+108038249+104636309+101800579+99939702
3366+99647477+103234789+106772683+105926944+103981983+104346506+105913993
3352+108071705+110549898+111284875+111300258+113323604+115596710+116102330
3339+115730066+115058079+114842974+115326778+115373341+115518992+116547259
3325+117800773+118636105+117802762+116315381+118105627+122301790+124388448
3312+124596012+125298133+125661278+125058413+126108229+129877168+133250629
3298+134423281+134521548+134539698+134978862+135772530+136220036+136125712
3285+135909662+136052692+137350725+139743780+142737545+146414960+148164953
3271+146336786+144544674+145093013+146932287+149163996+150823008+150876335
3258+151098594+154424526+158725732+160502682+161193563+162805124+164669456
3244+165671065+166309940+168283236+170695596+171704103+173384175+177833487
3231+183539834+188240207+190806949+192294162+194599925+197436265+199246971
3217+199189612+198193279+198480582+201235528+205976431+210513692+213606502
3204+216669011+219328433+221282735+224947554+229192823+230990800+231958898
3190+234922774+239157535+242569350+244624130+246247809+248538687+251885212
3177+256040134+260000476+263595119+267215886+269760213+271992511+275633760
3163+279732278+283250546+285934982+288378142+291773451+295674769+298546742
3150+300495868+303265564+307116654+311188825+314723599+317391596+320059170
3136+322579394+324319346+325808181+327894306+330790359+333390645+336259086
3123+341235533+347165328+351488904+353333088+354038430+356233918+360658549
3109+364961999+367720810+369831193+371562680+373556503+377387355+381981152
3096+384508440+385074251+385763354+387310081+389588386+391928270+394265133
3082+397509115+400340879+401309444+402380730+405236264+408604560+410721408
3069+412175633+414733133+416901252+416330954+415130822+415394334+415432099
3055+415245806+417040850+419272815+419986176+421702802+424799589+425345051
3042+422693049+420164206+419073815+418004439+416288035+415044051+414940352
3028+414069355+410297772+404465944+399122042+395278083+391371345+385813693
3015+378367116+369419664+359986018+350023839+338246266+325426375+313729243
3001+302140385+287130293+267750574+246477954+225776543+205915963+186314329
2988+166889080+147427066+128422299+112233946+101211454+95099132+91762681
2974+91635790+98165828+112201190+131882675+156703064+185008054+212320843
2961+236396525+257181797+272867351+283082380+289463335+291963166+290492791
2947+285418710+277928392+270585026+264250544+258495402+252900073+247441143
2934+243333472+242186589+244943023+250200842+255279966+258694957+260643795
2920+262930874+266044322+268214641+268220972+266415242+263448124+259682538
2907+256615631+254333372+251055112+248310275+247220417+245554085+243448767
2893+242574348+243146846+244806513+246766702+248936554+251944548+255965293
2880+261758089+270130133+279755826+288780541+297028938+305978857+317607479
2866+331048606+343245417+353525823+363805786+375160189+385797120+393920804
2853+400559562+407694509+415841473+424166112+432268291+439633828+444790948
2839+448012093+451655852+456512806+461409080+465896157+470359242+474994581
2826+479585090+483941989+488119570+492016000+496368900+501104250+504316953
2812+506969933+511499351+516707610+521559365+527336011+533165706+537495547
2799+541609638+547390105+553895307+557577631+557820661+558141487+560829033
2785+565573758+570189325+572778237+574828129+577840589+580033144+580521070
2772+581175207+582605706+584197219+586046023+587851241+588633691+587568358
2758+586038558+586320953+587289340+587707467+588944165+590486715+591003965
2745+591662189+592774972+592928388+592413760+591800054+589997812+587481454
2731+586265416+586426962+587389040+589378419+591571508+593150936+595152311
2718+598433169+602622790+606754786+609954028+612699598+615161575+616707636
2704+618253297+621349683+626480768+632403187+637768815+643719981+650998213
2691+657647279+662416839+665689745+667515134+668700516+670448465+671871766
2677+672250840+672630535+672612852+670358939+666328820+662716783+660171546
2664+658507524+657895018+657977257+658727629+661104123+665391045+671242510
2650+678507636+686138462+692977375+698628241+702744864+705687569+707838494
2637+709547123+711618075+713508509+714687271+715471720+715658146+716419136
2623+718664963+719774236+717938006+715707019+715467010+716087336+716362666
2610+716930476+717956355+719057187+720130029+720553220+719661652+718087334
2596+717506373+718787544+720644212+721098283+720069204+719125653+719085445
2583+719126009+718959087+719792186+721309989+722279532+723655694+726031699
2569+728342082+730439114+732548098+734191193+735332323+736474119+737317348
2556+737084492+735801588+733686384+730736659+727137685+723794714+721915431
2542+720657852+718404872+716248749+716513505+718879513+720653942+720931672
2529+720781544+720599205+720531405+720711523+721029061+721580477+722388873
2515+723975232+726788602+729003106+729234762+729281235+730247134+731798571
2502+734118284+736626468+738956266+741909456+745576364+748909649+751059774
2488+752497960+754327126+756599700+758632709+760357998+761598295+762140780
2475+763427194+766797178+771069261+774704223+777871075+780601718+782899793
2461+786362991+791673748+797522104+802278469+804361417+804316454+804951708
2448+806682063+807474509+807143597+806432724+805188518+803899704+802285755
2434+798425357+792329707+786598912+782591630+779199609+775475165+771083123
2421+765735133+760532429+757533965+756807985+755891758+754436245+754714908
2407+757185459+760947757+764517763+766557614+768183293+770813258+773962071
2394+776671476+778935875+781239993+783377856+784245121+783601070+782922541
2380+783158996+784764948+786943597+786445897+785822994+792743702+804018776
2367+807118717+801105705+797622959+798437797+798834998+802314546+808993734
2353+813167005+812350389+807722604+803217355+804356974+809849892+811156566
2340+807977630+804388607+802598273+802712990+804833525+806121361+804689129
2326+803873224+803018132+801331674+800368707+797992435+794708822+793112023
2313+791799484+789940906+789065021+788397866+786333756+784058873+783162283
2299+782652587+781114435+778307107+775046242+772917532+771791952+770581335
2286+769555545+769306561+769205084+767847671+766327824+766464312+766268999
2272+763833458+759927920+755083673+749798507+745311563+742248232+740341625
2259+739141227+738227621+737903596+738865896+740435194+741496839+742059984
2245+742319542+742190829+741601337+740512990+739135895+738047770+737314993
2232+735903643+733643376+731475124+729430874+727357301+725472286+723436123
2218+721207446+719831773+719736071+719539426+717988878+715629267+713406010
2205+711305468+709168272+706706295+704023681+702468512+702301457+702551018
2191+702596381+701996715+700968170+699989697+699390564+699282955+699595829
2178+700629439+702130803+703265624+703705477+703744708+703904521+704263201
2164+704389737+703976319+703031346+701768036+700757040+700298305+700311723
2151+700698882+700482288+698587766+695685447+693834600+693699623+693550161
2137+692484696+691490628+691240578+691513020+692026582+692691249+693287094
2124+693594369+693723703+694267699+695445616+696514326+697310149+698343847
2110+699337382+699807313+699985476+700258807+700523785+700360373+699782122
2097+699485066+699686598+699511635+698705504+698089310+697479114+696150981
2083+694933788+695124702+696563109+698103972+699168372+700351531+702327582
2070+704273065+705009796+705289658+706294033+707573161+708408259+708906982
2056+709380423+710030561+710888363+711749453+712504845+713628114+715787170
2043+718381902+720066805+720608979+720435749+720204626+720714455+722065515
2029+723923604+725328734+725210152+724565345+724838632+725302432+725301988
2016+725240142+725005820+724648740+724497946+724590093+724742175+724869333
2002+725417949+726017260+725470998+723874910+722558328+722248653+722153530
1989+721265027+719545113+717525566+715685515+713865945+711908200+710604547
1975+710732904+711703158+712091828+711227628+709749589+708851756+709005260
1962+709558675+709852399+709887409+709773581+709559563+708734861+706485569
1948+703217951+699782655+696694932+693988015+690492428+685622146+679421020
1935+671473544+662760013+655149003+649184909+644791889+642869598+644149703
1921+646787266+649417942+653159491+657251811+659645588+660655828+661879908
1908+663451560+664557901+665587423+666721222+667411347+668633072+671668368
1894+675412094+678304238+680701303+682518784+683418794+684858668+687362631
1881+689762628+691253152+691764181+691685052+691019630+690319464+691185841
1867+692886472+693298646+692670322+691689050+690669480+690443067+690924240
1854+690907134+689982954+688720932+687135018+685827588+685943772+685728955
1840+683932933+681848164+680125006+678691930+677343625+676275360+675654679
1827+675249126+675050837+674048905+671603856+668684566+666014747+663505409
1813+661316763+660010133+659300459+657913812+654954668+651123416+648169159
1800+646550056+644649981+641178786+637526185+635647125+633849281+630269056
1786+626333084+623248959+619925804+615180147+608814009+600931312+592363377
1773+585106648+580062468+576066338+572544982+569095691+566874167+567084186
1759+567183397+566324484+565813189+565592196+565735748+565811500+565054776
1746+563915468+562438628+560532243+558457959+554805314+550015938+547670233
1732+546474855+543173382+538411685+532996429+528292847+523912623+518031611
1719+511795164+507260502+502897295+497052449+490483713+484187418+478423745
1705+472614488+466002877+459138950+452606379+445724902+438580936+431084820
1691+422990061+414931111+406664453+398276858+392237767+387629530+381518151
1678+374565276+368331983+363202032+358532571+354872839+352428923+349589962
1664+346371105+344084803+342705997+341372732+339619562+338862149+342277385
1651+344559022+343032577+343641284+347508080+350430236+352214884+353550593
1637+355728798+362456748+371038189+376567896+381685340+388249278+394975162
1624+402071900+409030995+413847607+418889476+426948870+434271266+438805216
1610+442669435+446875673+451063828+455009886+458869262+462069881+464339122
1597+466375152+468156201+469408138+470675714+471818621+472289752+472080311
1583+471529384+471347534+471086821+470885644+472588897+473863670+472258118
1570+470376126+469969684+469449724+467441329+462925151+458474683+460805993
1556+465161069+464945808+462191796+459226698+456803153+454373699+451720409
1543+448515702+445348628+444152628+442461194+439087300+436488791+434765367
1529+432294460+429527919+426413805+422271412+418347791+415351637+412055006
1516+408663340+405274252+400702180+394425524+387844969+383702799+380091384
1502+374103520+366991876+359837668+352199511+343565399+334120401+323817758
1489+313590867+304933651+297755451+291463533+285209380+278011698+269137776
1475+258295535+245830348+233775646+225737023+222772992+223990252+226922382
1462+228580495+228588759+228964677+232274570+237067168+241754045+246836545
1448+252510670+258142720+261937562+262650546+260802853+258118328+256080343
1435+254253354+250820680+245881420+241290778+237636044+234143257+230743949
1421+227354149+224240390+222553554+221507660+219871696+218379772+218095512
1408+219066587+220796586+222795052+224467448+225470979+225354596+223312634
1394+219362977+213664238+205133335+192672169+177727745+164324927+155815661
1381+154999223+162802569+175680474+189098009+200633174+209752902+218806163
1367+230798575+246137890+263785922+280755247+293024655+299716573+301735898
1354+299468878+293383802+285005937+275831316+266766836+259437176+255406479
1340+255511666+260070942+266408245+270735842+272567963+272705983+270941884
1327+267493748+263250989+258799123+254248200+249768387+245849298+242638949
1313+240016270+238217250+237667922+238725435+241709771+246306989+251603307
1300+257619784+264946378+273035762+280543162+286998648+293386445+300165423
1286+306138648+310409597+313404951+315681168+317267637+318495382+320641909
1273+325079469+331521648+338384153+345114791+351754993+357789553+362879007
1259+366898640+369955174+372358836+374209440+375662021+377197374+379618831
1246+382819494+385297554+386787367+388415667+389930760+390702102+391221307
1232+391582830+391766413+392460936+393609308+394414683+394618215+394482172
1219+394425746+394619281+394668865+394006020+392707121+391474155+390521985
1205+389386142+387572660+384865210+381478609+377834983+373940241+369401848
1192+364266209+358888319+353411039+347849610+341622737+333671796+323192411
1178+309724226+293124777+273196153+249759857+223959751+198785725+178133387
1165+165440131+161986886+166358247+176083394+188602930+200948068+210969517
1151+218478695+223702548+226251696+225334047+220225955+211197019+198758845
1138+183701780+168205573+155144719+147618635+147524134+153965979+164915407
1124+178355546+190786400+198228844+199741738+196561824+190091854+182775479
1111+176849005+172902914+170433584+168043639+164253239+158495731+150989853
1097+142379476+134100323+128164063+126442484+129807336+137067764+146780982
1084+158841282+172784064+187417104+201661874+214153252+223588964+230025811
1070+233219477+231356988+223957019+211808859+194536879+171595140+144520771
1057+117369640+94528422+78906152+72205460+74710905+85048320+102503667+128373471
1042+162469914+201678957+242437416+281256568+315178158+342726590+364171463
1028+381899091+397769472+410582121+419271660+425504153+431057452+435839186
1015+439146880+440783133+441408479+441991218+442646687+443404567+444030625
1001+443352096+441288697+438850535+436543884+434116962+430761728+426429266
988+421679299+416504274+410959773+405033576+397970027+389107436+378595262
974+367044391+354806173+341008853+323693755+301776928+275013234+242169861
961+203059984+162486064+129007392+109097439+104403698+113872209+135650471
947+167493600+206020194+245978965+282044394+311309896+334088612+352692746
934+368808713+382039799+391615975+397787955+400934636+402059193+402541965
920+402760026+402536634+401344988+398877324+395431854+391317497+386728231
907+381440400+375152636+367738026+358958384+348804824+337357297+323381415
893+304654855+281249771+255332882+228936442+205055162+187820903+182258463
880+193136458+219758933+254735793+289312519+317568225+337153720+348463627
866+353716782+355414947+355262509+354256068+352394424+349828126+347391652
852+344517502+340628447+336999950+333938151+330452672+326480090+322252926
839+317964004+313606817+308245232+301717659+294681123+286791562+276814698
825+262653922+242018045+215414031+190442093+179527976+188778827+212519177
812+238459591+256736746+265432704+268113786+269322270+271467553+274085233
798+276090851+276818053+276004725+274147612+272299741+271221480+270595711
785+269568766+267593115+264721142+261882936+259902509+258354360+256671212
771+254960029+253451200+252093787+250208795+247732845+245891439+244772724
758+243327719+241824621+240629599+239068854+237301623+235767469+234035737
744+232038716+230326755+229266399+228550527+227500678+225880797+224170614
731+223147112+222699350+221994186+220855811+219542895+218176929+217022471
717+216501934+216472144+215956738+214501803+212882855+211663418+210732219
704+210026988+209646959+209615770+209486080+208970830+208580427+208268332
690+207473064+206835322+206924892+206848606+206253294+205731247+205563703
677+205729158+205714230+205032836+204037258+203725229+204315609+204189962
663+204225550+205315363+206556815+206778541+206369633+206485972+206800000
650+206314540+205804711+206707742+208491213+209610927+210405084+211634450
636+212495607+212784777+213322908+214397260+215682830+216589171+216858037
623+217217361+218499288+220312215+221970527+223841457+225612198+226006933
609+225911654+226998135+228438209+229686458+231870283+234868592+237569422
596+239669186+241631619+243444546+244087620+244457096+246873022+250189735
582+251755567+252466107+254401704+256601458+257806766+259685804+263052411
569+265735270+266623240+267522850+270078218+273547680+276302025+278064947
555+279594524+281295666+283224266+285636348+288844786+292300786+294926108
542+296569114+297787574+299320194+301904441+305489665+309052718+311547617
528+313059422+314386689+315956942+317858151+320205588+323390412+327053876
515+329575788+331147907+333630232+336807992+339098403+339990749+340634423
501+342076008+342443929+340380508+338154563+337198372+336693541+337230495
488+339767113+343507640+348779744+356849312+365949913+373539842+379958140
474+386376882+392340221+396864530+399986109+402686495+406069230+409454587
461+411609600+412355484+412026349+412680442+413831346+412802001+410616154
447+408101662+404694046+401699980+399909201+398128952+394514161+390070269
434+389281200+393598067+399450777+404942674+412763525+424887382+439913512
420+457873862+479276971+497100211+509080694+521832296+536874510+549451460
407+559037899+568791482+576649698+581067554+585802726
##END=
