##TITLE=павел 7-многокр
##JCAMP-DX=4.24
##DATA TYPE=INFRARED SPECTRUM
##DATE=3/2/2015
##SAMPLING PROCEDURE=Instrument type and / or accessory
##ORIGIN=Default
##XUNITS=1/CM
##YUNITS=TRANSMITTANCE
##RESOLUTION=4
##FIRSTX=3996.3347
##LASTX=399.24773
##DELTAX=-1.928733
##MAXY=0.30445483
##MINY=0.030523092
##XFACTOR=1
##YFACTOR=2.8354566e-010
##NPOINTS=1866
##FIRSTY=0.29560608
##XYDATA=(X++(Y..Y))
3996+1042534304+1046088145+1048735342+1050370895+1053051306+1055784164
3985+1058137906+1056643195+1051119354+1049438606+1051116096+1049523321
3973+1047026425+1048293372+1051686506+1053504207+1053614148+1054482953
3962+1057645169+1063055075+1069098244+1073741823+1073594465+1066189543
3950+1058910329+1059098784+1060656559+1060429320+1062652309+1064618526
3938+1062120263+1057222644+1053866192+1054738466+1059189490+1062449245
3927+1062778437+1063472556+1065612722+1068740674+1072243538+1073079551
3915+1070623331+1068433134+1070259664+1073625050+1071542482+1065890622
3904+1064821905+1068645763+1071985503+1070811050+1065780366+1063490949
3892+1066672085+1068308689+1065141217+1064065143+1065430784+1062278448
3881+1060349124+1063113199+1061421309+1055932574+1051635319+1049806056
3869+1052964278+1056220984+1055585094+1054216615+1052914037+1050280924
3857+1043749644+1036153325+1042242004+1055373726+1053783053+1045372374
3846+1043047326+1046045892+1046529274+1046478403+1050832520+1054245204
3834+1053711055+1051144474+1046571106+1042720762+1042105892+1041177282
3823+1040886874+1045465287+1047561414+1047702151+1048447982+1040541076
3811+1028863600+1025712209+1032447816+1037948954+1038430759+1042620491
3800+1046240338+1042653494+1037697646+1032609469+1026845461+1025304293
3788+1029283708+1032424377+1028928240+1022703973+1022860266+1027763351
3776+1028326088+1024346674+1019850979+1018162768+1019188286+1019109141
3765+1018237603+1016153879+1012145875+1011683409+1014600413+1012213564
3753+1005206363+1005077714+1009943802+1003335373+992025873+993294922+997281694
3740+993441544+989010490+987756681+985645104+982577273+981512235+980896629
3726+979528361+977513375+973590087+968478052+964159355+959253432+950692241
3713+941356735+935716647+930266380+921925281+911166431+899612034+887032644
3699+870338726+851963850+834488732+812757719+784751988+761533043+750731835
3686+742019292+731596991+724095582+716764446+706232624+699389704+697399419
3672+691583647+686094070+683062921+674601423+661728420+649675979+639583395
3659+630644716+623585383+617064035+606483497+595031263+589762514+584172036
3645+573598172+564475505+556397906+546239947+537589678+533030079+529582500
3632+522134433+508516650+495325964+488442894+483533029+475927356+466789081
3618+461363830+457598253+450041769+438991382+426923437+417724569+415055667
3605+413153119+404772552+394547797+388451708+383212625+377049609+372177767
3591+367561883+360245803+350756133+343578766+339964279+337343647+333282828
3578+326046918+316782305+309426364+305338348+302960879+300511859+296063383
3564+289629062+283362990+279599200+277831897+274902333+269989394+264466053
3551+260068422+256597194+251632753+245516825+240632159+237905791+236271893
3537+233145834+229248717+227195473+225120578+221727864+220219660+219789672
3524+215374134+208892988+205526748+203891130+201516131+198897036+195631724
3510+191994587+189942066+188806725+187448993+187190327+186721844+184129433
3497+181110529+179335698+179476960+179047537+174485008+169271834+167812583
3483+168212064+168054208+168085937+169518163+170550828+169086519+165135614
3470+158282762+151597593+150591809+152752944+152107869+149886022+148148740
3456+145863514+143613407+141093204+139201613+142063883+148229961+150761620
3443+146866803+140200737+135249815+133562156+133739746+134068372+135411836
3429+137125916+136632746+133613146+128624005+124236346+124536883+128176911
3416+130293717+130628506+131506324+133214361+133704430+130137819+124862081
3402+122995098+123005595+121013943+118543521+117627405+116627480+115674813
3389+117379381+120299066+120995681+120650632+121347247+122777226+123916679
3375+122417291+119745657+120800066+124341255+125906229+125885142+126885251
3362+128441383+128986200+128604245+126738037+123302585+121540485+122896075
3348+124197825+124756252+126615825+128734852+130444886+131827370+130313911
3335+127015477+126556296+128963497+132803725+137288568+139516550+139420470
3321+140463502+143099847+144380391+143396626+142922783+143112078+140111502
3308+135829855+136490774+139078534+138490861+139003449+141442419+141510724
3294+141360410+142791952+143829965+144664808+145847827+148952932+155485658
3281+160362374+159287443+157154674+157709974+158777036+160345111+164220812
3267+168839349+170128053+167793677+165672561+165124710+165621585+166371095
3254+166506681+167331067+168896041+169600158+170131285+171462963+173159951
3240+175701149+180332588+186122018+189265762+188647043+188714586+190565948
3227+191600952+194217813+200120692+205939118+209472253+210663090+209842121
3213+208814106+209330373+210728532+212376632+215259581+220028276+224451526
3200+225905561+226619756+228599609+230351725+231291555+232136397+234958332
3186+240194314+244758197+247648031+250390007+253059303+255360649+258245176
3173+261487062+263546455+265131872+268661250+273625638+277985720+282599659
3159+287536824+290936265+293256793+295275824+297192142+299445165+301517906
3146+304305578+308987178+313672064+316647980+319122672+322734058+325950746
3132+327463377+330285733+334885903+338683853+342012951+345462474+349574769
3119+354577888+358658967+361865669+364341149+364245345+362846123+363534146
3105+366768518+371051820+376217433+382393535+387940394+392028435+394783235
3092+395973323+397509813+400352008+402505260+403672488+405529078+409004090
3078+413057761+417011530+421723034+426911954+431396035+433689052+433871542
3065+435145819+438576923+441381884+442955529+445130906+447606571+449807593
3051+451540212+451625085+450935800+451156260+452675513+455080809+457193858
3038+458636542+459612923+460468117+460394228+458094879+455619109+454256253
3024+452736264+451331051+449142273+444609791+439767878+435583980+430043558
3011+423313417+414978572+403238663+390603042+378829762+365550734+350124315
2997+332893884+312905763+290436985+267189846+243420671+218347711+192228894
2984+166447704+144796177+130692292+122542985+116984196+114222867+117616842
2970+128104545+143744540+163825942+186788416+209786047+232265362+253722732
2957+270618321+281285414+289144104+295748065+298602768+296131439+288901388
2943+279564988+270974841+264567401+260558241+256905654+252635753+250039926
2930+250921213+254862395+260246129+265869085+270479293+272884562+274502274
2916+276525142+277161768+275905937+274864679+274105840+271288687+266514540
2903+262233209+259570167+257813637+256177506+255108711+254854643+254399141
2889+253359827+252617648+253081980+255233130+258942448+263388743+268347666
2876+274050292+280804371+289598634+299424486+307983338+316049822+325313567
2862+335661848+346259072+355968440+364916920+374752388+385128364+393664724
2849+399706527+404922959+411633498+420341495+427695125+431597339+435561618
2835+442226252+449974764+457126853+463258732+468123611+471241157+473711829
2822+477359634+481102403+484504155+489148365+493260843+494942380+497454201
2808+503725818+511474383+517772065+523167940+529147625+535921648+542931055
2795+549139976+553877519+556835673+558154804+559171914+560448478+561710011
2781+564025652+567938324+571782415+573982544+575327900+577797941+581399185
2768+584433592+586302060+587495222+588243418+588781245+589806974+591816756
2754+593813243+594156781+593941787+595201744+596143756+595050024+593955504
2741+593935534+594005219+593920871+593434389+592336715+591540801+590936074
2727+590264868+591194109+593547850+595143253+595617911+596412091+598962276
2714+603401844+609128119+615093772+619477109+621214089+621618011+623296237
2700+627283850+632764334+639158452+646507509+653047146+656872790+659670447
2687+663761011+669214115+673307675+673501858+672094752+672042042+672545236
2673+671723466+669954061+668578487+666997589+664890689+662779269+660416278
2660+658849517+659662196+662743323+667791822+674087560+680135617+685670126
2646+690975031+695863664+699744857+702338503+704370515+705888507+706700661
2633+707883312+710162744+712210470+712881045+712899124+711920430+709970190
2619+709508617+710799686+711407040+710539181+709563640+709569579+710220605
2606+710805887+711063239+710701254+709822831+708988921+708977885+710783920
2592+713203037+713939725+713364795+712710301+711930730+711355223+712197016
2579+714001159+715436853+716988321+718879439+720452402+721972758+723875070
2565+725540578+726200013+726215253+725813854+724943156+724877675+726261815
2552+726964290+725084997+721849364+719292138+717622110+716376710+715517049
2538+715061940+715249554+715453407+714924935+714153983+712583070+710743559
2525+710970483+712408489+713435637+714649820+716158037+717345576+717407746
2511+716395471+716389743+718042533+719910843+721891722+724064681+725960897
2498+727938254+730218737+732580467+734854012+736519573+737111004+737989637
2484+739964209+741258693+742031537+743262800+743429708+742615190+743018271
2471+745052385+747727909+750591099+753719260+757394236+761046981+763468516
2457+765019196+766903482+769014166+770589599+772100443+773656431+773762115
2444+772978078+772829458+771960915+769708181+767946080+766412217+763110315
2430+758968092+756071425+754183671+751622871+747637255+743656159+740713666
2417+738794170+738577967+738708824+737296043+736116755+736832316+738541075
2403+740323303+741883022+743330173+744393477+744479401+745310841+748748750
2390+752169842+752776198+752096583+751968039+751968879+751455174+750441218
2376+749886521+752734050+759380527+764904368+767536325+767249911+765244070
2363+772196931+785800052+788553984+782767379+778971532+776281609+773254244
2349+769506955+764766259+759918039+757132943+759491677+763370242+762070135
2336+759435340+761726228+765730448+766067049+765596017+766971591+768404027
2322+769929008+769086269+763474928+757476061+755433380+757045967+759713503
2309+759978737+756637841+752712661+750189542+748599237+747863443+746917963
2295+745303168+744850897+745212619+743826115+740431562+737326366+736680753
2282+737984907+738620850+737379655+735157506+732905401+730720933+728482913
2268+726246785+723880851+721611299+720136348+719464459+719211679+719254457
2255+718992743+717919402+716552867+715826060+716202024+716747997+716542409
2241+716522755+717450104+717947886+716221469+713065401+711340245+711882434
2228+712419263+711186423+708610382+705521740+702628175+700591117+699374306
2214+698226918+696953822+696517055+696947201+696824017+695139432+692040752
2201+688290836+684794699+682769045+682746658+683794774+684592317+685120264
2187+686053972+686101953+684394508+683031705+683380919+684324980+684633939
2174+684667415+685159206+685727198+685820585+685193365+684224814+683910127
2160+683915645+683258839+682673924+682777401+682288711+680740081+679362248
2147+678257690+676617039+675031832+674246375+673861740+673700876+673683008
2133+673277877+672597789+672227344+672405340+673064354+673709967+674121037
2120+674861350+675885397+676138544+675223230+673996854+673427390+673635132
2106+673895059+674030540+674304236+673818227+672676671+672289304+672174423
2093+671429117+670233958+668729682+667684036+668180188+669671799+670491625
2079+670168582+669747843+670449320+671921906+672336128+671411354+670770260
2066+671841815+674725974+677146142+677021907+676009527+676196353+676397052
2052+675624787+675516528+676498690+676892942+676687933+676681889+676572264
2039+676997733+678433900+679766590+680501123+680667505+680217704+679924827
2025+680202569+680342886+680263583+680955863+682675028+683908603+683484133
2012+682644705+682242149+680949189+678942455+678555244+680156323+681560222
1998+681352743+680023311+678687625+677873685+676712475+674894038+673864210
1985+673537331+672487743+671102921+670137628+669175278+668025998+667285212
1971+667275437+667703586+668586370+669142380+668100465+666696513+666586257
1958+667121982+667359154+666971365+666243244+665952206+665414169+663317359
1944+660249633+657525498+655081891+651695852+646702480+640939786+635476802
1931+630631630+626565083+623677613+622482664+622523025+622902615+624696352
1917+628163638+630847202+632008255+632547974+633368167+634835971+635703936
1904+635304218+634755303+635729582+638212446+639974494+640122063+639936866
1890+640881295+643343453+645779072+646901919+647248926+647780184+648799816
1877+649874944+650202139+649850770+649589319+649405436+648907602+648480504
1863+648841701+649491833+649404648+648701332+647376682+645672232+644544709
1850+643506262+641934719+641367357+642605557+643039540+641474775+639665482
1836+638585940+637452320+636260472+636203084+636445406+636097347+636030658
1823+635586953+633920394+631345404+628844357+627510931+627070800+626727471
1809+625633897+623201011+620122932+617509001+616081557+616060116+615718469
1796+612770406+609106204+608213750+607620375+604536252+601278232+599314959
1782+597187615+593850398+588816561+582272457+576396722+572666408+569183987
1769+565402960+562833015+560717234+558740664+557612510+556863946+556757421
1755+556595926+555561684+555663216+557325834+557773322+556209609+554028189
1742+552452756+550906806+547255322+542947031+542312717+542865469+540630234
1728+537219075+532953247+528127467+523448362+518628679+514931211+512924424
1715+509849130+505255214+500464697+495292961+489494531+484000856+478230594
1701+471362607+465047529+459484852+453330375+446515256+439439212+432587384
1688+425866834+419106921+412976068+407239072+400900845+393746917+386602816
1674+381054880+377039020+373200237+368597965+363256614+358490351+355660505
1661+354122517+352376104+349733295+347363840+349239428+351515943+350062644
1647+349665396+351937654+353511826+354546882+355757781+357419479+361986120
1634+367701989+371248841+374917299+380020690+385501227+391651158+397865413
1620+402497877+407899716+416207207+422923028+425936020+428033986+430917120
1607+434154171+437283621+440789796+444588139+447745258+450176936+452612292
1593+454718404+456007843+456898090+457728742+458818060+460022416+460411991
1580+459727068+459643194+461623441+462859434+461935185+461600633+462331172
1566+461805117+459892400+457279047+455708344+457085336+458028031+457688171
1553+456958158+455608861+454313273+452833330+450455414+447925357+447683771
1539+449335248+447825454+444050418+441841407+440739923+438086078+434688504
1526+432010537+429974688+428793114+427439008+424308823+420734145+417676272
1512+413966586+408962809+404162623+401538995+398179758+392388423+386127002
1499+379809979+372989710+365741896+357716902+348793674+339981989+332048911
1485+325140038+319107432+312514506+304565321+295850544+286169160+274474315
1472+261802038+251785525+245873659+244427717+246354676+247441944+246272615
1458+245939350+249320896+254167146+259138287+264500133+269507720+273634703
1445+276773008+278337614+277302558+274415456+271363049+268269756+265153314
1431+262214080+258823784+255165415+252014761+249271313+246597576+243953663
1418+241620785+239372386+237024557+235575383+235588337+236701330+238846305
1404+241389736+243089273+243890863+244153181+243632512+241776973+237608341
1391+230295703+219336390+205482919+191870260+182008475+178617102+182296295
1377+190830920+200894166+209158854+214891093+221227008+230825884+243279199
1364+257467550+271312047+281635154+287701788+290723373+291354218+289194791
1350+284021084+276543378+268295402+261363668+257410293+257398127+261041124
1337+265735574+269027754+270158614+269331405+267747616+265990430+263399701
1323+260071102+256638317+253050579+249162528+245480589+242858276+241324886
1310+240185512+239782930+241112625+243890679+247214732+251178302+256343495
1296+262442028+268195000+272785342+276946905+281457657+285800107+289287968
1283+292168001+294870694+297053349+298322135+299561413+302538958+307741279
1269+313572292+318701802+323336210+327743458+331865712+335668312+339224044
1256+342813989+345963908+347871817+349028323+350443180+352565794+355365999
1242+358135618+360171519+361415316+361871555+362115453+363042224+364229816
1229+365104297+366135544+367479428+368659741+369207290+368999627+368633937
1215+368911601+369688990+370078066+369841026+369116216+367566324+365670660
1202+364594507+364069293+362783506+360202499+356869460+353343314+349816066
1188+346580591+343531363+340271871+336269281+330139531+321029582+309049322
1175+293179251+272593051+249149915+226103476+206783605+193965060+188722680
1161+190584604+197568458+206834305+216713971+226309536+233897919+238245388
1148+240286203+240921358+238632809+231672196+220535359+206963336+193082972
1134+181328401+173605994+171674752+176224681+185082415+195561093+205633365
1121+212099835+212855901+209787768+205877264+201874318+197724987+194303869
1107+191926176+189700848+187104403+183558971+177913234+170395876+163084039
1094+158177472+156478580+157737893+162196958+169903087+179641490+190352412
1080+201341471+211667232+221225274+229629779+235560221+238733185+238979185
1067+235610541+228557252+217456557+201008469+178910689+154258717+132129668
1053+116344430+108310056+107647889+114619616+129689621+150913511+175631503
1040+201969387+227293117+248789691+265751182+279665128+292302273+304110238
1026+314338173+322343091+328563678+333978183+338715279+342135504+344162734
1013+345970897+348542445+350898105+352036507+352402249+352541015+352988503
999+353501289+353187758+352398123+351611090+350677014+349785900+348982707
986+347838761+345958022+343365559+340311207+336671810+332035826+326499687
972+320467791+313465741+304501232+292591525+275847314+252116766+221611801
959+188536629+159570559+140603109+134559716+140731154+156234511+177983418
945+202794599+227517912+249563954+267215097+280497357+290987924+300073935
932+307871742+313788784+317577379+319791435+321518535+323323834+324940310
918+326151708+326951038+327179171+326586741+325199422+323397303+321478253
905+319295624+316210161+312077712+307520347+302110940+294294162+283100330
891+268816885+252592738+235538937+218957338+205473749+199033332+203154994
878+217973862+238936959+259715108+276302133+287660455+294453134+298459798
864+301123707+302581263+303166440+303595692+303091867+300879625+298127243
851+296235021+295377909+294370285+292623950+290981775+289271991+286852716
837+283849683+280520821+277467810+274743334+271067781+265334306+257276809
824+245231909+227693307+209839362+201147603+205635967+219349226+234645853
810+245852612+252083053+255294406+257315172+258360372+258508308+258768340
797+259467925+260611083+262314929+263519153+263200604+261917313+260409648
783+258719492+257136808+256147525+255378675+253865203+251781872+250416494
770+250100073+250032306+249766650+249205306+248067219+246789841+245997763
756+245162802+244377214+244279755+243794454+242371741+241324098+240913791
743+240230339+239120999+238385731+238391538+237915986+236321924+234912112
729+234477552+234311195+233706547+232889428+232174287+231558892+231143382
716+230645312+229874229+229205124+229007998+229460190+230417363+231394638
702+231529988+230532691+229431260+228747099+228236101+228171697+228308571
689+228029147+227700060+227581659+227337261+227521170+228909645+230775564
675+232020150+231906635+230385963+229114050+229663360+229776322+229150574
662+228738980+228553941+228264321+228540855+229541621+230073036+230327472
648+231211438+231870163+232109148+233380929+235223278+236102936+236401752
635+236783207+237546670+238675534+239246890+239288617+239899676+241365904
621+242989343+243893490+244074141+244823520+246671833+248318475+249063492
608+249786831+251004956+252899148+255696778+258146061+259090175+259778855
594+261367609+262791006+263101647+263359734+264715127+267059514+269632454
581+271807779+273713743+275680852+277730391+279359769+280388152+281997349
567+284718699+287068078+287674277+287362769+287948892+289833572+292246147
554+294782983+297149495+298699912+299544070+300204976+301815540+305369906
540+308955358+310552310+310660806+310880241+312407535+314706989+317089976
527+319288871+320917671+323414304+327662080+330797809+331781469+334088833
513+337833283+339974553+341085470+343015293+344377098+344182363+344850731
500+347172731+348924794+349685655+350569333+351596875+353468233+357497284
486+361956244+365494082+370032634+375896597+381698995+386648537+390740047
473+394393502+397172108+398888697+400959179+405289489+410480591+412769167
459+413014432+415099023+418573562+420749648+421851499+423112875+424514384
446+426419901+428922131+430733920+431947237+433820066+435696075+436837946
432+438903618+442191935+446022520+452594739+462350196+471764532+480866020
419+491714525+502046015+511487048+521050319+529291094+534468243+536041153
405+539089539+549877609+564900291+578042050
##END=
