##TITLE=павел 7-многокр
##JCAMP-DX=4.24
##DATA TYPE=INFRARED SPECTRUM
##DATE=3/2/2015
##SAMPLING PROCEDURE=Instrument type and / or accessory
##ORIGIN=Default
##XUNITS=1/CM
##YUNITS=TRANSMITTANCE
##RESOLUTION=4
##FIRSTX=3996.3347
##LASTX=399.24773
##DELTAX=-1.928733
##MAXY=0.26344436
##MINY=0.083349682
##XFACTOR=1
##YFACTOR=2.4535168e-010
##NPOINTS=1866
##FIRSTY=0.26190329
##XYDATA=(X++(Y..Y))
3996+1067460725+1064648017+1065236771+1068668479+1070075561+1068183701
3985+1065556839+1061395717+1056363186+1055626970+1060118969+1065466224
3973+1068408416+1068328855+1068131834+1069252253+1069689658+1070467538
3962+1072580227+1073741823+1069608761+1060638730+1056502388+1059671482
3950+1063330213+1065418487+1065594251+1065869254+1068963038+1067148431
3938+1057485062+1050129338+1049154317+1050086460+1049491997+1048643909
3927+1050783321+1055556154+1061201733+1065135953+1064202716+1061862275
3915+1063366046+1063959780+1059392349+1054427840+1051354462+1050712384
3904+1053695875+1052937795+1049239951+1051244170+1052803451+1049894177
3892+1049721935+1051176512+1047663057+1045860232+1051164851+1054262887
3881+1052345032+1049849112+1047503205+1046647222+1046337357+1044637052
3869+1043184297+1043701993+1047622244+1051231294+1050252142+1046578228
3857+1040202020+1036557501+1049230963+1065072425+1064275961+1055021088
3846+1045658717+1039151810+1035743181+1035532192+1041983710+1050636709
3834+1052047193+1048608562+1044827392+1040799277+1038590507+1038042931
3823+1040117114+1049083258+1055686125+1055173166+1052661820+1045632966
3811+1035465749+1030713687+1037465837+1045382135+1044515462+1045256416
3800+1048549164+1046477167+1041693037+1036124104+1033172437+1034135920
3788+1034012509+1032007076+1029662869+1028923981+1034121101+1040813003
3776+1041736037+1040994962+1043709038+1049353888+1050284574+1042354672
3765+1033889948+1028999655+1028695743+1036760110+1043663366+1038003697
3753+1027572530+1026896805+1033009914+1033579233+1035147139+1042171499
3742+1039924466+1029312556+1024410724+1028943415+1034751883+1038735661
3730+1041553471+1038935476+1031162632+1026138360+1023942466+1018371589
3719+1012805754+1012329418+1013558976+1016139315+1022015258+1023092070
3707+1017672299+1014387932+1018403839+1024713057+1023113691+1015116435
3695+1007345535+999059732+990469896+989794292+996591446+997668501+993112731
3682+990992450+990531480+985458803+980502736+984501091+989999815+992852972
3668+993857510+991183519+987266851+984349195+981482859+977566921+975056728
3655+974096161+971655023+972182983+976335298+975415180+971430673+968328629
3641+964192104+959849753+955497563+948921297+944299267+943621659+944849516
3628+947778104+945400129+937765090+931504823+928515258+926216967+920433218
3614+913317940+906495702+898742779+895577328+897464634+897050976+893049159
3601+886490932+878725983+875137278+877205510+876582077+867338683+855140950
3587+849941522+850689278+846851261+838798069+833369856+830307775+827668766
3574+826009274+823016976+818586378+818306698+820881572+816963083+807448087
3560+799174613+793930485+789231869+781436007+772660567+768430999+766788451
3547+764028156+762353662+763247240+762539083+757746572+752257990+748782008
3533+745471646+739418482+730836480+723732316+721518384+722945023+723367549
3520+718616458+709426146+702172819+700550739+700360884+697513133+694208663
3506+692684850+690177877+684313413+677571951+672306020+667498447+663364291
3493+659724631+655312739+652684359+652407109+650809868+646369735+639891555
3479+633429470+629683464+629411862+629441440+624777381+614319188+604530768
3466+602289202+605932749+610011394+611482490+609920779+605612014+600896817
3452+599684447+600546443+599607558+594818084+587462117+582614035+580819105
3439+579566833+578620539+576759106+574712860+575795320+577129825+574037863
3425+569480150+566042915+563819994+563658746+562524419+559115973+556841671
3412+557453686+560395150+563110319+561891268+556127501+550325229+548977908
3398+550632481+551684210+552155687+552964055+553347954+553472033+554100447
3385+554621544+554047730+552847264+551880380+550461758+549168734+549538846
3371+550118430+550292614+552796247+557228363+559314512+558014381+556812397
3358+558469157+561292614+563123134+564715151+566030769+567298224+569098073
3344+569720959+570239748+572621245+574232090+574406275+575945090+578175542
3331+579571935+581762789+584729578+585455227+584161048+586013371+592231974
3317+597146378+598784007+599808952+600561870+600979415+601114670+601298268
3304+603956044+608782748+611654003+610768928+610397540+615193270+622930281
3290+629427653+633072415+633899368+633953057+634769016+637087715+640438585
3277+641523839+639507596+638039961+638819359+639644672+639785939+641415429
3263+645188765+648879199+651521609+654568810+658622250+663478349+667957656
3250+669739588+669156178+668985152+671222466+676652319+683297821+686648934
3236+686206913+685842570+687857782+691919360+695858742+699250912+703722566
3223+708821661+712930612+713796799+712611395+715566767+723051246+728708729
3209+730116298+729789975+729927659+732213014+737439954+742875698+746579554
3196+750375847+753709166+755180565+757082204+759451554+760788854+763204848
3182+768072062+774200475+779462702+781981336+782350537+782058590+781515325
3169+781775752+785321882+790530238+792762208+793685606+796458715+800453426
3155+804812115+806600303+805752883+808146891+814768646+820053041+821058065
3142+820433113+820191939+819138388+819615210+825133430+832067479+834561698
3128+832254843+829361177+830359277+835936774+840900615+839724564+835407539
3115+834660451+838018003+841594257+842510549+842131387+843325233+844455916
3101+843208867+841254997+841011029+843793370+848537780+851983578+853519477
3088+854772599+855867631+856687174+857425394+856465556+853125921+851582370
3074+854982010+859758912+861463287+860843741+860590419+860344447+860034947
3061+862024347+865524197+866598458+864526461+863159341+864916191+866630587
3047+864849565+861888060+862093340+865111329+866678141+864981783+863224813
3034+863795650+864733442+864116750+862238859+860688748+860550639+860725006
3020+860133822+859058468+857982021+856967279+854750856+850722195+846839903
3007+843475367+839851862+836785530+833168402+828085340+822900670+816520151
2993+805574629+789337728+770364826+749190322+724137411+694311243+659778623
2980+624055316+592229909+567880723+554090001+553451688+567129080+591945493
2966+622496216+654997895+684585318+707784812+726910460+743790715+755417063
2953+761544991+765684977+767760922+767153097+764822859+759586627+752590690
2939+747278662+742567048+737425621+734543677+733394713+731579317+730888651
2926+733190647+736260138+737559296+738228766+740536046+743232267+744280230
2912+745166459+746550766+746226872+744762335+743733564+741687318+738344768
2899+734395425+729233835+724752949+723643037+725197400+727780230+730157901
2885+730756190+729513818+728502234+729255031+731649889+735410714+740479807
2872+747079029+754196373+759024717+762375466+768019709+774357715+776608756
2858+776349969+778719866+783337888+787084744+790147797+793942754+797627235
2845+799961239+803014027+808353022+813323605+815821286+816027659+814580978
2831+814020465+816775658+821129367+824205295+825344541+825407826+825736639
2818+826803673+828803397+830797594+831513464+833221423+836137074+835863650
2804+832429088+830316885+830384057+830735099+832281262+836099723+839338297
2791+839552627+838234458+838020918+840128870+842697731+842373958+840219424
2777+839764831+840847959+841628814+841511051+840607756+839204925+838290941
2764+839424235+842084683+843270026+841338203+838248731+836117943+835071073
2750+835068340+836079620+837971663+839437779+839209237+838744684+839043373
2737+839476891+839547100+838762539+836958318+834412718+832519157+832718303
2723+834265499+835029713+834100788+833018389+832904878+833359228+834382654
2710+834711164+833200773+832077925+832008445+831280125+831935079+836065348
2696+839526693+837473827+831864628+828380021+829028719+831087659+832021928
2683+833287197+836188637+837858394+836468985+834316515+833084954+831792840
2669+830262103+829323582+828917759+829793420+831820353+832352260+830793343
2656+829174116+828899235+829427741+828891643+827735574+828355909+830769170
2642+832788754+832622708+831188356+830676976+831014414+831315532+830736981
2629+828565320+826710203+826848312+827545294+827582099+826765107+825476516
2615+825331362+826605498+828238450+829700679+829549452+826789765+823877514
2602+823435736+823957076+823321010+822034423+821051931+821294806+823027726
2588+824644219+824332958+822656277+822093456+822984240+823888689+824454486
2575+824036030+822392753+821178804+821738345+823446789+824021757+822302259
2561+819375129+816634755+815916152+817665288+819584479+819765162+817917334
2548+815052455+812827834+812703208+814035952+813491655+810899412+809920685
2534+811132812+812019770+811400284+809921596+809063487+809304965+809321242
2521+809108855+809410520+809076909+807918714+807307306+806774548+805276972
2507+804098978+804229677+804985996+805990474+806375709+805376150+803958136
2494+803854402+804942268+804540088+802704406+802461045+803636914+804307963
2480+803821242+802144926+800947618+801654074+803363915+805124166+805498651
2467+803612135+801662577+801140630+801270358+801269750+800598884+800216017
2453+801536008+802974672+802438999+801031916+799828657+797956109+796427802
2440+797133469+798648294+798985792+798656189+797878613+795833096+793074380
2426+790912072+789772522+789627368+790182658+790305280+789312827+788232554
2413+787780450+787876410+788073491+786925985+785035583+784741873+785993477
2399+787432202+788128273+787601589+786102981+784266023+782998325+783091794
2386+784008026+784027279+782616734+780700033+778361171+775327392+772623702
2372+771853475+775075225+781973076+786511841+789469399+797189283+800393785
2359+795446585+795226000+798823814+797953923+792468074+785237280+778798820
2345+777091104+781831445+785604659+783241989+778506750+774766150+772720937
2332+774247301+778713671+782644793+782227248+777324201+773992947+773027643
2318+770968400+769727242+770250465+770665216+770490910+770121527+769900455
2305+769800426+769295060+768204340+767254887+767039100+766638803+765547475
2291+764828204+764296114+762727480+760830396+760043042+759924125+759755285
2278+759694308+759067959+757789329+757355385+758121908+758703799+757849212
2264+755813595+753729268+752543439+752660534+753114642+752769248+752354010
2251+753063807+753996680+753350350+751382997+749543671+748561908+748209530
2237+747568545+746443692+745162329+744063045+744130764+745408544+746483230
2224+746256996+745287683+744912955+744819790+744315577+743788650+742948700
2210+741186203+739212048+738290350+738273831+737651551+735656868+733748427
2197+733527052+734016932+734362568+734849108+734832709+734443587+734119208
2183+733122808+731479531+730459627+730768701+730969731+729752198+728343597
2170+728021343+728215935+727785210+726898192+726410195+726017732+725269005
2156+724312082+723649900+724202579+725702524+726323163+725297550+724014911
2143+723458285+722732211+721162666+719412801+718488856+718261226+717301084
2129+715646814+714657945+714108911+713665250+714098647+715187727+715463276
2116+714276232+712602710+711113940+709943356+709730848+710338187+711174006
2102+712319022+713036107+711942411+709528725+707019566+704685927+703651568
2089+704177463+704459511+704029697+703469305+703099740+702824433+702103765
2075+701551086+701481971+700700933+698866163+697350124+697776354+699111953
2062+698468842+696426786+695760839+696112914+696136418+696258189+695896033
2048+694167304+692812331+693300267+693897524+692965076+691526594+690844067
2035+690697759+690064487+689005652+688753363+688733989+687926289+687640962
2021+688378392+688434328+687270120+686172113+685900146+685780622+684820905
2008+682929591+680854436+680013879+680930900+681762772+681230864+679895144
1994+678981828+679794994+681276597+681217017+679875527+678743690+677953117
1981+676995708+676481474+676316886+675157779+673303331+671969918+671285083
1967+671167988+671230666+671281925+671790450+671556260+670116138+669601540
1954+670286193+670911023+671452891+671961416+671542473+670215924+669086577
1940+667807279+666500285+665882318+664973071+664124619+664416263+664536577
1927+663492804+662202391+661762617+662294464+662976323+663358279+663117590
1913+661847462+660738036+660876267+661036969+660051015+658470719+657589835
1900+658117612+659171892+659210519+658477521+658221285+657896237+656599326
1886+655284862+654989756+655500771+656234801+656459638+655557375+653817167
1873+652247196+651768188+651979360+652048293+652566717+653226105+652476710
1859+650659552+649078588+647853585+647466043+648271070+648790223+647835244
1846+646866781+647502422+647843625+646564569+644925362+643506983+642300565
1832+641369575+640677512+639964011+639193176+638896916+638946111+638715869
1819+637868327+636453653+635145141+634785536+635266305+635608116+635339186
1805+634226481+632560246+631403144+631096924+630948733+630537322+630634861
1792+630846883+629052622+626061174+624302321+624287684+624819045+624646257
1778+622776260+619742299+618089973+619103196+620137009+619489950+617810050
1765+615120086+613454155+614135043+614293984+613637693+613322788+612145219
1751+610144462+608614393+607781125+607263429+606632404+605968765+605701596
1738+604626728+602693022+602779082+603919907+603408953+602218083+601046769
1724+600474109+599624807+597405287+596392063+597768415+597544003+594939430
1711+592107956+590478769+590728750+590247677+586608259+584408478+585946564
1697+586061776+585139896+583489574+580150304+576733476+573565414+571119661
1684+571059595+571082552+568690366+564829634+561164284+557966462+555330612
1670+555339600+557149592+556279822+553301128+550952124+548474728+544559700
1657+539854099+536313435+537117187+537882252+534741217+531447011+529479537
1643+527008943+523590293+519399048+515964972+515676668+516728336+516177662
1630+514777199+513972475+514343984+515556051+516232383+515549673+515821032
1616+519228872+522575673+523516441+523490568+524023751+525826576+528040326
1603+529666111+530624796+531238876+532409279+534409306+536018329+536075298
1589+535068876+534735447+535716543+536939359+537254689+536696180+537386664
1576+541073514+544161711+544612599+544446614+544044373+543326316+542519102
1562+541051407+541126839+544717790+545919714+543934748+541867671+540941661
1549+540927146+540607139+539668132+538921713+540128556+542575645+542017319
1535+540014072+539638312+539637219+538264633+537149862+537260459+536952477
1522+535950186+535792156+536184801+535454840+533188069+530976931+529184613
1508+527468638+527839054+528711192+527565751+525947436+524884047+524404796
1495+523060451+520042463+517528141+516448535+514848744+512774196+511290770
1481+509517888+506306917+502650160+500059982+497351645+492987642+488535545
1468+485412092+484383078+484960262+484298779+481951900+480962970+482799351
1454+483899940+483896599+484634637+486283471+487966407+488486684+487441636
1441+485490925+484072515+484290823+484528232+483260989+481431077+479538184
1427+477434332+475597071+474216256+472627730+471223776+470417685+469281020
1414+468185806+467546825+466999703+466872284+467175741+467298939+467092019
1400+466647113+465965375+465236659+464442989+462783557+459492448+454631430
1387+448890377+442999645+437604715+433998428+433804991+437111860+441799483
1373+445502276+447540050+448978016+450912421+453159271+455791508+459390719
1360+462634759+464073454+464297592+463776161+462231456+460223381+458574517
1346+456900235+454446556+452124973+451616660+452837290+454111183+454547830
1333+454429702+453863359+453073970+452584758+451951031+450414828+448280609
1319+446327741+444842038+443772879+442920388+442007952+441125732+440257541
1306+439497881+439724783+440991146+442152013+442829530+443589037+444503204
1292+444827584+444484164+444494124+445177927+445791916+446042899+446330170
1279+446735326+446967694+446835962+446507847+446559501+447031373+447574790
1265+448268826+449136076+449786779+449875997+450194091+451378948+452306749
1252+452245043+451595980+450539180+449313844+448559954+448604745+449227663
1238+449627838+448847529+447948880+448515254+449074127+448330896+447851979
1225+448293059+448504231+448308820+448256497+448062058+447135289+445783839
1211+444930042+444905475+445441634+446151643+446636694+446516016+445624594
1198+444622759+444042659+443420987+442598984+441742910+440966427+440734514
1184+440698013+439947555+438709647+437350878+435673044+433454374+429820453
1171+424095434+416957137+409640040+403634886+400364123+400465853+403210326
1157+406393359+408558370+410122662+411538642+412822162+413989194+414480015
1144+413466275+410911200+407581222+403942109+399502310+394361611+389872982
1130+387015635+386620956+389162548+393045356+395989674+397443613+397774673
1117+396936971+395668392+394526959+392743661+390734553+389235641+388041066
1103+387177855+385653556+382497338+378561691+374794611+372084300+371243986
1090+371984241+374254444+377865650+381765009+385822852+389708636+392230459
1076+393343286+393980111+394908186+395951351+396345393+395885880+394579312
1063+391928339+386939991+378606027+367756768+357277349+348997407+343917655
1049+343720543+348496474+356214536+364509631+372079168+378697795+384206329
1036+388807346+392675426+395526427+397106661+397317287+397398093+398449123
1022+399172494+399104928+399305805+399387492+398984584+398593791+398206218
1009+397833798+397569818+397431436+397419046+397134022+395969116+394068267
995+392991182+393275204+393332870+392815843+392320558+391481975+390705462
982+390522136+390459125+390553748+390795955+390449286+389179098+387172997
968+385058850+383591277+381721402+377134171+369831590+361414450+352216941
955+343617781+339715143+342352118+348341663+354628805+360944886+366544702
941+370257334+372658509+374484868+375586277+376519605+377663801+378461632
928+379049870+379418616+379206047+378988225+378812491+377965740+376874838
914+376438434+376507489+376792665+377350900+377716275+377399153+376489420
901+375150845+373899393+373534352+373305780+371955059+370127667+368171155
887+365090034+361052658+357507864+355900026+357016041+360020972+363281926
874+366243280+368573669+369441253+368986720+368748370+369456831+369807387
860+369139102+368274251+367793391+367881819+368130373+367922086+367412711
847+367269531+367611098+367770433+367347816+366685301+366245314+365797827
833+364853962+363474088+362263115+361878457+362058351+361287850+357901693
820+353111976+350827501+352589573+356099931+358698279+360358986+361495924
806+360893900+359425263+359610714+360998089+361391341+360962985+361749731
793+363498594+363861783+362481119+360829036+359801115+359614723+359746363
779+359729206+360079519+360490202+360230169+360189204+360870214+361099059
766+360495728+360176511+360628341+360967813+360823357+360758828+360274596
752+358844040+357773939+357853531+358227986+358231265+357857327+357339328
739+356891142+356820174+357500515+358343107+358352247+357853622+357704854
725+357975454+358105000+357670995+357555358+358502594+359220438+358952450
712+358678419+358717197+358358503+357771935+357803122+358025195+357612235
698+357292350+357943022+359118648+359711684+359068786+357807313+356982516
685+356873559+357302219+358278759+359403429+359676368+359443483+359691308
671+360384464+362811785+366414944+366225667+364473950+363737400+363616448
658+363026843+363131002+364197307+364591166+364610237+364728698+364100679
644+364061111+365727588+367248942+368015221+368960544+369522150+369319846
631+368886874+368855353+369784521+370832666+371391843+372380408+373676136
617+374027238+373674526+374322557+375667023+376108103+376806056+378962200
604+381071883+382480211+383588756+383810161+383341721+383779795+385151712
590+385918660+386749378+389249002+391976835+393028442+393440035+394768407
577+396580554+397474800+397702795+398793910+400001846+400314079+401301278
563+403572027+406246170+408924959+411310647+412995496+413784095+414330336
550+414894766+415228651+416135013+418265042+421547070+425284482+428073109
536+429567891+430712330+432238451+434147135+435491540+436035564+437817102
523+441674827+446082224+449665220+451127176+450842455+451230514+453010382
509+455432935+458426812+460840346+461766902+463919797+469110692+474821985
496+478661156+480796742+482294318+483580145+485513092+490180917+496861189
482+500608743+500899931+502342634+505675832+509226213+512395398+515561152
469+520665471+527394360+533675398+538298401+540849528+542925837+545954332
455+549978499+554159359+557446884+561079013+566603732+574641437+584701519
442+592645268+595137240+595739721+600668033+608012156+611239433+612417124
428+616621913+624480089+633704412+640765455+646023734+651368984+656787236
415+662511587+669174459+677692508+685877310+692650900+699618595+703945763
401+707756389+719127291
##END=
