##TITLE=33
##JCAMP-DX=4.24
##DATA TYPE=INFRARED SPECTRUM
##DATE=16/11/2015
##SAMPLING PROCEDURE=Instrument type and / or accessory
##ORIGIN=Default
##XUNITS=1/CM
##YUNITS=TRANSMITTANCE
##RESOLUTION=4
##FIRSTX=3996.3359
##LASTX=399.24785
##DELTAX=-1.9287336
##MAXY=1.1797991
##MINY=0.077642821
##XFACTOR=1
##YFACTOR=1.0987735e-009
##NPOINTS=1866
##FIRSTY=0.20394021
##XYDATA=(X++(Y..Y))
3996+185607142+185753811+185932011+186123908+186320430+186514632+186696318
3983+186881597+187049340+187149968+187257593+187481523+187756742+187980414
3969+188190986+188407484+188567294+188694678+188852414+189018842+189178191
3956+189352431+189539568+189738083+189959273+190188044+190380552+190544390
3942+190728503+190919084+191088781+191228520+191358183+191538240+191742126
3929+191896267+192028765+192192548+192355030+192474983+192614207+192811189
3915+192982256+193099293+193243195+193406477+193521575+193665016+193932899
3902+194267342+194568506+194759074+194812547+194831560+194937640+195081434
3888+195202376+195404729+195648703+195777566+195881936+196046940+196188863
3875+196305100+196469792+196731274+196994193+197111257+197176380+197312797
3861+197432749+197422171+197369403+197614326+198251858+198688407+198597856
3848+198375242+198344687+198473699+198613045+198745610+198977473+199273754
3834+199510228+199673863+199770801+199817087+199859644+199913728+200075301
3821+200390487+200665856+200855908+201025524+201072962+201021781+201092098
3807+201358529+201578228+201650579+201776824+201960788+202112665+202270129
3794+202385904+202433221+202482206+202584148+202739076+202866027+202917792
3780+203012560+203207509+203369136+203430014+203493130+203665376+203887218
3767+204038254+204134256+204231493+204369293+204557596+204685645+204700020
3753+204790178+205105974+205396505+205461777+205620733+205936882+205951813
3740+205666585+205518451+205727856+206160323+206506348+206569952+206492597
3726+206533119+206698720+206825698+206853079+206805057+206702544+206623033
3713+206723416+206989536+207172591+207151516+207013743+206892502+206814808
3699+206684982+206463751+206193807+205901350+205636410+205501662+205461398
3686+205343289+205142089+204974779+204872063+204907459+205195685+205492047
3672+205522601+205506178+205563693+205505920+205286792+204984991+204679271
3659+204486547+204438878+204313012+203948977+203609421+203550184+203523386
3645+203218060+202710977+202209237+201778533+201374030+200960129+200510358
3632+200066296+199785190+199594202+199146573+198402202+197639252+197082859
3618+196657756+196093633+195361969+194640762+193999148+193362320+192637234
3605+191819034+190959932+190085057+189215987+188372535+187540963+186672897
3591+185727732+184721012+183711199+182742695+181812150+180913503+180052746
3578+179161787+178157711+177070869+175946379+174808924+173740620+172768590
3564+171774658+170681754+169552354+168424217+167263924+166053671+164794866
3551+163515598+162203958+160841963+159546447+158407094+157293955+156041851
3537+154693024+153416807+152248052+151081372+149833363+148459936+147005166
3524+145644460+144449111+143255172+141913343+140462723+139026831+137679402
3510+136388620+135086106+133728641+132310461+130946852+129696456+128431794
3497+127124995+125879427+124702725+123490871+122206056+120947495+119748159
3483+118481123+117122003+115846532+114693902+113492965+112152805+110695818
3470+109233033+107987038+107000605+106013895+104848673+103628425+102514242
3456+101460306+100351602+99187017+98037534+96947050+95908039+94897772+93888644
3441+92825622+91663669+90509926+89550495+88747898+87956414+87195057+86489811
3425+85748146+84944721+84152600+83402994+82656447+81829092+80945776+80168715
3410+79562659+79060241+78506527+77702627+76737514+76025969+75694611+75378462
3395+74819743+74199251+73849517+73732229+73518918+73116958+72693381+72369278
3379+72136432+71940893+71747498+71474862+71060506+70699360+70663171+70889942
3364+71097577+71172749+71219333+71326592+71456119+71498160+71442246+71493143
3348+71783897+72146800+72422345+72656819+72894758+73197399+73688072+74295410
3333+74830206+75249776+75605185+75971003+76464586+77124583+77820457+78454301
3317+79062893+79670847+80248166+80751661+81181213+81634863+82297233+83278037
3302+84419574+85413269+86135873+86758372+87490090+88388013+89404064+90417036
3287+91353087+92288189+93302761+94366054+95386357+96326368+97233837+98162809
3271+99222746+100509399+101894461+103198046+104408367+105617238+106889522
3258+108189961+109518261+110917856+112323498+113670290+115032007+116536412
3244+118161285+119747372+121259155+122769257+124271804+125807848+127534529
3231+129436995+131314630+133078903+134794707+136528725+138287112+140085534
3217+141957568+143882167+145801368+147701624+149620961+151562227+153498516
3204+155419182+157338085+159302853+161315291+163321002+165300363+167256004
3190+169187804+171113163+173039402+174973522+176938833+178913596+180864531
3177+182810083+184769712+186741152+188718099+190680671+192591979+194434001
3163+196236885+198036404+199847303+201653807+203378819+205031467+206783087
3150+208672371+210528538+212257850+213893599+215462395+217025739+218679363
3136+220393811+222048357+223604961+225126427+226659027+228171732+229608099
3123+230929164+232175288+233462776+234868737+236376031+237860243+239204716
3109+240461988+241729403+242990418+244203669+245357736+246461111+247581166
3096+248758722+249907881+250930563+251851696+252751185+253667165+254593234
3082+255497551+256390964+257341770+258347284+259293994+260097738+260781569
3069+261426479+262116251+262851725+263547681+264173442+264761637+265303994
3055+265768100+266189297+266628179+267045117+267342117+267520290+267682839
3042+267887756+268095330+268229156+268244779+268174883+268070431+267908668
3028+267612943+267178211+266676295+266098027+265371992+264462440+263327847
3015+261982642+260537948+259003829+257234118+255077466+252445533+249309460
3001+245622026+241250081+236043554+229827445+222344543+213368561+202715479
2988+190177127+175695787+159655144+143056290+127470518+114609399+105729481
2974+101272356+100742550+102938043+106651482+111327403+117190693+124826380
2961+134353548+144880384+154894645+163035421+168520274+171122846+170911447
2947+168167129+163474343+157774593+152356545+148523554+146964454+147448957
2934+149160137+151401698+154082154+157434305+161494766+166079953+170913373
2920+175651983+179963781+183567961+186260542+187967938+188720201+188617051
2907+187867419+186776928+185631445+184574004+183574457+182509978+181226708
2893+179502713+177095551+173874636+169807869+164999213+159995025+155995619
2880+154482372+156300932+161059044+167642361+175152820+183123547+191261081
2866+199290462+206926447+213975417+220422942+226390534+232054454+237574852
2853+243031971+248393101+253541150+258360574+262792786+266795556+270383693
2839+273679874+276784294+279732783+282601230+285480528+288364273+291175138
2826+293887654+296509524+299008255+301377363+303634751+305747761+307729957
2812+309689802+311713767+313817881+315988746+318217302+320462348+322637308
2799+324701606+326677779+328544999+330234100+331724632+333079547+334387730
2785+335632362+336739506+337736232+338658314+339491215+340245839+340931759
2772+341561480+342158002+342712564+343224787+343712436+344171551+344614230
2758+345049450+345448894+345826748+346222829+346626396+347024403+347428513
2745+347844394+348308988+348863903+349494139+350193322+350974825+351839433
2731+352759292+353635210+354405267+355160270+356017636+356994643+358098696
2718+359362097+360719942+362049172+363262504+364312120+365222702+366104669
2704+367063802+368089793+369120803+370132663+371107202+372053126+372999375
2691+373925255+374772097+375521459+376216737+376895469+377538426+378123800
2677+378735050+379505893+380444684+381433164+382383644+383303014+384213407
2664+385097299+385928302+386715121+387485693+388243245+388981812+389722602
2650+390486610+391244597+391963092+392645080+393307402+393973930+394640592
2637+395278721+395884519+396475155+397061940+397645551+398233692+398834879
2623+399442440+400054992+400668873+401246490+401766714+402269417+402790997
2610+403319901+403826536+404303851+404761855+405195691+405621418+406080750
2596+406560127+407022524+407460050+407870045+408307380+408807262+409291602
2583+409730836+410183117+410668759+411166443+411660060+412150475+412646478
2569+413146713+413629724+414090602+414562194+415040161+415464640+415830315
2556+416173425+416482033+416773988+417097460+417443770+417819454+418278108
2542+418814037+419383110+420018120+420745051+421493598+422210439+422913474
2529+423622964+424341270+425071645+425805519+426515226+427188751+427849338
2515+428505531+429151635+429825214+430553555+431320194+432099038+432842704
2502+433532611+434245329+435055094+435900851+436686477+437424419+438173564
2488+438961413+439755203+440502828+441220401+441961626+442755090+443585306
2475+444398542+445174864+445956964+446787559+447644139+448466137+449265622
2461+450105331+450978700+451827631+452630154+453399397+454142059+454867688
2448+455589872+456296921+456966811+457597698+458205314+458801537+459381107
2434+459930516+460454483+460976986+461491351+461964164+462389674+462782201
2421+463161168+463553967+463974974+464443501+464989872+465594992+466218176
2407+466877109+467590125+468333465+469091127+469826004+470520143+471179509
2394+471823741+472454411+473034469+473497897+473794788+473942502+474029242
2380+474160952+474383146+474666693+474997868+475417031+475939533+476469685
2367+476886081+477288807+478003234+479193728+480624914+481956775+483046425
2353+483791067+483898312+483402336+483009863+483542726+485025826+486622301
2340+487792724+488635010+489283365+489741531+490158524+490702779+491273344
2326+491722777+492162011+492783893+493572583+494318147+494869075+495293446
2313+495764251+496374633+497107124+497903626+498696167+499436687+500138637
2299+500850948+501612081+502409722+503172536+503856314+504489317+505096878
2286+505671023+506205839+506720530+507256703+507817178+508344834+508807231
2272+509225743+509617457+509980584+510318811+510645917+510980022+511352912
2259+511814333+512384573+513038135+513763140+514547436+515342039+516156605
2245+516943993+517724438+518473691+519195712+519899507+520566468+521252469
2232+522005791+522743109+523386744+523989044+524641629+525364735+526094894
2218+526774331+527412976+528045490+528684948+529315239+529933812+530544302
2205+531152731+531786656+532454919+533151824+533885129+534675826+535504496
2191+536306910+537059906+537784748+538511435+539255914+540025401+540809535
2178+541558896+542265457+542974513+543696480+544425500+545165368+545893031
2164+546602901+547320691+548028228+548716617+549428440+550156536+550847908
2151+551504074+552151181+552778379+553384639+553996105+554622219+555246867
2137+555881606+556585075+557364977+558180303+559019822+559874639+560745458
2124+561653979+562595644+563552336+564510004+565433931+566293738+567108684
2110+567920158+568730329+569519128+570286445+571029731+571765260+572529431
2097+573305590+574070032+574803662+575517438+576234577+576935225+577597141
2083+578250432+578920539+579572257+580182096+580785155+581406820+582035429
2070+582636263+583186974+583762530+584470284+585279045+586096161+586908611
2056+587721333+588530636+589355238+590190526+591012795+591826004+592619414
2043+593356733+594038395+594698466+595358701+595996369+596609029+597276424
2029+598047701+598883260+599732327+600565499+601349361+602100784+602897015
2016+603733984+604551046+605360566+606184680+606956770+607633767+608295954
2002+608996982+609687541+610325534+610903259+611468942+612129448+612862156
1989+613517996+614083733+614655492+615262130+615847071+616396154+616982667
1975+617645017+618324292+618924042+619459401+620070597+620805040+621550496
1962+622224672+622854528+623468490+624050773+624580273+625039144+625397171
1948+625626309+625729594+625776789+625851377+625893202+625799518+625588065
1935+625314608+625028512+624792160+624729722+625018856+625833639+627223543
1921+628962361+630909649+633017777+634969676+636611501+638123840+639614101
1908+641026355+642303318+643484861+644636135+645730830+646731462+647687665
1894+648615660+649499228+650460096+651522949+652487343+653331907+654181571
1881+655045447+655901403+656770106+657616298+658305337+658934922+659865359
1867+661063990+662152501+663034875+663856981+664740603+665703967+666648670
1854+667485151+668219703+668866864+669434175+670146160+671216987+672319981
1840+673168234+673973632+674846839+675627663+676346158+677252130+678247824
1827+679123309+680074305+681135096+682089672+682962498+683868687+684742327
1813+685521687+686344010+687282149+688182858+688905965+689546345+690373062
1800+691394144+692237298+692758010+693370182+694409600+695513300+696275409
1786+696876298+697577326+698364877+699155954+699817816+700256996+700742611
1773+701588965+702564534+703341507+703932089+704418789+705015664+705804137
1759+706584907+707358463+708105708+708738006+709516172+710593563+711665908
1746+712521375+713254517+714032521+714782588+715207989+715586087+716532906
1732+717703600+718545886+719221798+719779506+720106287+720187820+720175886
1719+720518886+721352981+722140207+722546404+722665747+722641227+722596528
1705+722482177+722247398+722241702+722536640+722741963+722875247+722776139
1691+722166408+721202772+720150010+719428043+719224185+718883028+717958016
1678+716824535+715918835+715166979+714326646+713636033+713239925+712737331
1664+712089031+711626633+711219296+710424313+709271466+708621267+709029527
1651+709244614+708565448+708095185+708300996+708472415+708334574+708224834
1637+708748150+710276654+712045037+713281966+714443438+716039263+717977165
1624+720129993+722239423+724032163+726146421+729164535+732269389+734801779
1610+737088650+739382139+741636028+743837948+745981012+747969581+749752013
1597+751421884+753087686+754714756+756216137+757599749+758905355+760109790
1583+761157562+761972182+762583323+763420835+764638507+765478569+765752405
1570+766198746+766949463+767423578+767282700+766708392+766608849+767577475
1556+768517839+768708515+768588576+768473845+768312353+767896879+767274942
1543+766935630+767347199+768104914+768136377+767464263+766889141+766438027
1529+765673205+764689770+763764270+762917807+762148971+761378779+760444057
1516+759371115+758082326+756344485+754220462+752247624+750752373+749002814
1502+746246657+742590333+738249038+733154855+727102950+719685443+710450840
1489+699976161+689769461+680655611+672441331+664740548+657553155+650932095
1475+644247405+636091385+625911157+615322724+606001923+597847097+589440893
1462+579767490+570181370+565093859+568711397+579097979+591171737+602308711
1448+611948373+619874333+625705834+629452859+631602052+633043544+634668065
1435+636337990+637325440+637659924+637781490+637899910+638216385+638864793
1421+639895477+641675685+644375535+647476972+650649146+653945327+657354450
1408+660803770+664261768+667476797+669955701+671535305+672210674+671577455
1394+669099908+664389465+657093795+647081569+635563296+625541033+620203121
1381+621645916+629888892+642705230+657680580+673378548+688889799+703754323
1367+716961833+726920139+733243711+736667263+738054998+738252401+737937554
1354+737351529+736388653+734946292+733340215+732388785+732646402+733718639
1340+734916023+736120621+737524846+739221895+741299754+743881617+747020104
1327+750655109+754683076+759009400+763584172+768386942+773340897+778356965
1313+783402814+788406025+793202449+797672634+801753762+805441007+808826316
1300+811947552+814788009+817398297+819843839+822098704+824059282+825603898
1286+826510574+826406475+824988037+822317101+818929839+815893065+814626300
1273+816248163+820934791+827812057+835578749+843226587+850230627+856388692
1259+861573033+865721807+868948010+871349287+872813455+873196978+872507938
1246+870815555+868225664+864994144+861612958+858846765+857686920+858978313
1232+862927677+869028078+876321361+883800546+890720341+896678888+901622320
1219+905742397+909267879+912302864+914875885+917095869+919149100+921095900
1205+922777433+924133163+925399168+926769435+928088928+929208251+930175141
1192+931129120+932105666+932951261+933526816+933943321+934406586+934934622
1178+935350801+935565075+935647855+935579179+935212473+934466583+933409210
1165+932126605+930569187+928706904+926747520+924967800+923444449+922073531
1151+920691655+919100170+917048133+914379637+911171064+907574302+903694211
1138+899675358+895795212+892241739+888865707+885597462+882706828+880243222
1124+877788241+874854969+871126876+866289225+859672180+850117740+836343462
1111+817260511+791769527+758794095+718505581+673559026+628106460+585360849
1097+546955937+514764476+492107981+482324132+486528835+502962765+527748002
1084+555954785+582284149+601310846+607824606+597872485+571865779+538752072
1070+514090843+507857700+513276386+511228362+486055371+436360672+373369228
1057+312162766+264434585+236843310+232820551+254080496+300453762+368541450
1043+451162623+538877056+622464604+695045586+753446310+798070803+831135796
1030+854448240+867728277+867978299+850352736+812319032+762239997+722908392
1016+716709533+745303256+791267692+837283663+876567314+909084634+935950877
1003+957796928+974828384+987117609+995272489+1000454768+1003433445+1004221321
989+1002639276+998652156+992029089+981798086+965839735+940572355+900887822
976+841940564+765593246+688217576+637621137+635346255+680840157+753827446
962+830496175+896349991+947210611+984288110+1010334254+1028159987+1040415145
949+1049266442+1055888858+1060707902+1064186515+1066942672+1069196073
937+1070851026+1072004307+1072887440+1073542413+1073741823+1073290817
926+1072313187+1071079621+1069543250+1067306232+1064142358+1060090794
914+1055176167+1049437536+1043086135+1036665951+1031058054+1027094368
903+1024690596+1022133198+1016603850+1005459336+986735497+958741794+920679395
889+874747778+826391340+782070628+749808212+741755913+767917438+823446785
876+889165473+946752228+988665805+1015819988+1031790490+1039367645+1040168649
862+1036283947+1031702719+1031134975+1036382241+1044995505+1053480421
851+1060103162+1064440931+1066604933+1067311657+1067408650+1067188192
839+1066496006+1065267648+1063728457+1062164096+1060585956+1058720635
827+1056534174+1054392088+1052380518+1049940075+1046593282+1042617662
816+1038407047+1033662755+1027755959+1020590644+1013006221+1006610881
804+1003043304+1003001100+1005735776+1009423455+1012365678+1013786286
793+1013699708+1012685298+1011377414+1009826289+1007794323+1005379268
781+1002820893+1000211201+997360763+993938567+990225609+986923190+984301021
768+982108376+979878844+977215665+973776110+969324532+964277435+960077778
754+958397004+959338615+961087089+962031846+962042370+961458135+960421050
741+958991220+957238081+955348240+953422055+951392692+949338919+947470560
727+945753441+943958966+941822195+939601776+937502219+935656101+933901443
714+931984805+929960107+928046615+926288703+924563989+922771141+920915150
700+919114057+917513568+916122904+914779326+913373690+911996371+910742300
687+909517142+908282111+907199622+906263164+905233294+904054137+902877801
673+901711881+900588544+899855781+899641291+899531984+899383348+899107396
660+898694472+898371488+898195187+898073892+898098465+898360747+898728539
646+899082118+899467593+899935904+900500067+901188836+902027270+902985046
633+903994140+904996616+905934973+906863076+907963521+909213361+910265690
619+911260679+912891113+915067266+917008750+918516586+920028003+921800237
606+923557390+925081175+926749690+928829284+930876765+932704331+934833941
592+937333729+939576280+941408511+943308224+945428612+947496815+949441987
579+951500860+953846480+956310357+958488246+960343260+962329117+964531309
565+966534091+968336269+970372358+972650820+974795836+976820751+978982041
552+981193346+983233775+985273553+987454046+989499899+991349597+993206022
538+995139802+996985052+998533139+1000117897+1002104947+1003990774+1005250378
525+1006148700+1007133709+1008214191+1009185421+1010174552+1011528111
513+1013034863+1014139213+1014742977+1015110009+1015433210+1015709108
501+1015861758+1015875319+1015495268+1014281882+1012292011+1010026025
490+1007728251+1005278152+1002658587+1000449560+999500897+999698355+999956785
476+999525634+998092874+995475480+992198773+989006907+986608126+986195527
463+988137661+991371079+994784487+997444194+998717469+999095133+998901365
449+997566466+994923575+991394188+987645102+984027619+979910090+975517858
436+972517157+971673840+972547318+974768713+978111601+981841267+984968145
422+987585431+990763193+994969143+999284779+1002422290+1003796354+1003967122
409+1004014317+1003730824+1002760788+1002267253+1002339401+1001901089
##END=
