##TITLE=33
##JCAMP-DX=4.24
##DATA TYPE=INFRARED SPECTRUM
##DATE=16/11/2015
##SAMPLING PROCEDURE=Instrument type and / or accessory
##ORIGIN=Default
##XUNITS=1/CM
##YUNITS=TRANSMITTANCE
##RESOLUTION=4
##FIRSTX=3996.3359
##LASTX=399.24785
##DELTAX=-1.9287336
##MAXY=1.1811521
##MINY=0.075592637
##XFACTOR=1
##YFACTOR=1.1000336e-009
##NPOINTS=1866
##FIRSTY=0.22242513
##XYDATA=(X++(Y..Y))
3996+202198486+202305880+202445554+202608974+202809632+203029458+203237160
3983+203450633+203636106+203731322+203819588+204037667+204361486+204656006
3969+204874436+205051091+205203024+205365035+205600737+205906053+206191320
3956+206386492+206497828+206606887+206784260+206986219+207152470+207310756
3942+207499182+207713346+207924624+208094330+208257018+208490255+208735439
3929+208878635+208964572+209108946+209287307+209429758+209612698+209896543
3915+210172436+210330831+210397220+210440568+210497434+210622614+210847344
3902+211124795+211397410+211584942+211648622+211718330+211914193+212124713
3888+212248281+212402178+212594790+212727962+212874761+213026328+213119593
3875+213246560+213416916+213602132+213801341+213924421+214019148+214187675
3861+214321795+214283108+214163049+214299864+214848684+215330072+215364940
3848+215205150+215153322+215271065+215466373+215680631+215953829+216233827
3834+216452705+216650857+216797453+216848928+216853561+216863625+217014732
3821+217341748+217615068+217839595+218077220+218120297+217986516+217965546
3807+218165012+218351204+218462539+218721188+219029606+219206748+219329123
3794+219419178+219488751+219596916+219717449+219825385+219929852+220020543
3780+220141293+220308005+220433835+220498544+220593015+220779775+220980474
3767+221099517+221151805+221189802+221309359+221528264+221665026+221654392
3753+221736969+222073319+222373988+222435446+222602659+222906769+222827497
3740+222423824+222258358+222547161+223028061+223354427+223390554+223289270
3726+223282822+223408151+223566207+223674819+223670674+223529510+223339486
3713+223304835+223445999+223498056+223341369+223100736+222891896+222644327
3699+222212681+221619795+220986231+220373175+219834704+219490417+219340136
3686+219177312+218895811+218580701+218328433+218237078+218380328+218526124
3672+218489076+218524201+218641415+218560247+218321470+218101075+217930584
3659+217832361+217846259+217803603+217555614+217366944+217470179+217548787
3645+217283934+216839595+216458435+216137311+215763019+215288770+214732025
3632+214224724+213980109+213841193+213356758+212574931+211864547+211348658
3618+210836276+210109691+209221663+208366796+207623738+206914478+206098719
3605+205138829+204148962+203233557+202376035+201501038+200541067+199458409
3591+198313358+197219470+196169959+195054086+193887631+192766380+191666681
3578+190523661+189362382+188199856+186979989+185729427+184555875+183428067
3564+182201997+180868898+179570329+178357384+177093953+175677018+174177641
3551+172712238+171269457+169784940+168326676+166991952+165692015+164266532
3537+162723902+161203583+159755492+158330727+156900490+155409512+153818509
3524+152227290+150745103+149335686+147879481+146323413+144732181+143208475
3510+141767062+140337895+138853635+137292773+135767916+134382801+133040762
3497+131643387+130221982+128831773+127448500+125990831+124497036+123088960
3483+121701894+120238319+118829972+117541955+116247395+114845645+113277116
3470+111618010+110133941+108929070+107793026+106555895+105271807+104016429
3456+102785272+101572740+100364225+99142686+97959109+96829961+95681888+94507699
3441+93325931+92062832+90788436+89723767+88835901+87937077+87029624+86199472
3425+85422109+84609438+83764995+82970604+82191379+81315705+80407920+79604257
3410+78891597+78223395+77532924+76661666+75661578+74901872+74532111+74221641
3395+73649461+72938731+72449297+72211225+71962850+71607909+71202156+70777120
3379+70400023+70143718+69942700+69636830+69191549+68804991+68718479+68922774
3364+69144456+69195281+69194441+69282714+69372444+69339750+69278874+69442552
3348+69871204+70272859+70467828+70598074+70791831+71091267+71546694+72091382
3333+72617106+73106059+73553304+73983115+74492333+75092005+75683665+76255615
3317+76878525+77577687+78273732+78843671+79284712+79737835+80416393+81425509
3302+82555484+83494940+84213669+84898017+85675204+86594747+87668424+88804441
3287+89878788+90890397+91900143+92908677+93904214+94907966+95923544+96923747
3271+97993326+99285306+100721375+102114205+103460795+104827285+106192074
3258+107515135+108856693+110308672+111831300+113305563+114746298+116307188
3244+118015107+119740148+121413579+123022814+124563791+126157557+127975484
3231+129970065+131953430+133879509+135798178+137706904+139609481+141563126
3217+143600079+145693601+147772805+149787597+151778386+153804245+155875660
3204+157972772+160090040+162231028+164378937+166540122+168708039+170839260
3190+172966932+175165287+177397183+179571643+181684089+183781986+185902831
3177+188063921+190240562+192387631+194494293+196588181+198694694+200804011
3163+202874572+204888443+206878906+208853697+210750354+212598583+214566668
3150+216644558+218643068+220548164+222421033+224199351+225914504+227728895
3136+229647835+231508933+233223977+234848127+236469432+238129073+239779177
3123+241310184+242733174+244188242+245758505+247425542+249067789+250554961
3109+251933954+253329283+254739675+256081091+257343425+258621553+259948258
3096+261226819+262389129+263465881+264546182+265674572+266785595+267817700
3082+268772049+269699984+270702639+271807756+272894587+273829511+274608087
3069+275350088+276151258+276957820+277678418+278299886+278852729+279387800
3055+279906236+280358648+280768011+281172281+281506924+281730055+281918725
3042+282110511+282233889+282219340+282078840+281879875+281654576+281371354
3028+280951480+280329660+279513534+278516731+277346024+276022624+274502481
3015+272728999+270726372+268476311+265856415+262763976+259154375+254952132
3001+250033870+244325382+237786926+230240585+221357854+210863003+198682868
2988+184859280+169449634+152729620+135559117+119470689+106190428+96880467
2974+91885791+90928441+93041321+96872252+101660079+107603510+115303056
2961+124915786+135632563+145923086+154284861+159909714+162671994+162655129
2947+160032334+155246972+149242990+143566620+139762104+138468154+139282356
2934+141305560+143843286+146811845+150417057+154696851+159494364+164549957
2920+169553167+174156929+178018231+180894473+182652607+183293270+183002246
2907+182051811+180707347+179260245+178005375+177016036+176023730+174686135
2893+172794842+170247892+166959794+162789777+157797065+152615846+148542372
2880+147146583+149300222+154546707+161726639+169938418+178694397+187649573
2866+196484607+204935665+212861323+220231808+227098284+233603295+239956875
2853+246275587+252465638+258380812+263948935+269102736+273753382+277900384
2839+281708761+285354123+288867276+292244210+295547344+298817263+302029964
2826+305144428+308137709+310999864+313695320+316203569+318556635+320803471
2812+323012189+325258972+327591772+330016090+332493725+334966267+337371918
2799+339661290+341827907+343883147+345785209+347464356+348948331+350355039
2785+351717668+352946813+353997692+354948710+355892927+356821322+357649964
2772+358358506+358999453+359577411+360097662+360621679+361148893+361631514
2758+362072331+362493018+362918691+363357936+363784042+364198092+364614472
2745+365047297+365535471+366079320+366690764+367451404+368373514+369376928
2731+370387087+371349889+372252655+373140196+374087908+375161950+376387628
2718+377766350+379258127+380753047+382130604+383325614+384346285+385283864
2704+386275141+387357853+388458636+389547959+390626851+391674885+392690165
2691+393672041+394605990+395464623+396224423+396894819+397524442+398190341
2677+398946836+399791950+400720887+401734027+402788049+403834322+404824921
2664+405703412+406528234+407419107+408337938+409177932+409959000+410739580
2650+411517370+412307080+413118193+413895089+414614197+415294319+415938301
2637+416572854+417218109+417862795+418518073+419168774+419761741+420320598
2623+420912292+421532649+422148319+422758733+423356441+423897824+424383912
2610+424886012+425424307+425950545+426449286+426946048+427432570+427890834
2596+428323307+428729229+429122716+429506910+429908688+430386296+430910963
2583+431405802+431865692+432341350+432822995+433288357+433799479+434336202
2569+434812185+435268174+435757079+436242138+436697016+437109196+437476160
2556+437816411+438111499+438377138+438695742+439083648+439488785+439917979
2542+440445437+441090665+441775854+442444326+443132901+443866341+444630124
2529+445417749+446168040+446847051+447540259+448284075+449017759+449726518
2515+450430509+451126751+451831771+452555566+453282016+454020387+454779672
2502+455551691+456357847+457216994+458083186+458914700+459734672+460569978
2488+461406748+462206726+462957667+463688290+464437714+465236554+466070073
2475+466896818+467718633+468557786+469392009+470199356+471016457+471888067
2461+472798581+473695983+474560495+475392225+476181475+476956853+477748975
2448+478500187+479153434+479766368+480402709+481037696+481663309+482306803
2434+482929165+483457137+483902316+484336875+484779345+485206534+485603110
2421+485986681+486401679+486845233+487301086+487811503+488404388+489058394
2407+489774874+490543534+491293175+491997680+492682733+493377865+494099384
2394+494838784+495550821+496179251+496678994+497016400+497196455+497292903
2380+497405986+497565613+497733368+497927023+498232840+498647729+499006701
2367+499265702+499696956+500461227+501430477+502551769+503820713+505126936
2353+506269034+506744719+506345488+505745505+505896787+507008109+508464856
2340+509803969+510875411+511566045+511985649+512486963+513201709+513952976
2326+514655097+515377971+516147281+516918596+517616003+518191983+518725482
2313+519343780+520063186+520831683+521617411+522362880+523029944+523679398
2299+524367106+525067168+525755798+526446215+527139396+527820114+528451796
2286+528993640+529470408+529945714+530435703+530915560+531355320+531744906
2272+532121975+532520935+532909220+533244730+533543232+533859723+534243944
2259+534711772+535256108+535884918+536617329+537436380+538288429+539167083
2245+539970583+540722229+541437788+542110108+542763084+543442773+544170523
2232+544920869+545639029+546292438+546932031+547619360+548322023+548985998
2218+549617788+550248440+550896052+551536945+552132052+552716105+553315168
2205+553906699+554522721+555198942+555912280+556641005+557401537+558199836
2191+559000031+559775355+560532961+561288942+562053971+562835310+563617733
2178+564361955+565064781+565774434+566507765+567232210+567954705+568692317
2164+569412319+570107288+570802040+571503457+572222917+572968332+573693048
2151+574340009+574927747+575512776+576105445+576697897+577305304+577940995
2137+578608601+579300752+580022163+580812984+581685353+582599389+583515485
2124+584424157+585346158+586280026+587186748+588047087+588893502+589758339
2110+590624259+591474954+592312211+593096693+593801415+594497793+595266398
2097+596069194+596835253+597557802+598263770+598955271+599637615+600323914
2083+600995313+601633659+602246051+602828858+603402238+604016743+604655143
2070+605245157+605793449+606384329+607063693+607820324+608627617+609445964
2056+610263227+611111700+611981522+612823764+613640323+614453631+615239412
2043+615970522+616638128+617244343+617853538+618514371+619192597+619895639
2029+620672481+621497817+622298988+623068785+623857656+624700765+625595132
2016+626479963+627287365+628039390+628809025+629587112+630301804+630961499
2002+631641730+632345260+632995148+633572536+634161467+634825875+635498412
1989+636075476+636583888+637117821+637706805+638299311+638851721+639399850
1975+639992898+640608975+641194329+641787594+642462948+643161980+643783584
1962+644368938+644984906+645568146+646056023+646474434+646843809+647128169
1948+647287634+647329898+647324479+647321336+647228302+646973744+646619269
1935+646217871+645801789+645441084+645292944+645573402+646486626+648030014
1921+649877810+651891681+654078454+656124511+657869411+659490716+661083032
1908+662590117+663953504+665179697+666320603+667400986+668423228+669428945
1894+670405293+671318950+672290422+673322634+674234774+675078425+675989915
1881+676903193+677733894+678537177+679347505+680067669+680791573+681787102
1867+682929851+683887343+684674642+685480852+686381288+687323446+688205080
1854+688987069+689706367+690390120+691036973+691795879+692802246+693769816
1840+694529048+695318460+696187199+696950440+697672447+698618127+699662314
1827+700570228+701505125+702494369+703381693+704199985+705032474+705866534
1813+706686561+707555949+708478439+709341704+710056559+710702274+711497863
1800+712442243+713220331+713744131+714409299+715453865+716467330+717129192
1786+717671036+718318973+719068343+719846756+720452104+720770979+721146639
1773+721958917+722958023+723735623+724270261+724697125+725272997+726049784
1759+726799263+727528530+728237912+728882761+729715358+730806035+731820313
1746+732569195+733154712+733792191+734479195+734921719+735381636+736436335
1732+737615549+738296485+738735270+739142195+739436958+739506910+739462804
1719+739778102+740559766+741204886+741399570+741336933+741210250+741097330
1705+740894951+740563505+740463156+740634324+740676642+740609183+740296864
1691+739526904+738457033+737294940+736451940+736130410+735633051+734498593
1678+733137048+732012180+731072514+730093402+729274134+728715222+728042252
1664+727245525+726647492+726121037+725266711+724157124+723598212+724031795
1651+724212608+723539855+723120739+723359475+723557194+723474021+723430565
1637+724039327+725707718+727637603+729024724+730345956+732092427+734145365
1624+736397593+738585613+740403878+742515768+745562340+748721669+751295752
1610+753613435+755920714+758148559+760299842+762411353+764410757+766233466
1597+767935289+769604601+771224064+772709475+774038022+775255924+776396506
1583+777403631+778130731+778598234+779306261+780472688+781324304+781596744
1570+781968719+782565831+782885357+782674363+782121140+782062187+782998927
1556+783834775+783922662+783730308+783530313+783240535+782724483+782036883
1543+781528742+781654125+782168497+782055198+781292227+780631395+780086029
1529+779236201+778130081+776951083+775775336+774737217+773760598+772600239
1516+771250181+769672657+767685390+765312873+762901885+760668675+758127048
1502+754738086+750507965+745482905+739528692+732562801+724309707+714202639
1489+702639042+691204186+680954234+671787266+663237024+655242714+647866865
1475+640441816+631511200+620548886+609211833+599166373+590298286+581262281
1462+571176021+561435998+556331883+559953839+570449029+582899571+594712417
1448+605159166+613759474+620034568+624113785+626596297+628410715+630369156
1435+632160491+633065642+633266937+633261301+633248785+633399146+633822543
1421+634627723+636149925+638344934+640649342+642924274+645367285+647966889
1408+650638179+653442871+656292862+658810918+660727691+661555899+660401068
1394+657031178+651866864+644625717+634549643+622546231+611947440+606394841
1381+608154750+617167618+631069868+647327351+664346720+681085306+697066123
1367+711275491+722122175+729208788+733121930+734664939+734885036+734639797
1354+734131114+733139269+731571119+729853365+728875662+729196976+730408918
1340+731766020+733067258+734493066+736213203+738377436+741101827+744420404
1327+748270204+752547899+757180772+762136639+767328315+772587343+777827678
1313+783063298+788250857+793241781+797904834+802153920+805957230+809411539
1300+812621042+815597174+818321131+820804239+823045468+824991392+826519716
1286+827326847+826986948+825242374+822220023+818493600+815155788+813676825
1273+815236794+819987951+826982288+834879175+842606627+849575497+855613859
1259+860656746+864672405+867756688+869907591+870949503+870899057+869941348
1246+867940969+864658858+860598226+856824067+853953054+852417847+853086049
1232+856542417+862454529+869837043+877605404+884969171+891496601+897120994
1219+901992333+906211725+909834168+912967651+915738315+918302212+920766193
1205+923026223+925002219+926861828+928733139+930488605+932013029+933383352
1192+934692663+935941938+937002760+937766977+938376009+939017227+939652918
1178+940110451+940345612+940477713+940465793+940068729+939199829+938007339
1165+936578388+934800057+932655547+930460971+928524746+926831159+925218090
1151+923553871+921678874+919318278+916280809+912689468+908734496+904462924
1138+899976565+895581616+891497034+887581671+883770829+880336243+877314597
1124+874252095+870611609+866049338+860242289+852503025+841662789+826392437
1111+805529769+778004752+742831013+700250865+653070571+605648614+561283144
1097+521566261+488321703+464717305+453853797+456818577+471935045+495345245
1084+522162344+547097726+564740108+569932814+558678880+531307421+496694816
1070+470113636+461354297+464608828+462429045+439499215+393217163+333752212
1057+275970634+231310672+205695899+202021385+222009936+266035169+331719972
1043+412891052+500588722+585419632+660097635+721004189+767920009+802547894
1030+826577314+840426897+841997215+825756529+787748513+736482771+696063062
1016+689720780+719151408+766634159+814625865+856271170+891413319+920856030
1003+944914764+963679900+977222203+986094788+991411251+993984576+993830259
989+990738932+984798914+976031556+963691279+945857031+919083442+878206797
976+818121841+740086683+660251952+607699276+605189347+651722084+726324987
962+805146686+873697897+927703311+968103513+997300335+1017993460+1032797718
949+1043740363+1051949622+1057961813+1062322681+1065701185+1068421458
937+1070451639+1071870294+1072881267+1073547301+1073741823+1073317126
926+1072288706+1070823019+1068878233+1066116346+1062382284+1057768050
914+1052290008+1045948918+1038909391+1031623109+1025053794+1020299223
903+1017309220+1014192317+1008039572+996164414+976397409+946849797+906919969
889+859114983+808959262+763071373+729734160+721277711+748083431+805577343
876+874028585+934271542+978360726+1007053958+1023945507+1032044880+1033125533
862+1029289171+1024670819+1024343437+1030260913+1039709153+1048851901
851+1055883517+1060540990+1062969317+1063795629+1063961650+1063874413
839+1063269715+1062001801+1060397401+1058792026+1057155116+1055220950
827+1052901858+1050439503+1048015619+1045354732+1042037998+1038020334
816+1033457684+1028245796+1022007440+1014646491+1006846540+1000094299+996116407
802+995807447+998469960+1002188309+1005165849+1006581795+1006449260+1005318216
789+1003882004+1002332656+1000287521+997644190+994798209+991979646+988941310
775+985324394+981353979+977664998+974661449+972267258+969981327+967292807
762+963711327+958846761+953263277+948761205+947077371+948075448+949827120
748+950817828+950915793+950288880+949036570+947423609+945646145+943795206
735+941874262+939814171+937671396+935588439+933537344+931425562+929155453
721+926899973+924673537+922569557+920603314+918682044+916769444+914847957
708+912940125+911095689+909236731+907267129+905319471+903603614+902101081
694+900645743+899150850+897577010+895966271+894483515+893252392+892234917
681+891198370+889953267+888664979+887541628+886442119+885273578+884397200
667+884117230+884060173+883926609+883622255+883189051+882819839+882572649
654+882453227+882581048+882951561+883340767+883616403+883903147+884339115
640+884980007+885800793+886643956+887473952+888436754+889525319+890657664
627+891947469+893348786+894472299+895252066+896320528+898095067+900084880
613+901844410+903498009+905179242+906901167+908670883+910552761+912747229
600+915164719+917263606+918982659+920926687+923201239+925333286+927307657
586+929489987+931904443+934181271+936122156+938130121+940566250+943109449
573+945278233+947230821+949498330+951921130+953820076+955229845+957033102
559+959697456+962604123+965099639+967310904+969512091+971550615+973425070
546+975515179+977768490+979672963+981164442+982883930+985112750+987210336
532+988832725+990394427+992090940+993616122+994757787+995916250+997462022
519+998947107+1000033071+1001114266+1002294835+1003188986+1003671119+1003965340
505+1004164630+1004145232+1003936405+1003720643+1003341027+1002203047
494+1000079236+997534629+995045290+992507076+989899290+987798453+986942557
480+987042581+986859763+985859086+984218925+981757003+978566951+975361295
467+973004166+972741697+975211746+979274166+983270481+986071705+987134803
453+987071732+986550154+985229247+982586024+978837548+975020367+971702982
440+968385706+964999182+962105952+959923188+958951012+960438915+964690331
426+970223098+975510302+979989508+983868785+987700271+991401065+994166527
413+994726035+992823947+990823243+990748685+992309412+994242060+994558822
399+992878890
##END=
