##TITLE=33
##JCAMP-DX=4.24
##DATA TYPE=INFRARED SPECTRUM
##DATE=16/11/2015
##SAMPLING PROCEDURE=Instrument type and / or accessory
##ORIGIN=Default
##XUNITS=1/CM
##YUNITS=TRANSMITTANCE
##RESOLUTION=4
##FIRSTX=3996.3359
##LASTX=399.24785
##DELTAX=-1.9287336
##MAXY=1.1756328
##MINY=0.07755515
##XFACTOR=1
##YFACTOR=1.0948934e-009
##NPOINTS=1866
##FIRSTY=0.19682398
##XYDATA=(X++(Y..Y))
3996+179765432+179926135+180107606+180307628+180480716+180601965+180720315
3983+180897023+181094064+181252903+181417430+181650905+181926800+182143970
3969+182269315+182371960+182507675+182704131+182951052+183191413+183360949
3956+183456734+183562753+183733432+183975998+184209880+184367848+184582350
3942+184829625+184968702+185029293+185074259+185257895+185588528+185829896
3929+185959638+186139721+186372474+186530142+186642613+186794225+186972076
3915+187107887+187230769+187350589+187393391+187431716+187636556+187956683
3902+188268181+188533421+188588867+188508311+188615746+188961636+189164516
3888+189275190+189526493+189587954+189637806+189910395+190032406+190053582
3875+190155356+190309894+190662657+190878153+190848974+190990691+191206840
3861+191303320+191197708+191116132+191595642+192342882+192430556+192183172
3848+192122882+192255127+192398941+192437891+192601548+192959782+193177782
3834+193322712+193580915+193777384+193890481+193938591+193943096+194224613
3821+194513846+194585024+194925893+195143471+194936576+194797118+195036866
3807+195431629+195475125+195598797+195976384+196043031+196076674+196235513
3794+196278682+196302295+196390881+196529468+196685830+196761037+196804806
3780+197006774+197244535+197352759+197389478+197521193+197802423+197959384
3767+198010938+198079068+198169109+198418629+198645149+198596671+198494245
3753+198783396+199320190+199396527+199171858+199534651+199898180+199555297
3740+199207243+199273604+199623754+200032630+200360474+200406502+200351682
3726+200369742+200424671+200569655+200735013+200804749+200728194+200696851
3713+200909353+201128047+201115172+200955245+200852682+200945160+201030493
3699+200910918+200668638+200305327+199919275+199737245+199793794+199759470
3686+199504792+199296468+199142896+198983282+199113391+199615207+199744554
3672+199678724+199899949+199836229+199510317+199316025+199179996+198971918
3659+198869015+198906591+198609043+198111799+197997260+198074549+197870635
3645+197405960+196992552+196697861+196409281+196040703+195572081+195007592
3632+194584711+194579009+194380852+193644881+192832749+192228261+191859833
3618+191388625+190668931+190007296+189403216+188755681+188076244+187310141
3605+186560505+185886907+185156407+184333946+183534595+182758652+181869830
3591+180912415+180043165+179141808+178137345+177240602+176443946+175591503
3578+174675448+173708425+172645263+171493448+170434056+169583395+168705325
3564+167652207+166564848+165508872+164454134+163380125+162280626+161114398
3551+159861231+158587854+157335136+156135727+155045428+153995889+152847572
3537+151599454+150361476+149187667+148021289+146786264+145445424+144046538
3524+142727283+141536421+140388702+139156263+137806944+136466757+135247342
3510+134070444+132780408+131382639+129975043+128651024+127470519+126366610
3497+125242109+124075527+122890545+121675336+120412179+119164457+117978358
3483+116738842+115375423+114089117+112991189+111901189+110660468+109265039
3470+107834062+106584107+105595118+104689815+103676886+102585498+101546698
3456+100535674+99474962+98380798+97260196+96128775+95045566+94053868+93117433
3441+92114868+90979078+89829250+88885418+88141397+87399219+86619486+85898451
3425+85233822+84529078+83755340+82994028+82289039+81556769+80782745+80059104
3410+79414522+78833797+78231908+77454386+76578249+75974162+75736741+75457205
3395+74887680+74254095+73889988+73769113+73590473+73240996+72832569+72469442
3379+72192342+71997901+71825166+71553252+71152929+70835089+70833517+71094258
3364+71345922+71432799+71472124+71606772+71758649+71759316+71664490+71766781
3348+72132024+72480493+72685067+72867539+73088221+73394949+73853745+74392533
3333+74922855+75428461+75867980+76251058+76730596+77387059+78070273+78659205
3317+79208859+79785046+80353979+80833196+81239017+81716568+82436922+83430776
3302+84507194+85426399+86122671+86739721+87458074+88361329+89411290+90462495
3287+91425660+92349520+93280219+94212503+95149755+96114661+97112871+98106120
3271+99148595+100377074+101731320+103031699+104233332+105403160+106610850
3258+107857675+109148949+110516866+111897814+113199737+114488521+115928045
3244+117498290+119061431+120616692+122165979+123613560+125032792+126656183
3231+128464762+130258954+132001852+133737496+135462947+137186941+138946646
3217+140756463+142601094+144451685+146282774+148108704+149960493+151824327
3204+153686745+155583337+157519670+159460793+161384890+163285415+165175039
3190+167070080+168982432+170915335+172828245+174693780+176566936+178491115
3177+180411524+182290301+184146691+185981277+187793122+189593616+191394967
3163+193209983+195032375+196824812+198537075+200130715+201676517+203360798
3150+205196174+206996818+208676308+210229242+211674156+213173018+214867316
3136+216612351+218197145+219651259+221115253+222611448+224055641+225392589
3123+226635235+227847831+229113111+230465778+231880342+233264584+234531755
3109+235749115+237034359+238322217+239481545+240547402+241631495+242757371
3096+243863076+244889274+245840347+246768147+247698560+248607660+249489677
3082+250334430+251154251+252053661+253037043+253946197+254703740+255342797
3069+255943283+256627497+257404447+258145059+258769581+259292247+259756664
3055+260173230+260551960+260947866+261350604+261675223+261904981+262112693
3042+262353475+262584187+262690941+262658986+262602696+262552367+262408649
3028+262114054+261705300+261243986+260717509+260039283+259178116+258145876
3015+256947760+255610445+254125818+252418482+250372102+247878507+244886362
3001+241334124+237144516+232221755+226302247+219104544+210490181+200255407
2988+188144374+174140532+158616801+142483751+127260971+114682118+106050212
2974+101788766+101329432+103466698+107076023+111683638+117519127+125076629
2961+134424895+144726029+154493392+162376710+167667573+170178806+169957226
2947+167292068+162782224+157321417+152121005+148417672+146854381+147200911
2934+148731851+150879597+153533554+156829073+160826430+165343595+170023247
2920+174561045+178721214+182234189+184887276+186567188+187241194+187065126
2907+186352304+185372080+184291838+183230513+182237822+181235863+180029528
2893+178370084+176043766+172934918+169027684+164447574+159671634+155804821
2880+154319759+156061487+160626517+166968470+174248022+181951529+189780014
2866+197530202+204915379+211726118+218000185+223851454+229353240+234619673
2853+239794024+244922183+249920614+254625430+258894545+262692901+266092194
2839+269229119+272214785+275100122+277913136+280667139+283375386+286053882
2826+288686595+291224993+293628845+295895240+298054526+300120940+302095461
2812+304015544+305930400+307903343+309996976+312179127+314360053+316474563
2799+318478699+320362879+322128682+323745214+325190754+326486614+327672508
2785+328787741+329849787+330844247+331766004+332614459+333379079+334074480
2772+334716531+335296848+335815649+336299773+336783489+337267096+337732357
2758+338172657+338587508+338984911+339363070+339729225+340125131+340560015
2745+341003800+341465631+341969707+342515265+343138970+343893981+344755148
2731+345634742+346467193+347256772+348042787+348880762+349826391+350891404
2718+352091125+353397002+354680941+355871135+356953051+357891031+358736846
2704+359603049+360534197+361539191+362582700+363570192+364478612+365359921
2691+366224109+367044365+367809992+368528802+369199705+369810671+370397929
2677+371044607+371801061+372673443+373622283+374565353+375467077+376347569
2664+377206341+378026270+378809154+379565799+380304968+381028976+381729767
2650+382419397+383131211+383850456+384554349+385266191+385960884+386602254
2637+387209709+387783167+388351399+388944536+389511788+390052882+390638262
2623+391265451+391884502+392497020+393092444+393628366+394122561+394626800
2610+395152134+395675236+396160776+396585589+396989443+397426477+397897889
2596+398383293+398864586+399340081+399792250+400212109+400646775+401095759
2583+401525090+401952407+402412823+402928766+403475849+403995630+404483102
2569+404961156+405424947+405887404+406355632+406802248+407213206+407593352
2556+407955778+408306445+408643993+408976532+409336808+409750815+410211938
2542+410731583+411321074+411962988+412628910+413298861+413997964+414724150
2529+415428315+416125621+416862613+417620510+418337495+418982404+419604667
2515+420268928+420949222+421604992+422285068+423032893+423792260+424505925
2502+425213710+425975526+426788243+427590997+428345926+429090513+429843972
2488+430587497+431327211+432076424+432844555+433641566+434454201+435249524
2475+436017628+436785541+437583913+438409830+439226875+440015338+440805381
2461+441615294+442424308+443238195+444054395+444819614+445529713+446240656
2448+446960092+447638181+448263220+448882243+449514794+450140323+450738931
2434+451298644+451831545+452360254+452876252+453347093+453763903+454148676
2421+454539274+454973859+455462501+455997281+456558980+457135922+457751461
2407+458417138+459104536+459793949+460491854+461181049+461852115+462505653
2394+463155652+463804779+464409159+464881360+465161176+465288835+465363960
2380+465466251+465647804+465942154+466344783+466799129+467258538+467737055
2367+468288411+468954632+469705234+470606250+471843534+473256710+474401394
2353+475095162+475204910+474761996+474410050+475021397+476665666+478363175
2340+479421955+480012289+480452045+480835621+481279623+481900661+482538084
2326+482983012+483396529+484048324+484848574+485498519+485917806+486293706
2313+486834500+487570240+488390687+489223382+490037623+490794812+491502243
2299+492201673+492919448+493659053+494401053+495115399+495789786+496412838
2286+496962724+497453925+497945670+498488261+499067599+499606379+500057949
2272+500465042+500875837+501273838+501643205+502008490+502392174+502805963
2259+503276368+503831480+504477342+505210414+506010338+506829804+507660758
2245+508419144+509165608+509935863+510680585+511368636+512031102+512714961
2232+513419780+514103422+514758103+515416213+516093486+516784749+517460116
2218+518112946+518788477+519473589+520111393+520704068+521296743+521908689
2205+522538273+523191212+523868267+524576080+525325429+526110219+526907474
2191+527701083+528488322+529264346+530033130+530800445+531558940+532288801
2178+532975110+533656520+534389048+535143842+535863577+536565292+537278495
2164+538000298+538715950+539415543+540117422+540832693+541554170+542275647
2151+542980411+543641515+544251828+544838460+545431135+546044061+546666187
2137+547307912+548028191+548835300+549676814+550527420+551408947+552329180
2124+553259593+554180207+555084761+555986703+556891638+557775397+558629106
2110+559447212+560216595+560973729+561762003+562528337+563238926+563962853
2097+564705670+565445711+566178456+566910277+567639375+568356715+569040901
2083+569692043+570343185+571006140+571675955+572337876+572975789+573588715
2070+574164732+574722239+575348176+576057296+576814539+577602921+578426689
2056+579280071+580117720+580935172+581759158+582588804+583392429+584155171
2043+584906208+585616144+586252805+586892134+587556015+588195344+588835653
2029+589564316+590398209+591279735+592137146+592909142+593650979+594454441
2016+595266068+596086787+596935923+597754029+598507897+599202427+599880244
2002+600555720+601222867+601846681+602389708+603001109+603760857+604414176
1989+604999937+605633441+606279194+606937685+607557797+608139530+608733185
1975+609368648+610002969+610562382+611159738+611878003+612565565+613234400
1962+613898280+614531240+615188370+615840873+616394461+616837429+617194058
1948+617417855+617477139+617624777+617824513+617797076+617731259+617636863
1935+617413664+617137441+616916039+616875319+617139238+617983583+619344171
1921+620909013+623033650+625214249+626898584+628479704+630066158+631595670
1908+632991643+634272315+635452765+636525045+637526882+638548317+639643135
1894+640560428+641402922+642515052+643494405+644312837+645240801+646147097
1881+647036735+647917718+648773985+649524097+650077848+650946364+652193774
1867+653142043+653966246+654933296+655867030+656759608+657702759+658636166
1854+659445127+660108300+660633416+661070505+662201361+663638272+664242815
1840+664878551+665950940+666844062+667414526+668202310+669367952+670109408
1827+670926371+672139103+673113122+674067869+675099756+675962120+676639556
1813+677468931+678496626+679394648+680145576+680831069+681658429+682730220
1800+683611855+684027005+684470355+685659189+686981833+687550772+688130654
1786+689115125+689929311+690659825+691480598+691890250+692071585+692912337
1773+694223223+694899679+695457404+695981541+696477206+697515189+698346742
1759+698904467+699706023+700149318+700776289+702058703+703120640+703885069
1746+704636161+705456444+706505479+707178288+706961731+707904392+709780461
1732+710323542+710730799+711653699+712425804+712781507+712501256+712544317
1719+713706857+714614460+714759812+714898032+715156017+715407524+715556196
1705+714976913+714424687+715342361+715561912+715493592+716083817+715558102
1691+714837986+713964842+712898986+713245434+713568093+712068087+710589149
1678+709995766+709888576+708931924+707744996+707736993+707405026+706345048
1664+706076284+706175199+705360795+703735907+702415876+703404266+704689457
1651+702620239+701237440+702251035+702698958+702121362+701721074+701713616
1637+703048346+705219799+706051460+706512393+708010929+709815846+711704599
1624+714105566+715857406+717110859+719992411+723596366+725926509+728141894
1610+730848535+733376726+735560755+737688113+739861254+741868466+743651063
1597+745377099+747103352+748724321+750235268+751671799+753013388+754249148
1583+755239715+755707998+756093152+757729690+759378368+759099097+759229641
1570+760634542+761265542+761100593+760328542+759758024+761478126+763022771
1556+762259485+762067262+762441692+762634677+762382136+761665232+760941795
1543+760904450+762369343+763061858+761630881+761185463+761737309+761104349
1529+760104146+759406567+758373646+757573070+757326571+756250643+755142705
1516+754379637+753019811+750993818+748859982+748232684+747745457+744811480
1502+741276063+738356077+735042280+730355919+723785432+716272012+707957252
1489+698114669+687980512+679000184+671220014+663911392+656800981+650300013
1475+644048537+636611222+626549686+615506674+606526890+599281798+590985548
1462+580797007+571602898+567709873+571310399+580492259+592073180+603435367
1448+613310178+621083544+626608698+630140140+632045660+633777630+635902320
1435+637057130+637614909+638373133+638759212+638762315+639048445+639530065
1421+640662718+642998032+645465252+648050059+651313227+654811625+658163692
1408+661477162+664972567+668041062+670271908+672050858+672819534+672224300
1394+669970372+665093802+657880012+648641808+637605546+627555333+622326544
1381+623877614+631915007+644378109+659176743+674578559+689602297+704156610
1367+716949774+726580373+733065336+736507445+737641132+737856873+737771132
1354+737330886+736437056+735086212+733555013+732623076+732811978+733841198
1340+735168578+736394702+737679403+739355790+741479991+744077482+747191869
1327+750776880+754706270+758910086+763423386+768177687+772965739+777792498
1313+782732272+787637967+792360366+796775241+800787650+804439675+807797621
1300+810886096+813717456+816326543+818743569+820944256+822868068+824415109
1286+825310300+825196795+823833648+821276551+818044848+815160573+813958402
1273+815547143+820138345+826875959+834474630+841943901+848790719+854839519
1259+859933463+864011417+867197337+869568417+871046811+871499197+870902766
1246+869341299+866918991+863826107+860557767+857939644+856905525+858195070
1232+862029029+867961276+875067876+882364521+889100720+894897033+899754005
1219+903845840+907334494+910295745+912785230+914952437+916976688+918910026
1205+920621255+922021746+923288972+924633936+925941664+927082701+928075446
1192+929007982+929922662+930718557+931311068+931809836+932343881+932876727
1178+933272497+933517907+933692220+933715737+933399013+932679223+931675373
1165+930476195+928970637+927127340+925264990+923671894+922288496+920971949
1151+919630687+918113696+916179378+913630664+910526729+907062028+903333081
1138+899455463+895735553+892374504+889192286+886071801+883240060+880795759
1124+878414227+875591413+871969221+867286453+860909605+851665848+838292693
1111+819751285+794947133+762763751+723329399+679235142+634563889+592445814
1097+554464867+522559178+500095294+490394469+494586962+510914617+535511902
1084+563512046+589662741+608575203+615117763+605400389+579803336+547132510
1070+522784337+516696776+522134991+520067243+494984746+445514470+382673762
1057+321342913+273301029+245457887+241399749+262860899+309532994+377749939
1043+460105448+547124562+629756129+701343704+758825923+802647932+835095995
1030+857965611+870966296+871283456+854213746+817146445+768174801+729614899
1016+723509972+751616979+796791682+841912871+880299931+911993364+938188971
1003+959495541+976066157+988040399+996044966+1001144899+1004088947+1004920445
989+1003417173+999552347+993208598+983439235+968051029+943482923+904752627
976+847088147+772238002+696229836+646471988+644297758+689141963+760907825
962+836110624+900513589+950124670+986281918+1011731061+1029214833+1041218471
949+1049753272+1056090815+1060779409+1064192501+1066857823+1069051052
937+1070717641+1071910721+1072830518+1073510132+1073741823+1073339847
926+1072382596+1071144876+1069634636+1067493668+1064478414+1060583102
914+1055880137+1050452484+1044409999+1038203435+1032778068+1029020486
903+1026739284+1024197538+1018774022+1007952249+989717004+962364464+925098516
889+880024743+832548750+789076946+757427010+749521359+775201703+829704760
876+894223026+950748321+991832168+1018416359+1034084271+1041568077+1042410245
862+1038607044+1034087538+1033606299+1038949681+1047527707+1055781386
851+1062131559+1066298084+1068314169+1068891873+1069039947+1069058565
839+1068561757+1067352454+1065810204+1064339268+1062927998+1061245187
827+1059141237+1056933854+1054777535+1052297849+1049184387+1045538187
816+1041458873+1036746545+1031090466+1024403426+1017219360+1010908600
804+1007193045+1007036153+1009740453+1013367817+1016264721+1017742734
793+1017751009+1016760985+1015471113+1014065722+1012165373+1009731525
781+1007211337+1004783695+1002116413+998835388+995167304+991776640+989104459
768+987017168+984923127+982317143+978946730+974639644+969734929+965715170
754+964270692+965274978+966894532+967781230+967846883+967284204+966207079
741+964782525+963104287+961274382+959417367+957524205+955541654+953582838
727+951768176+949976597+947875369+945706529+943658107+941819383+940080500
714+938311894+936538061+934788943+933068243+931393706+929722654+928027540
700+926359645+924763718+923287121+921947383+920650216+919242430+917719124
687+916263105+915046072+914111358+913278173+912252002+911053261+909937048
673+908864496+907704950+906776170+906483671+906561627+906633649+906473164
660+906107662+905824417+905679937+905588153+905691532+906055455+906407021
646+906558088+906724235+907180650+907896084+908637976+909321128+910099058
633+911095233+912222279+913327168+914476860+915786330+917045281+917876996
619+918529173+919853015+921842425+923855026+925679378+927310581+928824850
606+930410325+932172725+934216030+936400440+938304163+939932862+941834844
592+944166892+946357834+948189045+949983891+952025019+954284010+956467113
579+958609823+960874258+962955452+964811269+966720872+968882091+971038628
565+972832494+974493966+976454741+978680742+980811802+982845961+984953177
552+987045585+988976855+991003283+993297768+995478041+997312410+998958420
538+1000876189+1003031420+1004767907+1006181900+1007770750+1009472941
527+1010893248+1011770692+1012734694+1014068988+1015211876+1016132000
515+1017358723+1018818988+1019745100+1020135862+1020374739+1020525535
503+1020801975+1020843893+1020742636+1020589555+1019414439+1017237107
492+1015043224+1013152457+1011214437+1009046794+1007061195+1006006716
480+1006075853+1006114722+1005055235+1003298278+1000868676+997583841+994472339
467+992141054+991727428+993799041+996890836+1000181006+1002559327+1003533127
453+1004067063+1003498940+1001489169+998501134+995110579+991919597+988491261
440+984542382+981046107+978603439+977350368+977397729+978777208+981824581
426+985598712+988506939+991285712+996385862+1001436146+1003592357+1005168032
413+1006104815+1005446432+1004697572+1004857731+1005492270+1006044496
401+1005970677+1005397328
##END=
