##TITLE=33
##JCAMP-DX=4.24
##DATA TYPE=INFRARED SPECTRUM
##DATE=16/11/2015
##SAMPLING PROCEDURE=Instrument type and / or accessory
##ORIGIN=Default
##XUNITS=1/CM
##YUNITS=TRANSMITTANCE
##RESOLUTION=4
##FIRSTX=3996.3359
##LASTX=399.24785
##DELTAX=-1.9287336
##MAXY=1.1721464
##MINY=0.077318981
##XFACTOR=1
##YFACTOR=1.0916464e-009
##NPOINTS=1866
##FIRSTY=0.19178101
##XYDATA=(X++(Y..Y))
3996+175680520+175810224+175970859+176175953+176373553+176488200+176564027
3983+176689390+176879496+177108710+177344844+177557350+177730311+177886347
3969+178071648+178298677+178526949+178719908+178913659+179126042+179311233
3956+179451175+179542945+179615509+179725748+179912619+180135322+180322192
3942+180583361+180901178+181088090+181175383+181230420+181329288+181545466
3929+181736200+181804465+181908834+182153008+182350963+182449749+182598195
3915+182832227+183011017+183125514+183275366+183398054+183468625+183664560
3902+183968699+184202882+184434511+184608988+184607555+184594519+184811242
3888+184996653+185036620+185298622+185528996+185614746+185856491+186020675
3875+186044986+186121891+186189923+186448198+186734169+186792974+186953064
3861+187214997+187399370+187392763+187245368+187537891+188324728+188610604
3848+188363618+188143372+188168912+188357857+188516227+188713103+189070424
3834+189324958+189395079+189489989+189592092+189700174+189813744+189812242
3821+190064647+190498969+190585088+190724606+190953437+190952209+190909416
3807+191101774+191513408+191594927+191548407+191807597+191905278+191904854
3794+192055975+192180547+192283688+192400547+192495975+192617516+192724888
3780+192784171+192973799+193232415+193361696+193370610+193403425+193611030
3767+193796795+193911006+194030200+194079955+194249244+194548811+194662626
3753+194548661+194658039+195181988+195495532+195287913+195412252+195829497
3740+195723326+195396159+195421466+195803221+196178027+196415772+196418488
3726+196331291+196356653+196431047+196561638+196685527+196697976+196575042
3713+196534556+196833576+197177752+197215986+196999740+196742707+196677487
3699+196723583+196615024+196396621+196142687+195835790+195595028+195602563
3686+195638367+195419637+195175449+195079598+195024874+195161294+195744347
3672+196022797+195828023+195879621+195899304+195597130+195235524+194969686
3659+194766886+194677122+194739640+194520500+193996607+193814650+193918337
3645+193758725+193236497+192680034+192290417+191965816+191583789+191186978
3632+190749422+190284197+190181015+190080741+189466606+188628267+187929337
3618+187500763+187080283+186452539+185846485+185265520+184588212+183926343
3605+183209299+182360927+181533358+180785629+179983655+179143951+178420205
3591+177698739+176759880+175759595+174876689+173994819+173118738+172329498
3578+171530062+170617207+169633467+168616556+167524925+166487757+165695133
3564+164879153+163787740+162655594+161638848+160611768+159487499+158353279
3551+157283583+156121407+154830456+153639069+152604905+151574986+150431757
3537+149214079+148076720+146987900+145794370+144519048+143229858+141914568
3524+140626197+139454070+138321952+137105708+135822688+134573506+133411508
3510+132292999+131143354+129838507+128386484+127085677+126009197+124871960
3497+123619585+122452577+121403193+120321416+119133538+117912885+116709035
3483+115453451+114148611+112946863+111904263+110880712+109717622+108343459
3470+106877956+105618148+104672921+103800061+102796685+101718997+100641357
3456+99547091+98469451+97467596+96503723+95521020+94550555+93588934+92554824
3441+91453406+90350035+89322007+88439366+87646660+86865283+86137879+85499337
3425+84882015+84195316+83436517+82714368+82051761+81312202+80498283+79765460
3410+79142473+78596214+78079534+77405523+76533379+75808767+75454797+75181364
3395+74658255+74012192+73627135+73528335+73419782+73158538+72800399+72429455
3379+72119139+71908728+71755785+71527575+71163333+70849741+70827860+71064404
3364+71294764+71383470+71459460+71615994+71758774+71775728+71727072+71854319
3348+72218724+72566824+72763468+72920759+73115963+73426184+73946958+74572054
3333+75149689+75640644+76008530+76330647+76789961+77392384+78003469+78591354
3317+79192173+79812389+80427998+80959086+81368168+81790715+82457506+83452214
3302+84551988+85453848+86129238+86750751+87443859+88297124+89317092+90347926
3287+91304544+92258602+93250328+94259205+95243465+96183313+97088053+97955303
3271+98911825+100125612+101488971+102805421+104058971+105268942+106419577
3258+107576046+108849314+110214434+111530993+112768278+114060499+115522808
3244+117109203+118684215+120185611+121624516+123005873+124428466+126057328
3231+127846565+129608993+131304768+132982824+134657523+136349393+138084576
3217+139832876+141572085+143343263+145146301+146960832+148805830+150683971
3204+152566370+154423121+156253814+158088056+159944425+161807741+163661011
3190+165503389+167351035+169226746+171127068+173000827+174823002+176640168
3177+178470806+180291862+182096824+183902687+185739099+187579511+189370741
3163+191115997+192824016+194500421+196161087+197760737+199297310+200917926
3150+202664534+204400208+206044753+207574855+208993504+210434252+212023474
3136+213677137+215239495+216679506+218071523+219496820+220949089+222335564
3123+223568229+224688676+225869730+227204648+228643499+230062994+231326236
3109+232460893+233606142+234769737+235899398+237023353+238157273+239240032
3096+240230079+241158727+242085492+243040049+243972028+244840015+245690530
3082+246535639+247348398+248208795+249173671+250098552+250836699+251457673
3069+252097429+252768744+253427911+254081318+254732622+255321135+255797253
3055+256181123+256535182+256934968+257366941+257706230+257910191+258070662
3042+258274323+258503018+258639465+258622757+258541757+258471677+258376562
3028+258169926+257807350+257325499+256775042+256162614+255404210+254406219
3015+253201919+251869935+250404098+248719749+246714265+244314511+241455728
3001+238048645+234000468+229190421+223400496+216444600+208162468+198251270
2988+186469220+172854880+157755852+142044968+127177283+114799185+106230774
2974+102008415+101609891+103792983+107421963+111988410+117688817+125067745
2961+134192939+144199006+153698666+161448714+166701669+169189072+168984606
2947+166407603+161992442+156608173+151484922+147856624+146382406+146810393
2934+148355456+150455835+153048467+156250961+160060246+164353962+168913256
2920+173421416+177539973+180988771+183598397+185268564+185960778+185819308
2907+185126507+184146575+183099620+182106734+181148000+180144727+178946692
2893+177317885+175064051+172054461+168215596+163689800+159025905+155308103
2880+153908769+155629455+160097825+166298798+173419615+180996620+188707889
2866+196264624+203425313+210059787+216145552+221753644+227051221+232224226
2853+237342658+242354974+247174222+251694995+255823352+259528282+262857914
2839+265915306+268800025+271586216+274323976+277023215+279678884+282309736
2826+284885987+287337422+289656558+291856284+293943176+295937712+297847508
2812+299698662+301567534+303535343+305609296+307709620+309780078+311830225
2799+313802975+315600429+317253574+318838277+320331579+321683082+322906902
2785+324024223+325025381+325940571+326806674+327608158+328345649+329037413
2772+329664501+330218562+330733883+331228347+331700397+332161637+332612638
2758+333034265+333433341+333852210+334282409+334680148+335080071+335514555
2745+335949259+336380440+336832015+337361533+338038609+338823139+339645780
2731+340483627+341297341+342078268+342854225+343650030+344538465+345594934
2718+346790198+348042710+349289271+350450655+351487358+352428428+353309684
2704+354197218+355130371+356080177+357038637+357998326+358920996+359786690
2691+360605182+361393861+362162939+362903925+363582011+364181445+364766163
2677+365429671+366189412+367012736+367887466+368798397+369703567+370558586
2664+371369925+372177415+372981110+373771127+374539495+375251078+375908553
2650+376565235+377261640+377988921+378710059+379418694+380100056+380720921
2637+381306622+381892296+382483567+383072654+383636843+384181130+384736419
2623+385322612+385922127+386491940+387034425+387569130+388082786+388592592
2610+389126751+389649307+390117180+390557780+391024289+391511955+391971529
2596+392382781+392803425+393297916+393805975+394256267+394694820+395144374
2583+395568895+395994671+396477477+396989714+397467388+397925160+398417331
2569+398932543+399424413+399888191+400352406+400831527+401281137+401677347
2556+402064029+402429034+402753198+403082522+403445699+403852119+404318191
2542+404858737+405456751+406058751+406667030+407346427+408094292+408828453
2529+409504792+410162320+410852528+411572875+412274193+412908708+413507513
2515+414155432+414855386+415555176+416248331+416944463+417634397+418336453
2502+419088086+419879441+420680542+421471488+422232430+422980842+423751312
2488+424525413+425268665+425996246+426729998+427455586+428163730+428882657
2475+429647695+430471592+431337941+432184170+432963704+433721152+434522280
2461+435359008+436184025+436980075+437750791+438503735+439232463+439923899
2448+440609683+441296560+441942513+442554232+443167507+443785014+444403940
2434+445025350+445600432+446078625+446497931+446923679+447376892+447844411
2421+448306906+448751983+449183520+449642602+450163220+450734534+451346663
2407+452006212+452706957+453427085+454148442+454850389+455534781+456202547
2394+456857401+457501989+458111114+458606069+458900422+459010060+459075526
2380+459254398+459580037+459933358+460212203+460503662+461010301+461762590
2367+462542834+463235771+464014158+465023397+466178202+467346165+468425894
2353+469198876+469275317+468722921+468334601+468909383+470334133+471781816
2340+472890319+473735483+474308408+474677345+475113004+475748228+476428662
2326+476955886+477355781+477861329+478578236+479332545+479927364+480381205
2313+480876215+481526236+482280545+483048285+483775894+484459931+485153469
2299+485888777+486635113+487361084+488067781+488758807+489419312+490021885
2286+490563960+491076224+491602356+492173643+492757270+493273902+493709833
2272+494132279+494579240+495021069+495421729+495769371+496084035+496428074
2259+496872469+497445831+498137567+498916773+499723990+500508820+501307574
2245+502042553+502759952+503490236+504227727+504951132+505649529+506356827
2232+507086674+507793207+508438642+509059997+509714660+510395421+511072742
2218+511766772+512489903+513187263+513811458+514393010+515001316+515640800
2205+516268817+516881546+517511201+518189560+518931310+519729244+520547217
2191+521353451+522141940+522905694+523645752+524383243+525139790+525903108
2178+526645568+527365860+528079710+528793777+529508391+530247193+531007835
2164+531747347+532460596+533153260+533826377+534514182+535219186+535903879
2151+536586333+537279925+537931475+538535468+539139297+539748586+540357438
2137+541001781+541724257+542530546+543384064+544245335+545116598+545989991
2124+546848914+547740434+548682460+549610671+550488159+551335398+552169860
2110+552992365+553802475+554595987+555372136+556123823+556856674+557618408
2097+558414977+559207288+559936371+560599715+561270648+561960309+562628731
2083+563307090+564022086+564725506+565368538+565965815+566579964+567239704
2070+567893220+568475044+569042946+569757615+570566688+571344256+572119913
2056+572927403+573758425+574591195+575429315+576265034+577077055+577857408
2043+578568309+579238096+579917656+580582091+581231294+581879131+582554650
2029+583296455+584118250+584976355+585809889+586604984+587377857+588195447
2016+589086367+589910073+590653898+591427044+592178021+592862932+593535067
2002+594242473+594972921+595678417+596324998+596867838+597424055+598191468
1989+598896527+599457112+600061105+600695182+601312061+601901039+602503557
1975+603146371+603819434+604462739+604998044+605572716+606361205+607110763
1962+607716940+608353420+609014471+609613768+610165944+610680774+611122439
1948+611453538+611642074+611596100+611610406+611861678+611895421+611699896
1935+611476634+611255829+611095740+611131121+611533364+612325019+613674312
1921+615470620+617136486+619108827+621263479+622859184+624167744+625551817
1908+627032533+628396022+629565623+630655453+631695869+632639751+633545576
1894+634603956+635569787+636328082+637401640+638498131+639311845+640170660
1881+641054863+641902921+642787343+643748970+644620179+645088107+645767339
1867+647203228+648486562+649245730+649972083+650864040+651826213+652726961
1854+653530082+654302682+655084400+655845752+656253128+657084205+658755095
1840+659809762+660304717+661119905+662094255+662748535+663422416+664702256
1827+665659024+666392803+667605102+668600582+669286366+670133660+671129358
1813+671914461+672644472+673671293+674736771+675566810+676127450+676763821
1800+677895038+679133382+679784495+679943328+680788438+682450537+683426142
1786+683677578+684262133+685130721+685975994+686930960+687603095+687764440
1773+688263326+689634786+690684321+691411711+691964543+692152588+692891553
1759+693874912+694591164+695602750+696237265+696587092+697788197+699234624
1746+700196743+700848675+701465444+702449458+703564131+703339558+703385259
1732+705286073+706617292+707030292+707402832+707823367+708393616+708419934
1719+708044609+708880272+710325880+711037655+711129711+710989115+710901972
1705+711341398+711491605+710712890+711289801+711909846+711648472+712021996
1691+711614675+710711306+709861392+708285562+707756044+708729793+708489495
1678+706940528+705399533+705076297+704829993+703682669+703379417+703493205
1664+702457648+701425040+701465772+701581799+700691862+698529784+698157244
1651+700588994+700455168+698367402+698229862+699062195+699137926+698908877
1637+698621076+699485460+702068891+703872516+704467554+705662272+707568272
1624+709513313+712003814+714269906+715586602+718083655+722007260+724845731
1610+726709144+728780584+731082549+733304470+735402829+737428132+739288759
1597+740960851+742595486+744244700+745782856+747195867+748545050+749801958
1583+750980841+752150224+753001558+753191623+754198623+756272357+756722649
1570+756234574+757096555+758195448+758751993+758359414+756739630+757429237
1556+760187827+760735854+760086215+759670977+759640237+759578920+759179953
1543+758787866+758429412+759406601+760914890+760051326+758509293+758461244
1529+758141612+757071766+756431300+755687966+754562701+754289370+753722888
1516+752562241+751597556+750390116+748517968+745562324+743564266+743408054
1502+741695722+737640201+732783251+727868152+722912758+716195126+706764932
1489+696545431+687217941+678859996+671016662+663665499+657077216+650970511
1475+644504098+636353635+626851696+617506515+608557517+600137819+592265601
1462+583822970+574590103+568793476+572272085+583146795+594893969+605153765
1448+614073661+621754722+627563307+631299085+633588492+634716433+635820077
1435+637971835+639402865+639416242+639442013+639844257+640282373+641080089
1421+641928965+643084698+645984595+649569021+652583361+655581321+658916113
1408+662290981+665448539+668641041+671363376+672813571+673482757+672988457
1394+670610870+666511505+659722073+649698206+638540556+629297697+624323629
1381+625666642+633619505+645956312+660175641+675302106+690455435+704673726
1367+717339939+726961017+732834085+736172371+737825352+738072256+737677002
1354+737165612+736375813+735068017+733604610+732828570+733244791+734306993
1340+735287403+736472947+738053528+739776453+741731594+744182892+747227372
1327+750760418+754678345+758923712+763395891+768050927+772856279+777634494
1313+782364824+787162150+791799932+796092802+800079798+803721064+807020146
1300+810028426+812800830+815378802+817765889+819944893+821852969+823380914
1286+824328400+824293292+822960216+820456665+817326244+814547178+813424698
1273+815003422+819507815+826150316+833650976+841028184+847779504+853686588
1259+858674306+862707768+865849328+868212719+869720571+870197727+869612134
1246+868068846+865710424+862744132+859611909+857069592+856053637+857332931
1232+861117687+866968970+873989144+881195615+887848272+893560651+898314132
1219+902308281+905714272+908596860+911040787+913211164+915253066+917180252
1205+918870034+920275674+921573533+922944337+924273755+925385971+926316039
1192+927237153+928210246+929078069+929689269+930162985+930698181+931279897
1178+931722817+931966555+932131121+932199263+931972233+931332204+930365226
1165+929198955+927765250+926018793+924234988+922695467+921375223+920117223
1151+918805169+917303431+915393554+912947989+910055081+906810763+903234909
1138+899455286+895779349+892443247+889360438+886402446+883711451+881377654
1124+879067717+876271671+872712689+868179030+861985674+852928294+839796720
1111+821581985+797203052+765591439+726834015+683418880+639375947+597794903
1097+560202222+528534151+506232719+496654339+500883599+517113708+541484451
1084+569196156+595089112+613845048+620365735+610806247+585540161+553244620
1070+529174726+523185741+528567512+526458724+501494690+452225843+389522988
1057+328213406+280054536+252051510+247991266+269663862+316598939+384898501
1043+467019162+553484644+635354060+706110762+762775954+805868945+837776058
1030+860375227+873334645+873707786+856849224+820337363+772193590+734363068
1016+728486505+756193678+800609261+844976687+882779909+914011501+939747917
1003+960611713+976856509+988624486+996484036+1001499109+1004440120+1005312967
989+1003892803+1000195572+994056162+984484006+969374686+945284973+907271975
976+850551908+776828424+701942108+652941050+650895163+695284811+766196032
962+840331861+903697923+952463216+987928109+1012757661+1029721658+1041412320
949+1049859483+1056167500+1060779183+1064160385+1066866723+1069086350
937+1070745883+1071907022+1072770040+1073434312+1073741823+1073457026
926+1072597939+1071442697+1070038149+1068020108+1065131295+1061368543
914+1056745940+1051336541+1045385503+1039393187+1034143877+1030429283
903+1028182683+1025761033+1020502004+1009932949+992154420+965408820+928804847
889+884494862+837802430+794913154+763601844+755787394+781173000+834935129
876+898432506+953991489+994415871+1020596573+1035974528+1043285888+1044129687
862+1040488913+1036190092+1035786484+1040928995+1049218580+1057350697
851+1063679135+1067813608+1069852835+1070518417+1070724371+1070737147
839+1070216257+1068992000+1067451496+1066034499+1064708576+1063085298
827+1061051313+1058922214+1056835485+1054494754+1051516286+1047891237
816+1043866948+1039351908+1033867488+1027182617+1019997931+1013897614
804+1010443684+1010314281+1012905411+1016500320+1019347418+1020687428
793+1020664605+1019804098+1018664473+1017339423+1015500145+1013193812
781+1010776530+1008355754+1005710678+1002553230+999105524+995938248+993349847
768+991168332+988956130+986400600+983184510+978937123+973992703+969911520
754+968374729+969331661+971054531+972101117+972241987+971661800+970558866
741+969172664+967618073+965964982+964193081+962231497+960222301+958373958
727+956621276+954814867+952824672+950842230+948866778+946984474+945197611
714+943413698+941628474+939857446+938136214+936521562+934940217+933245630
700+931475258+929848703+928503015+927356400+926196245+924855361+923419363
687+922119103+921052642+920158610+919276154+918279801+917216835+916138471
673+914974876+913904812+913383593+913294103+913009797+912644846+912371078
660+912138752+911980192+911860125+911729629+911780790+912114510+912482737
646+912701849+912916703+913337456+913977649+914694938+915433303+916284255
633+917290218+918351109+919321363+920206659+921254992+922474444+923510656
619+924516946+926070445+928201947+930294682+931904856+933241372+934729131
606+936309057+937781091+939504180+941745101+943929347+945661281+947466270
592+949659034+951871235+953745567+955450965+957287514+959221252+961300446
579+963591709+965886139+968213985+970327031+972155608+974216129+976485880
565+978444625+980125124+982000221+984179225+986433579+988582225+990554292
552+992432556+994374156+996400606+998444637+1000412228+1002184894+1003909729
538+1005901672+1007996700+1009638106+1010992203+1012721734+1014365652
527+1015318980+1016397343+1017864682+1019115693+1019986028+1020827424
515+1022097327+1023434389+1024315425+1024742184+1025105170+1025439763
503+1025231734+1025134982+1025460183+1025281967+1024147037+1022121133
492+1019894735+1018013305+1015978119+1013371264+1011007491+1010081791
480+1010288400+1010332408+1009609713+1007757767+1005018669+1002336574+999377326
467+996563535+995870870+998130028+1001696436+1004491882+1007089564+1009113612
453+1009054315+1008057525+1006376479+1003458291+999762480+995972974+992730894
440+989763784+986475512+983679738+982224193+982096974+983600240+986577943
426+990204848+994044041+997833001+1000796835+1004671081+1009288880+1011288248
413+1011323301+1011632341+1012780812+1013686201+1014068078+1015091185
401+1015710466+1014596066
##END=
