##TITLE=33
##JCAMP-DX=4.24
##DATA TYPE=INFRARED SPECTRUM
##DATE=16/11/2015
##SAMPLING PROCEDURE=Instrument type and / or accessory
##ORIGIN=Default
##XUNITS=1/CM
##YUNITS=TRANSMITTANCE
##RESOLUTION=4
##FIRSTX=3996.3359
##LASTX=399.24785
##DELTAX=-1.9287336
##MAXY=1.1827985
##MINY=0.077451825
##XFACTOR=1
##YFACTOR=1.1015669e-009
##NPOINTS=1866
##FIRSTY=0.21531282
##XYDATA=(X++(Y..Y))
3996+195460497+195601032+195695831+195825056+196036230+196293789+196533004
3983+196721398+196909779+197124943+197304963+197439397+197587669+197774318
3969+197992702+198223720+198440913+198632243+198799697+198954813+199127894
3956+199337648+199555396+199751622+199928883+200104007+200275586+200424792
3942+200567409+200724163+200878617+201012050+201159781+201379368+201633072
3929+201817516+201910313+201997793+202159741+202384916+202650293+202938045
3915+203185755+203353060+203457166+203508583+203542658+203652932+203865729
3902+204118959+204373650+204574557+204650499+204677513+204808984+204987408
3888+205088457+205222714+205436634+205599583+205725441+205859550+205982310
3875+206132354+206320017+206536291+206753795+206911996+207067397+207247999
3861+207337306+207276839+207178699+207326484+207851220+208316773+208369151
3848+208243320+208235610+208386641+208575698+208771965+209027291+209259378
3834+209420352+209584708+209733265+209822747+209898270+209987482+210138879
3821+210369302+210579461+210805664+211044961+211096283+210989309+211001484
3807+211234883+211460950+211614714+211882473+212163704+212299125+212365679
3794+212399484+212422426+212515777+212691726+212878402+213005423+213088629
3780+213242298+213470517+213597848+213563367+213525843+213648833+213894420
3767+214107041+214216517+214244356+214312181+214500792+214655111+214688631
3753+214833900+215211959+215459427+215370702+215378953+215658710+215726265
3740+215494787+215409552+215686955+216105745+216382228+216439462+216380212
3726+216348586+216394443+216479962+216558610+216579753+216503960+216421159
3713+216539387+216829506+216968039+216829533+216595498+216441883+216321991
3699+216092989+215737533+215312156+214839433+214365127+214036875+213909638
3686+213805302+213598444+213355508+213189664+213225849+213499871+213695096
3672+213594480+213489089+213496759+213414338+213222535+213015974+212818855
3659+212695622+212713613+212669393+212340045+211958130+211831664+211787295
3645+211539111+211127828+210708619+210334510+209979190+209601198+209154826
3632+208696145+208402360+208181758+207678950+206899281+206143676+205560192
3618+205044236+204446548+203784809+203110828+202396468+201620018+200781383
3605+199881754+198955395+198056807+197211355+196364239+195424528+194375328
3591+193296747+192270043+191293444+190305401+189276208+188222206+187167135
3578+186117503+185058766+183951223+182736869+181460385+180284827+179243229
3564+178178365+177008299+175783097+174540809+173287740+172005615+170670368
3551+169322919+167961254+166517099+165059079+163730934+162502065+161218114
3537+159841068+158486436+157191582+155862354+154466708+153007782+151470438
3524+149946892+148550570+147241485+145887083+144432255+142963576+141586543
3510+140287022+138969090+137520891+135919955+134351972+132968487+131691286
3497+130426665+129163112+127892133+126571929+125167030+123741556+122375035
3483+120978171+119488673+118086629+116872870+115680390+114341599+112843024
3470+111311646+109966125+108855376+107758330+106538890+105287201+104085454
3456+102921767+101777450+100632390+99460207+98276905+97131371+96058606+95028318
3441+93947268+92739008+91499615+90444964+89563569+88684048+87821308+87056559
3425+86308178+85502218+84715934+83987012+83214586+82318501+81386650+80576375
3410+79921589+79336800+78685761+77838401+76875437+76155240+75809348+75465554
3395+74838573+74128142+73703644+73568520+73419315+73108493+72707694+72299571
3379+71935877+71665163+71451311+71145352+70704012+70347312+70310593+70541814
3364+70781347+70890769+70965223+71071987+71153759+71151683+71090824+71149146
3348+71418474+71742492+72024156+72309128+72583176+72874898+73312977+73875839
3333+74430909+74916990+75312851+75674421+76143532+76749512+77381092+78011380
3317+78684002+79369231+79990483+80475807+80876281+81374976+82118183+83117143
3302+84204766+85150794+85901001+86588124+87360225+88303717+89388919+90456956
3287+91423714+92386069+93430771+94512267+95557070+96561833+97542024+98509621
3271+99585611+100885978+102287691+103618839+104899111+106198085+107502632
3258+108813306+110214796+111733804+113236863+114610493+115959186+117444558
3244+119044817+120691921+122374926+124025845+125579448+127135000+128892500
3231+130838610+132751943+134566717+136380125+138223076+140077918+141958786
3217+143861582+145803552+147835398+149926831+152005373+154027641+155996234
3204+157970007+160001636+162101537+164225679+166301827+168318576+170331186
3190+172402220+174527945+176621907+178653564+180689237+182769105+184876473
3177+186955813+188973211+190980234+193019033+195051893+197046566+199030512
3163+201017785+202979005+204915835+206838097+208685363+210474463+212358429
3150+214339926+216263121+218076177+219803443+221457121+223102818+224829800
3136+226607375+228329974+229977971+231597425+233216852+234812119+236321245
3123+237733354+239105693+240495481+241957722+243512272+245040634+246420737
3109+247741077+249123020+250513810+251823517+253051466+254256527+255483204
3096+256704849+257844276+258880570+259890623+260895345+261849881+262785777
3082+263731899+264675370+265657150+266691497+267688996+268558500+269307611
3069+270029614+270794688+271569176+272291964+272948251+273526974+274023315
3055+274472393+274920198+275381775+275804799+276105185+276285178+276436602
3042+276620004+276800674+276887844+276852159+276757252+276624414+276395290
3028+276029162+275533875+274924717+274173305+273247068+272157476+270870873
3015+269341537+267633047+265767397+263598656+260963630+257804722+254099800
3001+249755094+244650860+238696277+231707266+223416393+213636076+202185497
2988+188880306+173754132+157206056+140187813+124251209+111081939+101884383
2974+97070430+96234061+98302167+102037552+106757876+112631992+120266801
2961+129826109+140478649+150729835+159119525+164748940+167391784+167196140
2947+164468358+159723557+153857509+148258138+144397842+142987533+143672971
2934+145587428+148082554+151040867+154615305+158839781+163565320+168551298
2920+173477460+177974564+181739262+184583825+186394540+187148495+186977159
2907+186133519+184916324+183615991+182411012+181311125+180202473+178878806
2893+177066737+174567593+171301752+167176011+162258575+157135430+153026274
2880+151479028+153425057+158463670+165430158+173399434+181872140+190496324
2866+198981557+207080870+214596916+221491967+227915391+234063874+240085471
2853+246042894+251866507+257433535+262657484+267474481+271848108+275799307
2839+279403532+282762102+285981396+289153155+292320315+295448733+298472531
2826+301366874+304149454+306834936+309384442+311760286+313998124+316142706
2812+318248816+320415555+322682829+325006295+327341746+329656608+331919391
2799+334113510+336210313+338156098+339925813+341524571+342961055+344285778
2785+345542351+346695440+347723997+348670092+349567976+350424819+351200390
2772+351848317+352428419+353006952+353543822+354013163+354464729+354941727
2758+355427517+355878759+356290257+356670400+357026247+357418700+357889772
2745+358371531+358840548+359382612+360018175+360729032+361555682+362483867
2731+363415948+364301549+365174002+366062011+366981106+367993674+369158884
2718+370474516+371883919+373282095+374570213+375708178+376702349+377606700
2704+378527932+379549076+380649679+381743357+382772807+383757482+384735258
2691+385684302+386568118+387380645+388123426+388803170+389431212+390041372
2677+390706912+391501529+392431311+393418908+394402960+395371321+396295935
2664+397178777+398075904+398994809+399868479+400650543+401369219+402093115
2650+402857188+403637142+404410494+405164881+405891483+406593439+407264850
2637+407912480+408537817+409137047+409722966+410292733+410867587+411476881
2623+412078464+412641225+413218351+413836627+414439076+414983493+415497420
2610+416010076+416499897+416958443+417418180+417889064+418357566+418814192
2596+419240949+419657913+420121518+420600815+421042344+421485199+421948480
2583+422408515+422862922+423301448+423728584+424195842+424727976+425282729
2569+425820869+426334607+426813525+427253999+427682678+428102076+428473507
2556+428803409+429129362+429445926+429736437+430045886+430440097+430924832
2542+431486132+432114689+432770895+433422421+434102814+434836288+435570899
2529+436294552+437048398+437807033+438525843+439226338+439928104+440610174
2515+441293733+442004941+442706518+443404902+444151768+444926365+445684053
2502+446435004+447204731+447995723+448787094+449575245+450370836+451153928
2488+451921815+452703987+453493140+454265085+455049557+455873149+456690844
2475+457484514+458296041+459132186+459968170+460801177+461635700+462461998
2461+463287917+464145869+465029522+465878167+466649112+467360212+468054267
2448+468749351+469425388+470076427+470731416+471388353+472028841+472665649
2434+473279516+473816709+474293301+474759558+475217428+475651057+476039993
2421+476396192+476776037+477205878+477699352+478276316+478915289+479575580
2407+480251942+480937503+481612891+482294339+482980766+483682829+484395390
2394+485086795+485734750+486307168+486724240+486960101+487109712+487265600
2380+487452871+487723795+488127015+488588564+489049302+489642986+490384766
2367+490953397+491382914+492022481+493068787+494504243+496103434+497301568
2353+497298701+495952740+494712779+495241153+497365687+499401645+500383615
2340+500785590+501191624+501787742+502514372+503337802+504115131+504584959
2326+504847063+505362180+506258063+507127215+507639410+507961900+508428373
2313+509127569+509920211+510688991+511444407+512186511+512903671+513620290
2299+514348597+515078148+515802234+516511278+517219132+517910536+518521913
2286+519016144+519457998+519951742+520520319+521099448+521627443+522090724
2272+522501898+522879578+523229014+523559944+523887250+524213148+524549814
2259+524956875+525499047+526168754+526916648+527717894+528548953+529396408
2245+530179473+530938621+531667253+532348701+533020139+533714465+534430868
2232+535148515+535847008+536530458+537216018+537896330+538574911+539262852
2218+539944896+540617524+541274191+541876586+542409126+542937771+543529452
2205+544161391+544793492+545450537+546171376+546938641+547720895+548507531
2191+549303636+550119491+550927121+551681995+552397749+553139474+553915072
2178+554661722+555373579+556098098+556829381+557519920+558178372+558869289
2164+559606686+560342676+561054588+561758816+562468888+563178797+563867117
2151+564530872+565190244+565842311+566462021+567048941+567645059+568283220
2137+568951033+569642438+570389358+571203860+572047743+572897903+573781232
2124+574719049+575673855+576594573+577498247+578410254+579299210+580140767
2110+580950778+581759490+582570530+583353811+584092831+584813887+585559509
2097+586312164+587043718+587761852+588491240+589228042+589942930+590609877
2083+591238839+591866774+592510617+593154351+593770165+594351403+594927015
2070+595507712+596071419+596662722+597356507+598117604+598884274+599679946
2056+600535354+601416302+602281829+603136480+603962021+604726959+605450342
2043+606154895+606837101+607504264+608183656+608860830+609506620+610173135
2029+610923301+611747273+612600787+613446132+614246187+615017456+615833419
2016+616691208+617521348+618309229+619087478+619847492+620551721+621219642
2002+621904769+622604074+623264041+623854369+624422946+625060945+625737415
1989+626326987+626849300+627410302+628032718+628644419+629204988+629773241
1975+630395818+631035386+631615921+632164207+632796092+633503404+634182796
1962+634825935+635473349+636083807+636606770+637070375+637506169+637867563
1948+638066359+638084215+638055537+638117275+638147793+637972642+637655077
1935+637314569+636976929+636672404+636543192+636800155+637644417+639113205
1921+640932132+642928536+645065083+647058619+648756396+650312570+651844286
1908+653324166+654677919+655894775+657032145+658111565+659116856+660081727
1894+661021221+661918185+662873208+663907663+664839582+665655815+666502999
1881+667397421+668273769+669134264+669975388+670699204+671401376+672378042
1867+673553127+674585039+675427353+676228707+677077676+677988493+678897307
1854+679721440+680443795+681074110+681647232+682391609+683464103+684514629
1840+685316578+686109653+686973286+687748343+688493639+689432268+690427548
1827+691288746+692218609+693236777+694144779+694975298+695829246+696665878
1813+697464581+698334328+699287999+700173708+700886918+701532060+702353380
1800+703333996+704137406+704682446+705353938+706381521+707397038+708108192
1786+708725143+709429046+710178077+710929055+711550009+711941271+712408773
1773+713267428+714233002+714973051+715537137+716013349+716596103+717363043
1759+718113481+718827827+719511927+720148411+720983420+722078964+723119912
1746+723946427+724663100+725420842+726138651+726527154+726877996+727805153
1732+728946852+729715416+730277284+730768431+731123764+731269155+731299727
1719+731635851+732387209+733050639+733356408+733413926+733344288+733246838
1705+733080940+732843185+732875542+733160371+733257118+733203767+732912120
1691+732184679+731179226+730127835+729404668+729113833+728596605+727507175
1678+726274140+725298393+724465548+723555490+722806892+722317368+721695819
1664+720938618+720381458+719915526+719133380+718069706+717513412+717904728
1651+718032750+717334582+716888075+717070693+717211647+717116252+717119824
1637+717763396+719351710+721122155+722372776+723583464+725237683+727240689
1624+729456234+731579795+733351809+735465522+738492215+741592658+744131072
1610+746449966+748783036+751047929+753219430+755316314+757275546+759061737
1597+760754698+762432454+764045497+765519371+766868794+768132563+769310245
1583+770342103+771125438+771729727+772602721+773819469+774608161+774852355
1570+775264828+775910023+776270551+776112769+775624490+775612586+776535685
1556+777312690+777354408+777151391+776990904+776784857+776343706+775750618
1543+775446093+775778592+776302421+776087663+775286850+774651990+774140822
1529+773347855+772364479+771389219+770429543+769515047+768560132+767406204
1516+766119656+764668670+762834863+760641610+758501438+756620719+754379255
1502+751211392+747204948+742455804+736847302+730268843+722396530+712673744
1489+701554407+690626344+680866494+672118969+663939479+656293612+649250465
1475+642174365+633630506+623047118+612043140+602320626+593785045+585038980
1462+575145481+565501424+560451706+564140476+574688856+587096366+598713560
1448+608839782+617125325+623193537+627134888+629479104+631129428+632932879
1435+634669182+635632592+635938795+636057780+636182934+636469820+637029739
1421+637966907+639662140+642211647+645071089+647944978+650923947+654000853
1408+657074026+660136377+663049711+665420333+667063947+667827046+667113457
1394+664346433+659311161+651774756+641516617+629680552+619393789+614018442
1381+615719953+624462879+637894238+653494826+669786277+685850795+701215143
1367+714851035+725189688+731842223+735440740+736822141+736958712+736625077
1354+736042594+735052237+733546709+731879558+730893098+731153578+732289975
1340+733586534+734852900+736257839+737945498+740081882+742807891+746105346
1327+749858073+753997625+758490779+763284184+768295593+773406888+778546536
1313+783700253+788794449+793668260+798211032+802375799+806131556+809535605
1300+812683881+815614801+818332045+820833556+823086383+825038959+826594375
1286+827478407+827289675+825748003+822929142+819402645+816272171+814944283
1273+816549209+821323513+828398801+836405953+844263603+851395164+857584418
1259+862740785+866854582+870044738+872364335+873653319+873774956+872801589
1246+870807025+867820318+864122782+860349169+857303863+855887452+856926236
1232+860714080+866783591+874149119+881787735+888915130+895056281+900182943
1219+904569015+908385699+911635375+914375886+916774969+919020383+921185066
1205+923142837+924838287+926460906+928144020+929723244+931045559+932168320
1192+933256668+934362222+935330989+936027371+936578092+937180217+937787752
1178+938185886+938349078+938433597+938399724+938014252+937187792+936050746
1165+934680924+932973678+930941453+928884555+927055997+925435433+923895492
1151+922309018+920540304+918379625+915576780+912132745+908271962+904143881
1138+899880799+895761537+891957461+888313006+884776011+881603386+878814231
1124+875996670+872706249+868644452+863422071+856259343+846015218+831512339
1111+811641742+785199071+751120651+709647538+663489455+616924364+573287380
1097+534233911+501579152+478516560+468293429+472044857+488026426+512364908
1084+540157436+566056095+584552108+590382944+579517918+552308740+517756379
1070+491549245+483826543+488140109+485883711+461679907+413800347+352832018
1057+293499728+247375301+220884405+217214938+238067856+283551038+350745198
1043+432969962+521076668+605725757+679628481+739202232+784629953+818187844
1030+841845581+855418598+855974027+838473240+799948687+748855650+708728119
1016+702437627+731540620+778368356+825471777+866007398+899893244+928130709
1003+951159592+969061326+981905495+990309158+995413148+998008971+998115566
989+995475481+990096401+981978217+970322930+953101238+926830471+886402256
976+826799178+749523842+670818243+619181844+616853589+663025687+736982412
962+814931567+882436881+935241168+974381752+1002389633+1021985626+1035772915
949+1045839779+1053414601+1059010658+1063065800+1066207583+1068766071
937+1070679689+1071979927+1072898914+1073543351+1073741823+1073297480
926+1072281530+1070936382+1069223508+1066775619+1063355499+1058971050
914+1053709819+1047678726+1041049513+1034290654+1028326656+1024098906
903+1021483279+1018643208+1012773143+1001266980+982003540+953165086+914090083
889+867120311+817759247+772629072+739928212+731850989+758449386+814963654
876+882078409+941131794+984261615+1012142232+1028400352+1036171590+1037166004
862+1033202198+1028288671+1027596293+1033163781+1042262960+1051031642
851+1057689209+1062018034+1064272538+1065132005+1065372898+1065285566
839+1064671862+1063440775+1061894341+1060325614+1058710678+1056825522
827+1054639628+1052357636+1049978249+1047203758+1043800088+1039866366
816+1035581044+1030687646+1024620625+1017307041+1009632442+1003184602+999526295
802+999329446+1001905033+1005518538+1008444101+1009804292+1009619239+1008530242
789+1007229571+1005743523+1003665739+1001053033+998266530+995456543+992520807
775+989148304+985390112+981812752+978864138+976457263+974101792+971330006
762+967766714+963116157+957735454+953276118+951634885+952714250+954532203
748+955602154+955762641+955162789+953930620+952344578+950618935+948809098
735+946871889+944789560+942673142+940688209+938852075+936955664+934648566
721+932417221+930144536+927913949+925967757+924151320+922286075+920451673
708+918706876+916924202+914982772+912996540+911161056+909547635+908105956
694+906679968+905101881+903389819+901724345+900274549+899136746+898266782
681+897395087+896327679+895011749+893079681+890908721+890999408+893462123
667+893143042+889693596+888313763+889267271+889857546+889588029+889135462
654+888842408+888951329+889449348+889884384+890048226+890277865+890816573
640+891506517+892170921+892870712+893759181+894829078+895916127+896972983
627+898102020+899382184+900648767+901714010+902771299+904307994+906304831
613+908234735+909864281+911472616+913294140+915118045+916807002+918678956
600+920774596+922683235+924480843+926662192+929120470+931273899+933161652
586+935371246+937955490+940369832+942378681+944337534+946481980+948663870
573+950671637+952476496+954464567+956845362+959100948+960972793+963033912
559+965509830+967883698+970035936+972244015+974407291+976355755+978357354
546+980538594+982515303+984172119+985832182+987777616+989925958+991859488
532+993518793+995212945+996868354+998154200+999127079+1000248758+1001673122
519+1003035261+1004191137+1005478172+1006825053+1007724127+1008156999
507+1008470290+1008722329+1008690189+1008341078+1008064148+1007867408
496+1006924830+1004795101+1002194624+999815237+997495585+995043475+992949567
482+991900069+991797803+991787523+991172845+989690367+987192048+983767384
469+980032134+977352658+977417805+980329517+984155995+987293232+989533019
455+990990065+991668808+991541760+990505248+988310805+984908109+980998845
442+977002140+972468242+968206620+965841193+964993306+964927184+966565171
428+970040590+973994764+977828276+982048775+987176357+992475789+996200217
415+998099874+998462945+997729228+997669924+998449202+998122492+996830262
401+995874914+995170090
##END=
