##TITLE=Ñìåñü_7_250ìêì
##JCAMP-DX=4.24
##DATA TYPE=INFRARED SPECTRUM
##DATE=9/3/2017
##SAMPLING PROCEDURE=Instrument type and / or accessory
##ORIGIN=Default
##XUNITS=1/CM
##YUNITS=TRANSMITTANCE
##RESOLUTION=2
##FIRSTX=3998.2792
##LASTX=399.2493
##DELTAX=-0.96437028
##MAXY=0.97727048
##MINY=3.5238097e-006
##XFACTOR=1
##YFACTOR=9.1015406e-010
##NPOINTS=3733
##FIRSTY=0.77212095
##XYDATA=(X++(Y..Y))
3998.28+848340938+850822495+853166525+855379776+857427536+859326900+861153309
3991.53+862947367+864775152+866668294+868611404+870577173+872517074+874416372
3984.78+876311610+878131602+879788265+881323054+882851228+884387589+885800438
3978.03+886944457+887818205+888483634+888921032+889057838+888892806+888510419
3971.28+887984874+887376551+886748581+886121070+885517528+884975676+884478618
3964.53+883981691+883547371+883325496+883349138+883490134+883679855+883962700
3957.78+884353732+884794666+885227283+885654268+886071168+886397170+886579424
3951.03+886685254+886761024+886785320+886920554+887328941+887873740+888356717
3944.27+888844738+889537083+890390464+891164276+891860746+892603321+893388266
3937.52+894170592+894936808+895631903+896163670+896595174+897157523+897920399
3930.77+898687794+899229646+899392843+899173784+898772339+898414183+898134743
3924.02+897816862+897423800+897049402+896789478+896610170+896399363+896237737
3917.27+896312656+896560989+896789216+896936041+897018229+897029952+896963219
3910.52+896818882+896589018+896261902+895850242+895386386+894872825+894264961
3903.77+893518719+892741109+892126171+891751250+891591654+891491784+891219352
3897.02+890772851+890318688+889974349+889775592+889735906+889836889+889917898
3890.27+889776247+889484561+889298180+889431973+889932109+890484374+890685751
3883.52+890571212+890473241+890688567+891261395+891866968+892245426+892530694
3876.77+892968157+893709684+894743748+895770870+896538002+897329234+898598795
3870.02+900220422+901539230+902328956+903011477+904008998+905221191+906153551
3863.27+906617668+906826838+906876217+906717014+906421006+906095724+905722505
3856.52+905283470+905075544+905502595+906270382+906606600+906352701+905868610
3849.77+905547455+905525581+905747849+906154206+906701362+907324879+907880025
3843.02+908213165+908420960+908729673+909147752+909616322+910102771+910350055
3836.26+910194127+909817634+909380432+909005903+908840021+908741854+908444798
3829.51+908067518+907929469+908088540+908296401+908340213+908338444+908647354
3822.76+909588555+911082152+912417201+913005615+913187673+913699335+914867388
3816.01+916223983+916972910+917075072+917051627+917211157+917524781+917909003
3809.26+918423677+919232198+920268030+921067579+921448068+921901117+922964389
3802.51+924709331+926614850+927967778+928760451+929604794+930895769+932449157
3795.76+933772680+934663390+935316114+935918805+936458757+936840490+937014755
3789.01+937030145+937009647+937092555+937373632+937829432+938317977+938784779
3782.26+939392971+940384663+941797382+943274475+944367544+945092961+945766314
3775.51+946546217+947381981+948170725+948884222+949605120+950351886+950851628
3768.76+950820783+950477754+950279979+950340949+950401853+950315998+950218158
3762.01+950307353+950717835+951399702+952088379+952710324+953490227+954479955
3755.26+955539297+956789997+958553079+960749040+962810226+964531657+966051122
3748.51+967123038+967577332+967820359+968518140+969798440+970939054+971523212
3741.76+971935593+972429900+972923029+973335934+973714850+974227757+975086966
3735.01+976321097+977784700+979375547+980852706+981832153+982372564+982868705
3728.26+983550572+984435518+985409463+986304757+987065341+987755000+988336669
3721.50+988578846+988376814+987912959+987306338+986511570+985584318+984709391
3714.75+984073301+983864916+984186334+984781297+985257268+985618306+985991984
3708.00+986393821+986910264+987606276+988404908+989215460+990032364+990736169
3701.25+990980244+990610758+989937471+989342246+988989917+988858089+988831108
3694.50+988844664+989007075+989556000+990592749+991885230+993171818+994300316
3687.75+994965483+995238832+995687363+996623914+997877692+999188903+1000475753
3681.00+1001768431+1003017100+1004049265+1004879266+1005899905+1007328734
3675.22+1008517481+1008643416+1007998616+1007512233+1007741835+1008436930
3669.43+1008963393+1009108450+1009068895+1009137527+1009519652+1010244676
3663.64+1011248680+1012469583+1013828404+1015160899+1016261237+1017062293
3657.86+1017708861+1018321899+1018695707+1018583460+1018171144+1017869897
3652.07+1017910435+1018094588+1017884829+1016969823+1015615979+1014171498
3646.28+1012747254+1011516397+1010781027+1010721236+1011268916+1012204485
3640.50+1013305609+1014416949+1015416763+1016211204+1016802041+1017275327
3634.71+1017665639+1017850185+1017645861+1017061048+1016304329+1015501963
3628.93+1014439805+1012832455+1010853391+1008923117+1007305944+1006081439
3623.14+1005289945+1004984965+1005214240+1005981504+1007162655+1008572492
3617.35+1010120837+1011838928+1013868679+1016297649+1019026686+1021788534
3611.57+1024277753+1026552235+1028938571+1031484699+1033992451+1036332225
3605.78+1038365644+1040060683+1041566133+1043063004+1044683714+1046474432
3599.99+1048302676+1049979771+1051470486+1052929047+1054581781+1056487104
3594.21+1058529887+1060605153+1062539749+1064122279+1065411094+1066720471
3588.42+1068266590+1070026987+1071737350+1072968993+1073557997+1073741823
3582.64+1073697422+1073423680+1072998266+1072573639+1072218429+1071931851
3576.85+1071681489+1071428965+1071196939+1071023329+1070925096+1070929877
3571.06+1070980892+1070853845+1070409112+1069886579+1069722530+1070090379
3565.28+1070644871+1070965110+1070913112+1070496801+1069723709+1068634242
3559.49+1067372868+1066093484+1064789477+1063367917+1061849631+1060457607
3553.70+1059479012+1059008215+1058778678+1058485813+1058142981+1057932959
3547.92+1058020648+1058590529+1059658385+1060980009+1062276616+1063348467
3542.13+1064086850+1064521759+1064833026+1065115151+1065342462+1065486929
3536.35+1065465973+1065113710+1064471792+1063756068+1063109434+1062552258
3530.56+1062072358+1061662531+1061337838+1061079421+1060880925+1060920677
3524.77+1061380471+1062025599+1062433461+1062516501+1062539487+1062646168
3518.99+1062747217+1062686051+1062405956+1061959390+1061399529+1060612619
3513.20+1059380387+1057697070+1055808643+1053968742+1052285229+1050691304
3507.41+1049140798+1047654339+1046282355+1045096619+1044063800+1042867718
3501.63+1041376085+1039786090+1038251890+1036600139+1034485907+1031644033
3495.84+1028061156+1023866223+1019105207+1013740387+1007826250+1001545377
3490.06+995168301+988960055+983167464+978003825+973540454+969834394+967084072
3483.31+965522433+965169843+965765264+966988459+968510609+970136230+971916470
3476.55+973930504+976069687+978127729+979987210+981692269+983359738+984999767
3469.80+986382885+987240981+987575496+987479752+986991470+986279413+985547579
3463.05+984856675+984249596+983776769+983317170+982760322+982254685+982014931
3456.30+982072627+982321614+982634453+982927252+983182657+983437080+983710036
3449.55+983943437+984117375+984232242+984152215+983788164+983330792+982879838
3442.80+982414542+981894956+981351140+980986696+980963186+981181262+981454873
3436.05+981813096+982275707+982668900+983066349+983843174+985042138+986239727
3429.30+987170188+987929724+988576161+989105766+989551547+989867856+989981872
3422.55+989900535+989632032+989076559+988163387+987065144+986001283+985025832
3415.80+984155882+983431710+982885929+982436743+981989849+981711654+981791943
3409.05+982036084+982163721+982215457+982329473+982480358+982599023+982679443
3402.30+982645651+982289001+981396458+979874766+978060276+976187763+974464759
3395.55+972858130+971210242+969610423+968233461+966911575+965377048+963761250
3388.80+962420765+961473998+960782439+960227424+959750209+959301089+958856945
3382.05+958456352+958044691+957336498+956193265+954874326+953494418+951794598
3375.30+949692154+947447993+945277311+943228633+941324162+939527091+937728187
3368.55+935910750+934188401+932629906+931233101+930071662+929243429+928755277
3361.79+928536414+928418535+928195285+927803598+927323043+926808893+926254467
3355.04+925628724+924919680+924223995+923644749+923023853+922038381+920675500
3348.29+919280922+918124394+917245014+916630536+916284625+916086195+915823390
3341.54+915557506+915612255+916037864+916468386+916634727+916616914+916565898
3334.79+916582598+916723922+916915018+917023729+916963807+916708598+916322871
3328.04+915952075+915688680+915383634+914790832+913972618+913239343+912771821
3321.29+912577385+912628074+912907644+913405684+914089908+914905371+915788091
3314.54+916670680+917496359+918210970+918809863+919347261+919800573+920049560
3307.79+920030962+919773592+919281576+918481176+917344884+916039109+914788867
3301.04+913680409+912726961+911974826+911486936+911246462+911121183+911004220
3294.29+910951305+911112538+911415161+911532909+911381303+911210509+911139192
3287.54+911024325+910715612+910165967+909361572+908327508+907143803+905848112
3280.79+904414307+902853257+901276162+899825853+898575285+897487389+896447104
3274.04+895437991+894617879+894059523+893570324+892897757+892012876+891093221
3267.29+890267214+889527456+888828169+888093257+887245574+886285577+885237499
3260.54+884080710+882765635+881293846+879779358+878277706+876629622+874732289
3253.79+872788197+871042076+869526017+868194046+867088272+866284007+865668481
3247.03+864921322+863847965+862535248+861127769+859687807+858186352+856503690
3240.28+854541588+852295397+849819538+847184280+844469060+841756722+839009413
3233.53+835999888+832573005+828905451+825305874+821916843+818723688+815655355
3226.78+812655522+809721440+806851078+803975739+801012514+797950205+794816448
3220.03+791580333+788109114+784284257+780129534+775743440+771157868+766303466
3213.28+761143626+755749401+750202393+744562194+738927758+733412445+728020120
3206.53+722670756+717386880+712303202+707465631+702795644+698236071+693783114
3199.78+689441094+685184798+680952406+676715692+672476292+668220717+663948442
3193.03+659660778+655342072+651020615+646756919+642553866+638395803+634344814
3186.28+630486820+626858297+623484721+620398837+617620290+615155367+612990841
3179.53+611100252+609444572+607982147+606699817+605582451+604564629+603585903
3172.78+602648500+601766828+600943048+600190192+599500598+598842897+598221935
3166.03+597692918+597302148+597065342+597012492+597157222+597463774+597934112
3159.28+598631238+599585667+600778606+602186217+603796972+605623971+607624777
3152.53+609603512+611384407+613030920+614708670+616460422+618206608+619839892
3145.78+621298387+622567293+623637899+624533979+625343941+626143097+626884100
3139.03+627463673+627902577+628352418+628946923+629709078+630581254+631489056
3132.27+632361560+633157704+633818548+634208729+634247695+633969827+633389598
3125.52+632471646+631198942+629562515+627527393+625050094+622094924+618660640
3118.77+614860407+610877722+606780040+602491983+597939352+593111276+588023669
3112.02+582706197+577250414+571781009+566353844+561006444+555887207+551179499
3105.27+546880963+542729220+538313886+533215997+527026186+519270413+509480075
3098.52+497337553+482627685+465206854+445476276+424897097+405688757+389961492
3091.77+378754048+371686821+367713043+366031363+366265485+368069857+370782916
3085.02+373475280+375274348+375610697+374214875+370969231+365794262+358632077
3078.27+349393120+337878895+323919100+307909448+291492131+277265306+267023327
3071.52+260348164+255326602+250305842+244674452+238546396+232347793+226600422
3064.77+221682758+217714006+214582476+212004062+209641841+207237479+204704547
3058.02+202100134+199493200+196891357+194269229+191599950+188852052+185986208
3051.27+182940861+179653108+176088764+172208537+167928403+163112574+157616564
3044.52+151331500+144184230+136164006+127421345+118356981+109602385+101857442
3037.77+95605376+90884570+87317312+84357919+81537009+78597605+75535649+72534179
3030.05+69828160+67570493+65808008+64512973+63581697+62869473+62239903+61565756
3022.34+60748152+59766491+58636794+57374093+56032086+54669520+53299447+51910693
3014.62+50492870+49007902+47389046+45597043+43630058+41515008+39286528+36961783
3006.91+34572533+32161585+29746174+27353909+25029797+22785033+20613497+18514334
2999.19+16476559+14485136+12547223+10704666+8980828+7385574+5947936+4688723
2991.48+3618566+2728557+1987450+1390128+947256+625755+394149+254414+180405
2982.80+132480+99390+85995+72532+45232+30622+46647+49355+40676+62204+94966
2972.19+106877+113881+117208+91617+61055+66000+89597+94613+76309+55872+47308
2961.58+44656+45566+58032+82389+103899+113742+113769+102511+87631+80806+76347
2950.97+73875+78951+79759+64695+42301+30807+34689+46503+64706+76642+66273+52343
2939.40+54649+64106+64170+54379+42421+27824+22359+32952+41877+47015+58698+74617
2927.83+91802+94193+63539+32498+43104+82396+102746+95141+91316+93499+74133
2917.22+45115+39661+56019+71148+69291+48129+33564+47966+61161+51719+44993+47920
2905.65+57184+72279+72002+53342+45913+61573+84532+95893+85762+79238+93011+96105
2894.08+71762+40480+20153+23390+47705+59007+48856+40044+42437+49632+54614+59513
2882.50+59419+51824+53590+68586+69179+49512+35584+44693+63987+66260+43886+28954
2870.93+42842+58521+53143+43886+39950+41678+45677+55524+71591+77260+70913+73126
2859.36+89203+94991+80845+69837+77755+104519+130750+123030+98587+100792+110585
2848.75+89440+69570+86470+110729+113660+103174+93423+93457+91934+68851+41045
2838.14+36913+43157+45180+43514+54279+84718+134873+219379+362460+572679+864319
2827.53+1252289+1755216+2397039+3191017+4149571+5279630+6570749+8021275+9635959
2818.85+11429897+13414206+15597717+18013359+20660847+23494767+26493392+29668253
2811.14+33041153+36639261+40463909+44489272+48710924+53115338+57629089+62153184
2803.42+66613906+70957133+75126640+79082352+82837103+86441772+89941568+93424133
2795.71+97059745+101037297+105491834+110474242+116002431+122191203+129299196
2788.96+137556005+146982227+157384096+168444633+179836836+191281528+202559127
2782.21+213507940+224026543+234053327+243520118+252377834+260665455+268518626
2775.46+276064607+283362418+290456332+297355711+304020478+310424732+316531373
2768.71+322243118+327444020+332030901+335932315+339148161+341797958+344147228
2761.96+346514638+349146523+352167672+355567345+359241186+363070300+366896631
2755.21+370480817+373596434+376088501+377872867+378968948+379463485+379445410
2748.46+378954999+377942580+376340829+374164743+371435018+368099196+364066937
2741.70+359239974+353561006+347015920+339596135+331281025+322055853+312044328
2734.95+301604115+291295698+281820360+273865960+267850987+263753010+261145830
2728.20+259403623+257952364+256483538+255105660+254308927+254703790+256716759
2721.45+260475457+265925739+272975169+281529395+291400119+302227435+313526432
2714.70+324770254+335504380+345446847+354501749+362723178+370245877+377189363
2707.95+383600657+389444034+394603907+398925135+402269437+404594476+406020325
2701.20+406808643+407320665+407940416+408891309+410117582+411372833+412391965
2694.45+413012436+413199570+413029562+412678019+412408174+412485221+412966234
2687.70+413637983+414164609+414217491+413582809+412211577+410197641+407723289
2680.95+404947623+401881385+398349753+394102658+388978149+382945444+376045017
2674.20+368411707+360371518+352452187+345347992+339911168+336852297+336137719
2667.45+336790738+337383900+336696598+334093593+329782157+325092654+322388666
2660.70+324062815+330992876+341952674+354566484+366775346+377707214+387543066
2653.95+396668302+405057251+412405554+418473754+423254809+426930352+429712828
2647.20+431799194+433302451+434188019+434406718+434046400+433378155+432911844
2640.45+433361652+435334134+438996023+444005698+449716592+455473361+460799575
2633.70+465446837+469353555+472575459+475195360+477259951+478772343+479725856
2626.94+480166954+480259850+480329235+480764701+481829740+483551368+485711507
2620.19+487937364+489880670+491334155+492212061+492544318+492498279+492375357
2613.44+492496380+492977852+493670131+494279927+494499805+494153436+493342950
2606.69+492410001+491767329+491722371+492326699+493400318+494680619+495991764
2599.94+497446592+499482466+502615994+507132704+512901523+519402405+526062391
2593.19+532552304+538771487+544771349+550725008+556843012+563257154+570011116
2586.44+577148252+584756119+592890186+601480119+610350540+619298695+628148683
2579.69+636781315+645134376+653158553+660812983+668121567+675155624+681965317
2572.94+688563351+694924186+700992287+706705833+712003985+716883994+721428701
2566.19+725742953+729925050+734033015+738059183+741949071+745636795+749081884
2559.44+752290887+755340229+758318516+761274472+764243852+767247090+770292700
2552.69+773425539+776713587+780136410+783566699+786858938+789953205+792912632
2545.94+795811678+798631417+801267199+803596298+805540260+807103536+808339370
2539.19+809313381+810142924+811017327+812167698+813766666+815879260+818468283
2532.44+821363138+824310907+827116436+829745472+832256564+834658356+836894330
2525.69+838926243+840788343+842563803+844344829+846198481+848152921+850171997
2518.94+852164224+854062146+855846905+857534086+859156040+860763980+862410689
2512.18+864099834+865822051+867620432+869561839+871679476+873993054+876515476
2505.43+879238423+882130920+885097943+887970663+890564663+892742877+894463588
2498.68+895785670+896807029+897605072+898231535+898731344+899155382+899525130
2491.93+899847137+900152903+900471439+900811259+901168172+901501115+901722663
2485.18+901747680+901533074+901088799+900488270+899824544+899195854+898749091
2478.43+898645423+898944181+899565405+900330311+901009165+901448986+901641981
2471.68+901635170+901455535+901155860+900829138+900556967+900382571+900336729
2464.93+900460503+900801370+901412968+902330265+903522680+904882419+906259970
2458.18+907494690+908436088+908985144+909075452+908679378+907869416+906786497
2451.43+905580788+904398851+903337937+902402761+901554292+900765352+900031684
2444.68+899352175+898722306+898148692+897596100+896994719+896337280+895694379
2437.93+895118931+894559987+893875632+892914457+891584254+889866621+887808906
2431.18+885451319+882767992+879729129+876388363+872913214+869526934+866425332
2424.43+863731920+861499481+859744193+858480657+857720401+857394137+857378289
2417.68+857584250+857937102+858357408+858780005+859164226+859495271+859798024
2410.93+860122258+860488142+860849377+861133073+861298366+861342506+861271909
2404.18+861048724+860604908+859895930+858917793+857693354+856267865+855033276
2397.42+854417749+854741852+856139508+858527023+861672044+865308294+869204796
2390.67+873152902+876934340+880339089+883213642+885489892+887174584+888298367
2383.92+888895295+889044150+888867790+888480229+888006812+887688211+887792730
2377.17+888398958+889443761+890983659+893156764+895952142+899245756+902797657
2370.42+906113406+908823976+911230810+913959062+916949137+919373653+920717871
2363.67+921436607+922390710+923722812+924721970+924728257+923751496+922161303
2356.92+920178442+917884772+915299612+912352498+909368448+907325730+907141183
2350.17+908464575+909611214+909216907+907656709+906788920+907878191+910313447
2343.42+912266380+912766385+912264285+911581960+910932445+910108796+908882196
2336.67+907117869+905181898+903642786+902676241+902006294+901616244+901642439
2329.92+901651608+901096331+900175759+899497887+899126174+898861600+899037175
2323.17+900037250+901565556+903041929+904339322+905537238+906340652+906257481
2316.42+905140967+903197006+900858607+898650727+896988956+896084429+895948933
2309.67+896388950+897044425+897627862+898177442+899001091+900379362+902370475
2302.92+904863689+907690894+910641217+913451526+915856985+917735327+919105019
2296.17+920074970+920805494+921447740+922056391+922544411+922769102+922641989
2289.42+922192934+921499214+920665022+919866193+919341695+919327680+919971760
2282.66+921341125+923440491+926189502+929438126+932976733+936565504+940007646
2275.91+943175260+945981967+948348199+950261446+951789948+953031217+954064888
2269.16+954911917+955557110+955964645+956099944+955927382+955493389+954934379
2262.41+954377923+953948253+953791277+954021404+954597245+955369027+956166415
2255.66+956878210+957544359+958380713+959639337+961418202+963347690+964793873
2248.91+966656301+968193120+969416970+970389540+971096881+971505268+971612538
2242.16+971467284+971120261+970599889+969951291+969268507+968659922+968179564
2235.41+967830445+967608504+967492197+967444259+967455261+967543736+967740398
2228.66+968147278+968910023+970042713+971342791+972483797+973171165+973285311
2221.91+972876466+972029110+970818293+969324958+967643410+965885174+964155032
2215.16+962567853+961258475+960307058+959761997+959854401+960920620+962912584
2208.41+965305142+967634045+969840418+972085365+974425139+976679385+978545284
2201.66+979777712+980283218+980097493+979334617+978175470+976793335+975290897
2194.91+973742683+972238936+970858634+969645394+968640145+967923962+967626448
2188.16+967849567+968560576+969632034+970987057+972563955+974142359+975348920
2181.41+975861826+975573939+974593772+973217007+971898592+971100614+971049337
2174.65+971609525+972443325+973290223+974073858+974846492+975692014+976620773
2167.90+977573827+978545742+979641824+981011713+982746373+984856347+987276869
2161.15+989863927+992429309+994794623+996852862+998606317+1000121394+1001381066
2154.40+1002230976+1002521942+1002220105+1001420228+1000315502+999198137
2148.62+998409066+998205855+998668204+999719819+1001211385+1002974009
2142.83+1004858245+1006719428+1008433591+1009994968+1011593936+1013524472
2137.04+1015949053+1018752093+1021544524+1023902634+1025610903+1026612942
2131.26+1026902598+1026520669+1025561197+1024138066+1022441127+1020779028
2125.47+1019478492+1018734084+1018538535+1018767876+1019283991+1020010848
2119.69+1020970517+1022233856+1023831776+1025719875+1027839804+1030119853
2113.90+1032413588+1034511317+1036259926+1037601589+1038509456+1039016338
2108.11+1039210053+1039158055+1038867744+1038324386+1037518484+1036478985
2102.33+1035347474+1034318977+1033584523+1033303643+1033464352+1034071496
2096.54+1035082246+1036425939+1038032373+1039813398+1041624549+1043293720
2090.75+1044702051+1045811689+1046622436+1047116875+1047297099+1047187079
2084.97+1046814449+1046187331+1045266562+1044003878+1042396593+1040505023
2079.18+1038449403+1036395945+1034508173+1032913397+1031704871+1030935250
2073.40+1030620905+1030767993+1031421372+1032639720+1034382697+1036464774
2067.61+1038625044+1040620217+1042266598+1043432884+1043990715+1043843628
2061.82+1042999153+1041626841+1040040905+1038465841+1036900338+1035251861
2056.04+1033522112+1031834539+1030337406+1029151736+1028362796+1028024220
2050.25+1028160174+1028750160+1029716312+1030944943+1032342795+1033835475
2044.47+1035305168+1036580557+1037514424+1038018227+1038005195+1037401784
2038.68+1036235171+1034588200+1032547054+1030238845+1027842031+1025549016
2032.89+1023543364+1021985392+1020977131+1020531875+1020582825+1021093177
2027.11+1022099932+1023592677+1025473246+1027632664+1029995294+1032489031
2021.32+1034996259+1037390519+1039582486+1041492721+1043052068+1044125949
2015.53+1044550118+1044288688+1043506165+1042357824+1040927358+1039246464
2009.75+1037362294+1035426322+1033737766+1032681240+1032544369+1033361338
2003.96+1034931818+1037024308+1039567947+1042627637+1046167750+1049896994
1998.18+1053413465+1056439952+1058813452+1060373454+1061002079+1060806661
1992.39+1060039921+1058814500+1057168643+1055414140+1053951192+1052919616
1986.60+1052179465+1051586663+1051123004+1050807808+1050711540+1050975066
1980.82+1051808080+1053398796+1055696264+1058376578+1061081647+1063594311
1975.03+1065785884+1067549425+1068786045+1069408251+1069381139+1068671243
1969.24+1067221131+1065018293+1062098422+1058532900+1054369991+1049675773
1963.46+1044501787+1038911097+1032952559+1026632654+1019667230+1011587059
1957.67+1002420500+992758585+983567664+976499881+973465994+975271906+981094687
1950.92+989133927+997529228+1004920262+1010522150+1013913146+1014773338
1945.13+1012956752+1008583952+1001536208+991822427+980535873+968850101
1939.35+957779659+949293329+945476920+946978244+952606459+960246153+968081724
1932.60+975139684+981261093+986844710+992413264+998168527+1003811345+1008727176
1925.85+1012333432+1014338167+1014817739+1013999918+1012026749+1009127900
1920.06+1005589424+1001648259+997333548+992954396+989070730+985883535+983377878
1913.31+981565287+980452964+980017793+980184789+980854475+981890961+983149716
1906.56+984464988+985736382+986853354+987631554+987913417+987654410+986849097
1899.81+985483138+983572314+981193705+978456154+975411920+972085954+968654356
1893.06+965423611+962786060+961107786+960541376+960941445+962058548+963799037
1886.31+966166119+969041262+972146531+975155925+977846259+980098475+981814798
1879.56+982967265+983605516+983777162+983460197+982551151+980894161+978350717
1872.81+974892727+970757061+966467760+962595030+959792187+958835662+959985837
1866.06+962720441+966280659+970102438+973844649+977319535+980383416+982806229
1859.31+984249727+984347239+982743949+979238021+974032797+967981527+962495422
1852.56+958994209+958212276+959884395+963103614+966954339+970740165+973992325
1845.80+976841600+979819298+982827382+985423216+988100452+991420524+995313424
1839.05+999486614+1003715601+1007732077+1011195242+1013893696+1015833728
1833.27+1017073033+1017721304+1018000023+1017838332+1016620049+1014121858
1827.48+1010970419+1007714527+1004384173+1000958665+997627068+994548649
1821.70+991757462+989207798+986752895+984204802+981461095+978523738+975286248
1814.94+971402516+966467694+960247201+952828989+944773901+937377365+932367231
1808.19+930783195+932312614+935571584+938888840+940947406+941066792+939248241
1801.44+935981870+931897285+927711325+924542008+923601396+925477708+929852275
1794.69+935788679+942414153+948955474+954477401+958494794+961305299+963374016
1787.94+964917974+965905017+966256690+965950073+964946920+963162554+960521664
1781.19+956990457+952722636+948192533+944021110+940680999+938394271+937261974
1774.44+937388695+938742277+940885782+943142320+945270828+947599272+950406896
1767.69+953450737+956159539+958176454+959409145+959861146+959504823+958158510
1760.94+955643358+952092309+947823963+943074932+938011752+932954991+928387494
1754.19+924670431+921970339+920319177+919641305+919817338+920695015+922021813
1747.44+923565836+925269847+927192132+929337732+931546594+933501427+934958677
1740.69+935797389+935715266+934420034+932125578+929253579+925860750+921502096
1733.94+915840286+909659806+904286342+900325465+897755106+896464851+896303684
1727.19+897008472+898263559+899799854+901434775+903052735+904589096+906045953
1720.44+907480348+908860977+909776114+909434329+907395344+903872782+899196902
1713.69+893735355+887955928+882151680+876406241+870855499+865794153+861426724
1706.94+857700361+854500134+851863566+849986075+849160658+849537806+850717713
1700.18+851686747+851737107+851379016+851117652+850640109+849206173+846703987
1693.43+843620329+840228940+836446913+832100898+827191944+822083905+817398070
1686.68+813559657+810283069+806669085+802331715+798242612+795412852+794003016
1679.93+793709300+794211727+795337082+797034741+799159516+801170145+802469699
1673.18+803088304+803247899+802801006+801315529+798460885+794400989+789825503
1666.43+785320744+781070408+776989949+772795736+768296151+763761005+759657691
1659.68+756198456+753413426+751392777+750373907+750705279+752638762+755882540
1652.93+759135224+760983375+761749394+762470881+763537100+764512945+764496310
1646.18+762723667+759185584+754491236+749117772+743235134+737018309+730786683
1639.43+724866193+719339617+713931575+708039769+701179322+693996934+687795040
1632.68+682758907+678237317+673695230+668830808+663319032+656889500+649738612
1625.93+642218434+633995498+624132141+612255273+599149776+585474790+571044525
1619.18+555031861+535855446+512314517+487084736+466223203+452229419+442991805
1612.43+434999717+425296708+412190785+395615836+377185860+359729632+346739001
1605.68+341472152+345432374+357525387+374654270+393211818+410565654+425596809
1598.93+438339828+449265998+458620346+466288299+472147197+476512236+480190530
1592.18+484072919+488675518+494034181+499967147+506318584+513079226+520338203
1585.42+528149543+536418942+544834872+552938979+560280308+566602766+571920172
1578.67+576523753+580914890+585392275+589485766+592429737+594416135+596123027
1571.92+597956510+600035967+602277835+604461812+606674145+609606328+614003948
1565.17+620040745+627123133+634420519+641711421+649540509+658566464+668143899
1558.42+675811557+679852919+681021562+680886983+680097846+678455984+675829632
1551.67+672376160+668245734+663636062+658929926+654391178+650010520+645656516
1544.92+641427398+637772287+634875468+632377015+629651907+625998760+621051430
1538.17+615674429+610968293+607048019+603348442+599075184+593699494+587433748
1531.42+580787580+573764722+565795162+556176535+544625800+531418894+517236372
1524.67+503436729+490778256+477684088+461717331+442716164+423351535+405475461
1517.92+389002216+374729975+364897626+359912607+357443592+354539765+349410671
1511.17+341948319+332813882+322219182+309549248+293881774+276110940+259589250
1504.42+246150366+234374008+221745987+206415435+187067964+162919628+136013169
1497.67+111743213+94642097+86255129+85609216+89529973+94176351+96722274
1490.92+96148767+92871705+87841294+81579601+74115211+65653738+56508646+46905643
1483.20+37249786+28179818+20397411+14364907+10026769+6937778+4645830+2898326
1475.49+1616100+747779+252207+64948+20063+11193+9762+10147+10819+11292+11301
1464.88+10327+8064+5679+5950+17446+46735+66130+48391+23067+10733+5510+3872+5899
1452.34+8750+8040+6006+4298+4536+5628+5340+6169+8008+11802+25077+65424+167791
1439.80+370619+709390+1271781+2266252+3866938+6054887+8867177+12531211+17254783
1431.13+23171974+30366956+38564615+47159083+55796544+64501852+73467423+82861105
1423.41+92400253+101362374+109500567+117507161+126183563+135132652+143213084
1416.66+150161907+156234543+161514998+165990565+169696741+172757576+175344978
1409.91+177659097+179888818+182144390+184432755+186699133+188838414+190648549
1403.16+191943961+192631018+192524533+191208951+188246103+183698711+177883706
1396.41+170192751+159183573+144670023+128758253+112948554+96681238+79510769
1389.66+61998336+44571382+28130605+15404722+7866404+4075299+2256041+1353220
1381.94+790235+335127+79728+17478+10204+10042+9880+10029+20476+136698+571408
1371.33+1145842+1675125+2150598+2403630+2269298+1931829+1782394+2191469+3794333
1362.66+7586010+14078087+22852756+33053627+43776089+54204424+63424848+70870148
1354.94+76552243+80749648+84054936+87447405+91792781+97189846+102847236
1348.19+107732917+111440427+114224450+116455472+118270446+119706601+121025392
1341.44+122912354+126265669+131502860+138288134+146190078+155028196+164275928
1334.69+173175900+181415388+188842523+195177572+200260676+204315447+207778726
1327.94+210862940+213524459+215700463+217557832+219420358+221481364+223518810
1321.19+224982446+225420842+224664221+222887697+220476459+217793296+215004877
1314.44+212026721+208777524+205452295+202527774+200317929+198758157+197630166
1307.69+196820908+196417941+196559985+197273106+198424967+199944890+201909415
1300.94+204368837+207220862+210111230+212596864+214661357+217032074+220559449
1294.18+225333939+230660104+235718569+240162685+244248154+248768434+254680934
1287.43+262355141+271133239+279852463+287624575+294016779+298999178+302842110
1280.68+305946299+308542297+310495754+311528835+311529654+310702141+309392763
1273.93+307782368+305776291+303209632+300075482+296420371+292216860+287385378
1267.18+281891284+275848887+269794293+264863221+262285805+262713069+266226921
1260.43+272539278+280593105+288656183+295258277+299434939+300358818+297600049
1253.68+292086243+286096040+281604870+279067026+278128641+278872754+282009786
1246.93+288242230+297544875+308958476+321095235+332861853+343810322+353931540
1240.18+363293092+371856797+379499045+386109260+391606498+395926481+399153166
1233.43+401579483+403470824+404836784+405367699+404611307+402378770+399059485
1226.68+395468127+392272254+389614959+387266639+384936852+382319701+379227268
1219.93+376155365+374542023+375792362+379904354+385519110+391158524+395995080
1213.18+399717972+402299005+404050561+405525920+407041357+408381023+409150513
1206.43+409198549+408634463+407646995+406412208+405119596+403931143+402953367
1199.68+402191473+401487013+400682880+399747998+398741276+397730002+396811788
1192.93+395976219+395070251+394104787+393562574+394144800+396062959+398769960
1186.18+401188942+402296582+401585934+398941409+394202758+386793419+375888958
1179.42+361270479+344253646+327059471+311259841+297892521+288220128+282617126
1172.67+279491032+276962716+275469054+277820419+285822462+297761740+310423029
1165.92+321936501+331631782+338930445+343629377+346185263+347046306+346264733
1159.17+343813695+340221289+336620108+334099946+333370240+334688393+337588126
1152.42+340995756+344087797+347277546+352539713+361974579+375572321+391194117
1145.67+406674850+421054361+434102917+445707679+455521953+462835449+467146821
1138.92+468959543+469638594+470206281+470692075+470654648+469867640+468456067
1132.17+466754152+465295460+464699711+465366712+467314864+470463552+474855507
1125.42+480455529+486956346+493762633+500175302+505777125+510942499+516643799
1118.67+523175428+529448704+533826383+535132682+532817237+527002937+518641101
1111.92+509130465+499426605+489634728+479694585+470225796+462484922+457640212
1105.17+456241737+458074663+462267664+467634252+472871434+476647241+477905308
1098.42+476248939+472081053+466507947+461187660+457704325+456347272+455941636
1091.67+455348736+454367292+453181688+451758295+449736271+446473077+441186647
1084.92+433297048+422891085+411308065+401244247+395483025+395156794+399658803
1078.17+407942642+419044879+431856071+445183902+457859730+468794512+477138175
1071.42+482279843+483877894+482178565+477983403+472092056+464922929+456702580
1064.66+447808420+438753519+430128058+422634960+416884413+413248162+412185611
1057.91+413956748+417575971+421314908+424437695+427518439+431525354+436876814
1051.16+442704016+447263981+449302443+448410096+444329244+436796722+426151824
1044.41+413489488+399915943+385940464+371609119+357061401+343135168+331372120
1037.66+322940996+317656957+314330009+311653034+308442460+303434945+297216908
1030.91+295734150+306467948+328583225+353228652+373308022+387210090+395716754
1024.16+399805137+400817491+400714249+401000433+401808824+402458503+402502969
1017.41+402041897+401540485+401526274+402169993+403234902+404484226+405992918
1010.66+407833080+409593051+410495090+409691677+406279725+399836932+391975591
1003.91+386790799+387924930+395057088+404627122+413338798+419802810+423861003
997.16+425650411+425541668+424278394+422383877+419618067+415597268+410973844
990.41+407404098+405860500+405420221+404457671+402498713+400400788+399360044
983.66+399884935+401419625+402883654+403397608+402322286+398945698+392389577
976.91+381603715+365891251+345991679+324252437+303454821+285913949+273017540
970.16+264412447+258360767+253508411+249579051+246630856+245801460+251126168
963.41+266315936+289211722+314179811+337904240+358708044+374040315+381583414
956.66+381069264+375170876+369807530+371322050+380689397+392208992+399275302
949.90+399826060+396581137+394038054+395528638+401889407+411620085+422326902
943.15+432523825+442114357+451444179+460283591+467953541+474269090+479650053
936.40+484308776+488179049+491768508+495989243+500651109+504153730+505093064
929.65+503548256+500764306+497806386+494441324+489718226+483746360+477958747
922.90+473352775+469489738+465737115+462846419+462844945+467475278+476612630
916.15+487927180+497997449+503864827+503781460+497088370+484507239+469609025
909.40+459025393+457600919+462474673+465436883+461700304+454269845+450125764
902.65+452943735+460090629+466660896+469996816+469989808+467534251+463540204
895.90+458615762+453089218+447633664+443664863+441924211+441146830+439588301
889.15+437321743+435919896+436005293+435941965+433880420+430363489+427146726
882.40+424074004+419193898+411514386+401888294+391722216+381973988+373167288
875.65+365692591+359561458+354099453+349185718+347220866+351825757+363574365
868.90+379025236+394238154+407004421+416008111+420204517+419696588+416747607
862.15+414936358+416333752+419863649+422810665+423748788+424037462+425851036
855.40+428665634+429404246+426025202+419007649+409699208+399247011+389468527
848.65+383148491+382438956+387399188+394971396+399978943+402394750+410310740
841.90+428366090+450731730+469961321+483704939+491836354+493293997+487851999
835.14+479638560+474441816+473293050+473192787+472082134+469242191+464053012
828.39+456925863+449734634+444405178+441518248+440288406+439204997+437090700
821.64+433958220+429798782+423320526+413379696+400427278+385943116+371828931
814.89+360029799+351439342+345425138+340907707+337402892+334772480+332325993
808.14+328633095+323170730+318738696+320610063+331740918+350673683+374396016
801.39+399782609+422789644+439289346+445966261+440168496+422311905+400750496
794.64+389756676+396715847+414290216+429205325+435399950+436053329+435595760
787.89+433321377+425613902+411135208+392229130+373583009+360061266+354672445
781.14+357070798+363474331+369405561+372259158+371360983+367667430+362964110
774.39+357271127+347593692+330849521+306964940+277158101+242606783+209847426
767.64+192015033+197110695+219477808+246707641+270029790+286625089+297362064
760.89+304512231+310074532+314876936+318345536+319192106+316396434+309600853
754.14+299238080+286647781+274169696+264535058+258528778+254037788+248567990
747.39+240813297+230102813+216209063+199363909+180313249+161832437+150264790
740.64+151434480+163873649+180014736+193418533+201420511+202934965+197165541
733.89+183517831+161196527+129809843+92052812+55164989+27728370+15104211
727.14+17616155+34230775+61561994+92411525+121183703+146556044+171865377
720.38+201339076+236049106+273637798+311052406+346288702+378757060+409078541
713.63+438235079+466789057+494492470+520326153+543169434+562590874+578353699
706.88+589164479+593153385+589656167+579268050+562021386+536124801+499386853
700.13+453250647+404193392+357653580+311214916+260609152+215285855+195114097
693.38+211122029+258483705+323915695+399038496+479345957+553823008+611886180
686.63+653421948+682663294+700030391+703010054+688923145+654573498+594753335
679.88+502701522+377628628+239697471+128359739+66852771+46456878+55548044
673.13+99333858+189246702+310936819+426896363+522034389+609683277+689632451
666.38+745210792+777909342+801311666+824404359+849175000+874084607+897218035
659.63+917393084+933911974+946219167+953953951+957110759+955967919+950974812
652.88+942888683+932759966+921566275+910138724+899363242+890114102+883091702
646.13+878846343+877802784+880085321+885448438+893415706+903421959+914823183
639.38+926815376+938454979+948934190+957884965+965187131+970446711+972925845
632.63+972041815+967752382+960465475+950699564+938634810+923955623+907743874
625.88+892129118+879380075+871297285+868513237+870321899+875524045+883264919
619.13+892814587+904196623+917926095+933392912+948917098+963008459+974724225
612.38+983321624+987974256+988137453+983870221+975711464+964753925+952305867
605.62+939144114+925695391+912567366+900402152+889638590+880770920+874691751
598.87+872225454+873182372+876592621+881948207+889808729+900925471+914792404
592.12+929670741+943165961+953214716+959217263+961196064+959249353+954066198
585.37+946559249+937263218+926519826+914616633+901802886+888686059+876221170
578.62+865332263+856978743+852157871+851394275+854305371+860138565+868361762
571.87+878361073+889429878+900965026+912049090+921324425+927831562+931383986
565.12+932057667+929753584+924328777+915767135+903985488+888948472+870879010
558.37+850311160+828608919+808464715+793265222+785675233+786242429+793089189
551.62+803261062+814573288+825937708+836540627+845864752+854091682+861930527
544.87+870528384+881024622+892736917+902117821+904990278+900431491+892044638
538.12+884566438+879252503+873877860+866647207+857854587+848774341+841172106
531.37+836718952+835758956+837538672+841489725+847518206+855933677+866796783
524.62+879192843+892316154+905869855+919761476+934317152+948727639+959931809
517.87+965101014+963822416+957647110+948842899+939036648+928743227+917974426
511.12+907192199+897454187+889669304+884203304+881293518+881463723+885275024
504.37+892768024+903660599+917713257+933482894+948426785+961258737+971630482
497.62+978959040+982734388+982857769+979512353+973017136+963539571+951183655
490.86+936375129+919414387+900395211+879429519+855285996+825550998+791478433
484.11+763788772+758172477+778437573+811374566+840873740+860744333+873546554
477.36+883318685+892284523+900948130+909097849+916586396+922419917+923824450
470.61+918071218+902898837+874572235+826166263+748329814+642648497+542537568
463.86+497130544+527636342+612191357+702913262+766056313+803374161+830627537
457.11+855142445+876009970+893630050+909594645+924081885+936129023+944447571
450.36+948394106+947964567+943248084+934341514+922122862+908389984+893935161
443.61+878412023+862090843+845754796+830102319+815834204+803890997+795283120
436.86+790195644+787895949+787525546+788485149+791297161+799817610+819367703
430.11+849594519+882647428+910122548+928530782+938812677+943373953+943837349
423.36+940550218+934062925+925971884+916290388+903206698+888439691+877781500
416.61+873183747+873129850+876555293+883003751+891976334+903282469+917003624
409.86+932799128+949522342+965595256+979763960+991316070+1000089043+1006386419
403.11+1010000796+1009883048+1005430811+997592162+988272098
##END=
