##TITLE=Ñìåñü_4_250ìêì
##JCAMP-DX=4.24
##DATA TYPE=INFRARED SPECTRUM
##DATE=9/3/2017
##SAMPLING PROCEDURE=Instrument type and / or accessory
##ORIGIN=Default
##XUNITS=1/CM
##YUNITS=TRANSMITTANCE
##RESOLUTION=2
##FIRSTX=3998.2792
##LASTX=399.2493
##DELTAX=-0.96437028
##MAXY=0.99209982
##MINY=1.9573015e-006
##XFACTOR=1
##YFACTOR=9.2396496e-010
##NPOINTS=3733
##FIRSTY=0.7839396
##XYDATA=(X++(Y..Y))
3998.28+848451655+850882442+853190017+855442629+857581897+859463901+861147280
3991.53+862865043+864787301+866793873+868682393+870490921+872334606+874211708
3984.78+876077133+877835279+879486403+881102756+882681823+884188446+885554695
3978.03+886622717+887375802+887991418+888492271+888691025+888556716+888230362
3971.28+887714091+887017967+886361130+885806541+885192990+884522348+883926666
3964.53+883394590+882905994+882712981+882989792+883365303+883504773+883592054
3957.78+883886347+884394941+884937016+885365101+885720227+886000973+886037421
3951.03+885960783+886140185+886488601+886918429+887572815+888073410+888009739
3944.27+887893170+888691154+890403627+891782327+892238926+892449679+893000849
3937.52+893800962+894535082+895007357+895197596+895459892+896404313+897920225
3930.77+899108557+899586638+899531160+898938897+897954415+897248680+897354540
3924.02+897826299+897742630+896941872+896138856+895881398+895821146+895704448
3917.27+896093635+897006511+897538328+897337252+896869299+896537203+896371478
3910.52+896236008+895957519+895374546+894471862+893518604+892938726+892941178
3903.77+893185863+893179025+892909052+892576763+892482966+892807320+892901117
3897.02+892117970+890759139+889456367+888507624+888070184+888526074+889872648
3890.27+890907770+890484457+888961385+887763505+888238038+890196873+891642599
3883.52+891330759+890073015+889526296+890698500+892730102+893756128+893320817
3876.77+892398265+892125582+893177670+895046127+896155887+896147629+896768793
3870.02+899425106+902672263+904000452+903374192+902882113+904018321+905977479
3863.27+907156844+907495971+907611250+907323150+906370536+905082730+903690870
3856.52+901957238+900440617+901226667+905091955+909179286+910786285+909925404
3849.77+908075332+906544648+905703377+905319158+905216652+905531395+906355699
3843.02+907156973+907376499+907359533+907610605+908270732+909595695+911074837
3836.26+911477055+910866406+909976496+909017883+908465229+908684626+908848222
3829.51+908195836+907293088+907103495+907678856+908067527+907507260+906407952
3822.76+906224551+908360981+912157696+914703633+914481913+913040381+913060186
3816.01+915489748+918207539+919002555+918240826+917299952+916721753+916300956
3809.26+915972086+916419589+918414485+921007192+922023219+921167112+920329841
3802.51+921601649+925306566+929124505+930642868+930337608+930338769+931796687
3795.76+933883574+935196797+935512829+935501282+935604433+935801768+935941819
3789.01+935946076+935845054+935794027+936057678+936779799+937652743+938151209
3782.26+938235910+938549879+939882583+942213510+944355940+945397835+945692708
3775.51+945946038+946352126+946691317+946804403+947007479+947981575+949671340
3768.76+950704397+950271538+949432913+949484907+950119682+950186708+949420849
3762.01+948459075+948187489+949213967+951037848+952478413+953335617+953953554
3755.26+954047674+953685001+954292166+957114204+961074967+964454498+967225703
3748.51+968832509+967879250+965228484+964312189+967639274+972654511+974804359
3741.76+974049468+972637287+971517013+970619748+970199984+970910171+973166718
3735.01+976326464+978895496+980487207+981897646+983015662+983052884+982258642
3728.26+981693731+982220645+983821581+985516314+986454994+986903594+987570752
3721.50+988227718+988115149+987434443+986756125+985894469+984503964+982758785
3714.75+981054182+979969904+980430955+982541710+984756390+986097933+986910690
3708.00+987253429+987102541+986903916+986915850+987051127+987522951+988728055
3701.25+990152105+990551098+989691055+988457179+987631778+987341420+987230528
3694.50+986894304+986316298+986088708+986992746+988940356+991237674+993839734
3687.75+996208141+997072764+996665256+996350901+996766988+997605871+998489589
3681.00+999427817+1000499967+1001251053+1001151450+1001179254+1003494505
3675.22+1007987795+1010828928+1009651369+1006443369+1004795148+1006186169
3669.43+1008856223+1010506380+1010501413+1009581699+1008855449+1008900928
3663.64+1009641047+1010802608+1012148150+1013411378+1014243036+1014474626
3657.86+1014618289+1015666957+1017515932+1018383910+1017182224+1014796787
3652.07+1012995484+1013000967+1014477529+1015875194+1016316053+1015992537
3646.28+1014909421+1012960520+1010842346+1009619179+1009693945+1010618433
3640.50+1011725547+1012745574+1013729733+1014596742+1015112884+1015332281
3634.71+1015661732+1016113364+1015801202+1014063119+1011891208+1011369519
3628.93+1013096893+1014648995+1013744506+1010923564+1007834068+1005353027
3623.14+1003590431+1002522344+1002392293+1003622943+1006079019+1008795262
3617.35+1010829573+1011993714+1012983550+1014733051+1017535156+1020797667
3611.57+1023399340+1025092073+1027060456+1030046091+1033362854+1036209600
3605.78+1038161661+1039205879+1039879166+1040793203+1042263055+1044308075
3599.99+1046537851+1048410630+1049761913+1050906701+1052467125+1054769861
3594.21+1057409854+1059833545+1061602851+1062339680+1062401416+1063037158
3588.42+1065229647+1068647690+1071952777+1073741823+1073713761+1072919132
3582.64+1072233975+1071661129+1071148019+1070810699+1070529759+1070167344
3576.85+1069814863+1069533343+1069345620+1069276530+1069203118+1068993011
3571.06+1068534605+1067617923+1066568416+1066576738+1068217992+1070428479
3565.28+1071615134+1071285038+1070253077+1069225503+1068171996+1067072107
3559.49+1065975056+1064719054+1063267716+1061737805+1060100034+1058475617
3553.70+1057345150+1057105626+1057420498+1057375147+1056621288+1055723830
3547.92+1055505852+1056440016+1058191710+1060034364+1061500861+1062416447
3542.13+1062850016+1063015419+1063158372+1063302293+1063321001+1063364932
3536.35+1063633808+1063683222+1063056382+1062042097+1061111675+1060383103
3530.56+1059795936+1059364496+1059208898+1059292245+1059390815+1059432424
3524.77+1059647112+1060247374+1061004847+1061324750+1061106320+1060854475
3518.99+1060870280+1060909888+1060683073+1060173124+1059493515+1058616829
3513.20+1057354182+1055628355+1053639201+1051868024+1050648469+1049494069
3507.41+1047835462+1045910882+1044201570+1042965565+1042305696+1041727238
3501.63+1040535358+1038737023+1036838375+1034931212+1032722015+1030027770
3495.84+1026782032+1022856427+1018172189+1012791763+1006885841+1000641437
3490.06+994244726+988005612+982350245+977410162+973019700+969261691+966404689
3483.31+964729115+964463723+965344602+966766330+968274178+969753384+971369544
3476.55+973260515+975373851+977533117+979477502+981121401+982636668+984143226
3469.80+985458191+986259271+986556661+986545694+986171732+985401164+984504803
3463.05+983786681+983322406+982979150+982531453+981921514+981357377+981060053
3456.30+981069794+981280934+981546649+981803397+982074531+982363276+982598091
3449.55+982634926+982557192+982817682+983343307+983299311+982556934+981710826
3442.80+981173912+980839107+980383475+979905782+979743927+979892880+980154595
3436.05+980537008+981031926+981433692+981820815+982606478+983854094+985097775
3429.30+986010135+986720644+987348129+987873496+988289390+988526979+988529043
3422.55+988357705+988102247+987727059+987027259+985952786+984773872+983701851
3415.80+982759107+981980541+981434596+981031733+980616162+980317160+980365284
3409.05+980598809+980716345+980757502+980874587+981009735+981107274+981209199
3402.30+981189394+980807175+979892170+978326328+976477998+974673598+973060728
3395.55+971392187+969527923+967836609+966642665+965540582+964010607+962303359
3388.80+960944980+960009848+959295598+958743653+958345758+957976956+957536742
3382.05+957077434+956594708+955859169+954735089+953405352+951956981+950212899
3375.30+948145752+945962101+943809672+941755685+939861360+938061605+936225338
3368.55+934392684+932697564+931159526+929802630+928716546+927899402+927355328
3361.79+927119868+927020394+926800158+926405939+925920891+925416233+924909187
3355.04+924339373+923657248+922939578+922286676+921590037+920588073+919257626
3348.29+917902989+916774715+915884805+915228548+914857295+914653445+914393277
3341.54+914153301+914254517+914705826+915101980+915217130+915213517+915220549
3334.79+915277575+915424786+915571352+915604897+915483039+915201906+914824395
3328.04+914464947+914217617+913951580+913392797+912591136+911881401+911421705
3321.29+911178568+911157667+911390612+911866951+912552946+913378799+914242647
3314.54+915089014+915922930+916693304+917322079+917833060+918273725+918589178
3307.79+918636915+918329913+917721910+916854513+915715273+914424435+913187786
3301.04+912111700+911199599+910466576+909999139+909802642+909706652+909582471
3294.29+909520219+909688073+909998687+910116224+909942951+909728908+909625305
3287.54+909504285+909207089+908682562+907918767+906940092+905786724+904463696
3280.79+903001649+901468062+899905445+898391533+897108178+896063122+894999164
3274.04+893932626+893154253+892643788+892133001+891457456+890607090+889710729
3267.29+888911454+888217202+887554817+886847081+886031551+885086678+884023946
3260.54+882845936+881499361+879976740+878447991+876992912+875386557+873527970
3253.79+871670092+870002260+868506540+867175448+866064269+865233127+864578483
3247.03+863789660+862697770+861449960+860157057+858765585+857241738+855534748
3240.28+853586815+851401422+848994181+846419859+843770190+841086654+838299321
3233.53+835226340+831765785+828102928+824539545+821195559+818025362+814986958
3226.78+812062155+809206249+806371631+803522111+800615114+797607481+794486956
3220.03+791277924+787889104+784121289+779959321+775557570+770983192+766180901
3213.28+761088704+755731178+750209670+744637263+739099626+733633080+728250460
3206.53+722952477+717743711+712696993+707870833+703212592+698661953+694229367
3199.78+689919672+685706096+681575737+677486536+673357919+669166147+664941605
3193.03+660685452+656378079+652067223+647829520+643655102+639511389+635455411
3186.28+631593799+628009708+624734102+621746338+619031837+616601372+614442106
3179.53+612537717+610909816+609540083+608335430+607242701+606240350+605267029
3172.78+604312609+603431859+602648518+601947492+601300331+600680007+600099162
3166.03+599624371+599302210+599115325+599059912+599168997+599457162+599948338
3159.28+600686974+601648812+602788698+604145980+605765688+607635049+609678069
3152.53+611712058+613566258+615268539+616960433+618688904+620384024+621959801
3145.78+623371336+624609663+625686652+626628621+627470730+628244975+628940711
3139.03+629516718+629996734+630492749+631104429+631832936+632650467+633570632
3132.27+634516215+635337100+635957876+636305390+636322936+636059543+635536886
3125.52+634674973+633409616+631775200+629811075+627410607+624422327+620909519
3118.77+617109837+613175846+609110965+604866231+600376231+595596712+590546252
3112.02+585258591+579805204+574342334+568968166+563691987+558622239+553939678
3105.27+549657593+545537749+541176833+536140985+530015311+522337342+512628996
3098.52+500524730+485780343+468290167+448504610+427890684+408670909+392963264
3091.77+381809450+374842442+370984185+369390861+369716087+371628475+374415969
3085.02+377143339+378982864+379363632+377977513+374704036+369486690+362268320
3078.27+352948613+341342135+327301258+311236875+294801432+280586539+270381373
3071.52+263767345+258801280+253795977+248134257+241950460+235706540+229939459
3064.77+225026147+221084898+217979291+215399986+213020774+210608033+208073401
3058.02+205450649+202806399+200159326+197489385+194786673+192031225+189166239
3051.27+186115401+182821603+179247334+175333502+170983198+166074966+160494818
3044.52+154141247+146928602+138837610+130001950+120806932+111909247+104058803
3037.77+97757485+93031735+89481834+86523084+83665903+80683962+77602167+74586970
3030.05+71848496+69552138+67771245+66470864+65532394+64820530+64192766+63505505
3022.34+62661759+61638128+60468613+59207014+57890707+56530553+55138629+53721030
3014.62+52254911+50696511+49007347+47174467+45192694+43059558+40790331+38413409
3006.91+35966732+33496208+31030388+28587716+26208373+23912358+21682568+19504293
2999.19+17367186+15269917+13237983+11312877+9536996+7922734+6446395+5119481
2991.48+3982677+3034147+2266647+1673298+1213324+856630+613209+468559+367072
2982.80+282342+215023+170301+157403+168871+184098+200848+207225+191363+179353
2973.15+188061+193509+184604+174665+161597+134492+117082+125576+133366+127366
2963.51+128470+139073+136927+123315+118895+137731+170595+178174+148229+117264
2953.87+108895+110523+104090+100248+116706+136001+142082+147263+146870+126408
2944.22+107674+119927+147846+159335+152274+142573+132911+117032+113030+126051
2934.58+125345+103760+85385+85465+103779+128417+132075+107335+88674+95661
2924.94+111240+118172+110026+96308+95111+96417+85218+74384+76000+87480+98281
2914.33+97644+102259+122373+126275+106583+93779+86506+77540+79749+87959+85420
2903.72+85040+108978+138161+145177+138262+133468+132314+125882+118841+126342
2894.08+137702+137005+135537+137899+130857+119930+117779+124343+141028+164497
2884.43+175127+168261+161027+159432+157582+158881+159261+138803+111752+105376
2874.79+105799+95243+83928+91692+114320+129241+134560+127234+101889+86795+99914
2864.18+118916+132000+151973+176425+181343+166102+148364+127219+115186+126567
2854.54+142925+147660+148108+159441+179671+185898+177280+181186+198412+207404
2844.89+203760+200348+206048+209174+203723+198521+200676+207633+206140+198641
2835.25+200869+218240+240622+277581+356309+494640+715207+1048502+1503196
2826.57+2062964+2730727+3550162+4552207+5725636+7052848+8535214+10185860
2818.85+12025226+14068124+16331042+18818374+21503679+24377884+27450032+30703300
2811.14+34115503+37717971+41561628+45642081+49930895+54404578+59009756+63651381
2803.42+68229666+72674421+76934992+80973787+84791597+88431537+91958190+95480529
2795.71+99167908+103210767+107739158+112788070+118379709+124644619+131846087
2788.96+140205650+149739384+160261196+171442571+182924560+194426806+205772261
2782.21+216814699+227407729+237462185+246936926+255813307+264135905+272020208
2775.46+279572641+286858295+293936551+300831083+307506895+313922249+320043666
2768.71+325779540+330990887+335567588+339453455+342660067+345301995+347629696
2761.96+349977589+352619710+355663856+359065900+362723694+366537149+370356216
2755.21+373943016+377071443+379572546+381346594+382421163+382897793+382865215
2748.46+382357782+381334595+379744852+377591391+374877922+371548193+367505277
2741.70+362664474+356992690+350465121+343025353+334643390+325373484+315363879
2734.95+304913446+294556908+285010578+276979451+270913158+266808249+264208897
2728.20+262449719+260959176+259442522+258010972+257159752+257501121+259475648
2721.45+263228851+268703413+275792796+284378029+294273194+305147487+316502538
2714.70+327790402+338555222+348503931+357546505+365754743+373264568+380198451
2707.95+386607193+392445928+397595507+401899751+405216966+407509735+408905530
2701.20+409689903+410240073+410892298+411826720+413017310+414245380+415230829
2694.45+415812577+415974464+415796514+415454678+415197123+415268922+415752648
2687.70+416459964+417029745+417113640+416490186+415094262+413026761+410502079
2680.95+407704361+404634412+401102122+396858613+391737806+385698414+378764660
2674.20+371076982+362995827+355062529+347964147+342548885+339528350+338864482
2667.45+339566379+340189316+339501450+336858264+332462384+327682058+324948882
2660.70+326687417+333757092+344878522+357604789+369846880+380773845+390596727
2653.95+399692264+408041940+415349721+421371953+426095188+429712888+432470643
2647.20+434547498+436013738+436862588+437074792+436697766+435982289+435477760
2640.45+435924199+437928448+441635043+446662183+452370028+458134899+463473942
2633.70+468125055+472029436+475242919+477834852+479848746+481321469+482264890
2626.94+482701072+482783741+482846380+483279046+484352551+486088376+488238386
2620.19+490433488+492364938+493834726+494727797+495041121+494957290+494826304
2613.44+494962000+495440726+496116464+496713727+496928544+496582579+495753694
2606.69+494776696+494101570+494055155+494676061+495770305+497065111+498380946
2599.94+499835283+501877884+505025826+509551919+515321112+521831941+528510108
2593.19+534978908+541132870+547081013+553024738+559146702+565553412+572308152
2586.44+579459948+587062474+595171142+603737505+612583841+621499008+630303348
2579.69+638874421+647150234+655092596+662679768+669937747+676933430+683728617
2572.94+690328340+696681895+702711223+708352075+713582710+718421965+722928931
2566.19+727193340+731309571+735337295+739285672+743119480+746778208+750213153
2559.44+753421411+756484135+759499702+762494627+765460780+768412612+771401860
2552.69+774503289+777764058+781139783+784501896+787721830+790763782+793689681
2545.94+796569650+799399752+802078773+804461952+806438463+807995016+809199605
2539.19+810139381+810934204+811764379+812864720+814427078+816521771+819102221
2532.44+821998381+824956535+827767543+830389795+832907606+835345619+837614100
2525.69+839646670+841484420+843234631+844991422+846795950+848684276+850667238
2518.94+852661747+854551170+856301316+857968116+859602597+861243593+862931939
2512.18+864664862+866429136+868246760+870161341+872211393+874440136+876888213
2505.43+879561943+882417398+885350716+888198300+890783137+892977561+894731643
2498.68+896088151+897134562+897940868+898569644+899066948+899456135+899758556
2491.93+900015563+900265280+900513835+900786130+901122806+901482447+901744808
2485.18+901820671+901672880+901290080+900723620+900082782+899480197+899024824
2478.43+898854583+899077528+899651599+900382687+901039847+901466191+901633916
2471.68+901608499+901457418+901230150+900972434+900736006+900578667+900543639
2464.93+900659240+900969918+901543990+902421450+903571785+904899587+906252419
2458.18+907461717+908394332+908964985+909102713+908770230+908017080+906974217
2451.43+905800852+904630582+903547207+902570918+901687911+900876508+900113037
2444.68+899388981+898716661+898119560+897569357+897002963+896411603+895843982
2437.93+895332421+894814796+894154927+893207990+891872511+890129719+888028188
2431.18+885612560+882889222+879846560+876516056+873044277+869670423+866616665
2424.43+863998671+861845597+860160864+858950211+858211640+857881222+857849677
2417.68+858028175+858339627+858701849+859054717+859370427+859666139+859989010
2410.93+860351296+860738676+861126121+861458862+861674453+861755800+861709675
2404.18+861480860+861002585+860262015+859257213+857984566+856493168+855201814
2397.42+854552589+854870106+856288156+858717138+861910623+865586834+869505923
2390.67+873459203+877232371+880611128+883428587+885611851+887178661+888179463
2383.92+888675220+888756889+888541750+888147854+887703576+887407928+887470696
2377.17+888016964+889081760+890709144+892940597+895708448+898855228+902164959
2370.42+905336253+908179193+910816863+913492078+916142456+918408938+920071932
2363.67+921288970+922434726+923601770+924459297+924718625+924357629+923370761
2356.92+921753182+919716806+917481483+914992120+912370255+910120868+908672175
2350.17+907846968+907022212+906021991+905483400+906262805+908378463+910902467
2343.42+912610876+913007417+912451150+911518599+910421612+909119614+907606992
2336.67+905916646+904207528+902716710+901706747+901241375+901307949+901781643
2329.92+902168701+901972269+901202798+900299405+899543610+899124749+899406398
2323.17+900619115+902436996+904317581+905919033+907072401+907533258+907097237
2316.42+905798981+903872207+901673654+899649664+898158846+897371635+897249647
2309.67+897578582+898066469+898513069+898968765+899691660+900945469+902844181
2302.92+905335931+908229639+911239337+914052473+916411139+918226053+919553726
2296.17+920506339+921209172+921770277+922248551+922592904+922698958+922511944
2289.42+922043927+921353803+920537240+919762672+919248208+919210341+919808410
2282.66+921129567+923202455+925939664+929157856+932642022+936173150+939569002
2275.91+942688688+945440605+947778498+949713078+951298338+952606400+953703967
2269.16+954606521+955296903+955731246+955866910+955668221+955173109+954519497
2262.41+953863692+953353034+953136798+953339874+953914139+954699157+955533331
2255.66+956319510+957070467+957978117+959296501+961129607+963048768+964357862
2248.91+966159487+967630178+968786255+969683391+970339389+970749800+970895656
2242.16+970785345+970466215+969984844+969399355+968789610+968231214+967766745
2235.41+967401298+967141969+966974438+966871674+966829549+966855030+967003854
2228.66+967413232+968214377+969380647+970708578+971902071+972679928+972891713
2221.91+972543942+971718218+970494084+968959722+967215833+965367696+963544073
2215.16+961895142+960567921+959627951+959104004+959231539+960369489+962465279
2208.41+964949416+967330853+969553210+971786405+974097463+976314853+978137960
2201.66+979313067+979744508+979485501+978667132+977465705+976068813+974598509
2194.91+973108595+971671255+970368999+969233565+968278565+967572119+967258022
2188.16+967447551+968113613+969142736+970450088+971965548+973496491+974689661
2181.41+975222382+974981116+974056048+972734826+971473017+970737736+970760379
2174.65+971376253+972217846+973040666+973779237+974470393+975216834+976058620
2167.90+976940596+977875212+978977101+980371735+982141234+984305339+986797088
2161.15+989449337+992041722+994401936+996447278+998162074+999602380+1000788519
2154.40+1001576182+1001786354+1001402006+1000570089+999493552+998428047
2148.62+997694121+997552651+998084017+999198356+1000728977+1002506798
2142.83+1004381061+1006194620+1007825617+1009289986+1010799383+1012655712
2137.04+1015030570+1017814806+1020604589+1022974351+1024728691+1025808130
2131.26+1026181125+1025868834+1024954087+1023544423+1021837562+1020150958
2125.47+1018798707+1017972209+1017686109+1017835900+1018287661+1018978559
2119.69+1019948268+1021251234+1022891069+1024824939+1027012590+1029382738
2113.90+1031737405+1033825711+1035519411+1036795412+1037644423+1038094765
2108.11+1038218494+1038095862+1037760347+1037193243+1036375906+1035355944
2102.33+1034278955+1033319245+1032655828+1032445527+1032646862+1033257445
2096.54+1034243733+1035534055+1037057708+1038738442+1040433562+1041975794
2090.75+1043296306+1044380326+1045167344+1045624717+1045809408+1045762316
2084.97+1045491053+1044970138+1044129512+1042915441+1041325730+1039424115
2079.18+1037347034+1035267888+1033342082+1031700699+1030463920+1029705158
2073.40+1029429314+1029628004+1030348383+1031647543+1033479358+1035641205
2067.61+1037826921+1039792207+1041462168+1042734556+1043308821+1043021818
2061.82+1042033272+1040597545+1038980740+1037375031+1035807060+1034213672
2056.04+1032581449+1030993544+1029564397+1028419029+1027672652+1027372425
2050.25+1027501895+1028030294+1028908399+1030057896+1031397439+1032832649
2044.47+1034246894+1035476964+1036403903+1037020679+1037188727+1036676392
2038.68+1035524056+1033908928+1031915774+1029630842+1027211860+1024861322
2032.89+1022786821+1021148341+1020047936+1019533858+1019573854+1020102575
2027.11+1021112151+1022608775+1024509035+1026706298+1029148568+1031731857
2021.32+1034268634+1036626009+1038748957+1040581869+1042144873+1043304563
2015.53+1043675300+1043188059+1042222156+1041006730+1039572810+1037932330
2009.75+1036127673+1034304114+1032746335+1031790432+1031682636+1032487071
2003.96+1034051430+1036127350+1038609616+1041576221+1045033099+1048722470
1998.18+1052224246+1055225106+1057580740+1059133938+1059690205+1059462421
1992.39+1059054978+1058380401+1056793077+1054739090+1053192471+1052223730
1986.60+1051389427+1050604474+1049991245+1049579222+1049427818+1049681534
1980.82+1050543964+1052180251+1054519048+1057249096+1060030816+1062632360
1975.03+1064893101+1066684404+1067911377+1068508543+1068434486+1067601215
1969.24+1065934415+1063638711+1060968850+1057706533+1053532437+1048661960
1963.46+1043409069+1037862917+1031993443+1025733944+1018827026+1010876278
1957.67+1001806352+992111392+982893933+975910313+972981511+974839517+980689703
1950.92+988750569+997162239+1004550592+1010109775+1013487177+1014439145
1945.13+1012616813+1007970957+1000943536+991878899+980951934+968919984
1939.35+957479393+948946961+945222562+946795113+952441319+960074809+967917375
1932.60+974997953+981123853+986696389+992278408+998065245+1003710354+1008557673
1925.85+1011978103+1013683866+1014066602+1013655482+1012085124+1008932409
1920.06+1004675999+1000383721+996740281+993275791+989414825+985795963+983099009
1913.31+981260355+980071249+979536786+979781665+980679704+981824427+983023274
1906.56+984205026+985343041+986418094+987240398+987585396+987397479+986654651
1899.81+985318140+983420009+981011154+978175246+975147035+972062248+968772257
1893.06+965358149+962349355+960335428+959933727+961037229+962490631+963919842
1886.31+965955379+968801738+972050766+975178257+977881921+980104600+981800817
1879.56+982934058+983529417+983632568+983250864+982290896+980586681+978002554
1872.81+974469812+970088511+965452397+961728772+959874442+959815610+961126510
1866.06+963578199+966774845+970271074+973792977+977171347+980204913+982590802
1859.31+984001628+984108972+982518551+979005872+973824071+967844221+962467278
1852.56+959101423+958426782+960099259+963233201+967090103+970935007+973800783
1845.80+975890186+979014065+983423492+986827730+989006092+991563834+995052128
1839.05+999090883+1003386258+1007648603+1011314621+1013991513+1015787848
1833.27+1016789618+1016938829+1016746203+1016991469+1016968375+1014978059
1827.48+1011136381+1007110721+1004003873+1001392007+998338572+994950913
1821.70+991842516+989140788+986602656+984023625+981350927+978522759+975284956
1814.94+971271747+966169744+959839091+952496024+944807830+937884075+933112490
1808.19+931547809+933088686+936349132+939570163+941452490+941441459+939663121
1801.44+936543887+932635054+928666809+925582087+924473424+926134612+930315546
1794.69+935929562+942398846+949508969+956076760+960706423+963344480+964781368
1787.94+965667989+966214127+966448362+966322116+965485168+963564716+960672169
1781.19+957163489+953206146+948905740+944664038+941074205+938544976+937173178
1774.44+937026161+938438922+941379658+944663005+947081149+948974443+951423551
1767.69+954518981+957224967+958869769+959557249+959619113+959362559+958695077
1760.94+956857520+953336778+948628284+943601112+938728119+933989950+929319840
1754.19+925036142+921744989+920003938+919897820+920790053+922038895+923518811
1747.44+925138970+926737003+928392191+930338640+932545515+934459129+935652170
1740.69+936416351+936794120+935893888+933176806+929220753+924997823+921110085
1733.94+917232798+912502822+907134911+902446608+899432202+898056792+897746372
1727.19+898156588+899143779+900543445+902203020+903928395+905401279+906406081
1720.44+907143426+908194804+909821673+910988975+910047779+906792429+902055745
1713.69+896393282+890145008+883772229+877650200+871908649+866611698+861988357
1706.94+858325951+855608676+853466376+851557858+849976469+849485164+850990367
1700.18+853841757+855331027+854550654+853204273+852687938+852220953+850154709
1693.43+846453920+842097004+837677513+833203512+828477794+823441655+818339007
1686.68+813693410+810089192+807590412+805282515+802245659+799019081+796748148
1679.93+795876171+795961324+796539975+797784237+800111680+802998745+804871459
1673.18+805162462+804656513+803928780+802776509+800734650+797390406+792814995
1666.43+787690350+782694659+778149245+774049529+770132245+766089555+761990742
1659.68+758234733+755123369+752724449+751087001+750619370+752255528+756711918
1652.93+762568039+766188191+766529124+765548449+765143457+765746042+766442875
1646.18+765766427+762804273+757841160+751808734+745414604+738941642+732524610
1639.43+726328653+720480855+714970635+709558276+703829885+697676117+691559571
1632.68+685898786+680708083+675751356+670730506+665339629+659261144+652364290
1625.93+644741960+636324420+626645329+615302471+602516015+588659797+573737040
1619.18+557199479+537765047+514532675+490016046+469612551+455584478+446098336
1612.43+437891291+428056442+414885348+398293179+379857131+362395017+349440353
1605.68+344284904+348429713+360753214+378100114+396797652+414192224+429188844
1598.93+441858247+452700607+461978609+469585747+475400484+479726275+483351781
1592.18+487176299+491744517+497096591+503026640+509361067+516100389+523352175
1585.42+531176194+539472230+547922477+556059658+563406661+569658999+574782548
1578.67+579113338+583428710+588403823+593400933+596816008+598512870+599560055
1571.92+600806188+602687805+605309089+608141836+610601911+613266547+617352652
1565.17+623387141+630583643+637626031+644148923+651192924+660325360+671425275
1558.42+681180293+686205078+686811017+685609912+684312688+682674530+679910292
1551.67+676131188+671913290+667522377+662903358+658066555+653271489+648789230
1544.92+644743637+641210638+638232486+635728286+633340656+630520552+626659392
1538.17+621722663+616452355+611532399+607147420+602934941+598216319+592502636
1531.42+585833565+578373606+569960840+560172534+548715236+535690224+521644186
1524.67+507787096+494860236+481642146+466034781+447593089+428351767+410112280
1517.92+393332904+379170974+369625741+364749974+362189715+359168503+353987798
1511.17+346450073+337141042+326356353+313651632+298244956+280919506+264614243
1504.42+250970197+238770054+225756009+210147015+190543987+166091787+138849996
1497.67+114289314+97032284+88661191+88139615+92191062+96915683+99496262
1490.92+98953510+95698039+90628574+84255909+76633143+67966999+58563688+48667651
1483.20+38714568+29368591+21349912+15125591+10624354+7379737+4943547+3100802
1475.49+1803542+971116+474246+224325+125556+95211+86329+76959+69395+67462+74006
1464.88+82628+89720+96789+103497+112369+121482+132523+141766+144092+132213
1455.23+110482+94514+87987+90386+93075+93471+94390+98048+103552+109963+122949
1444.63+137985+153285+178420+235638+352748+560453+906120+1495107+2544175
1435.95+4227286+6519684+9454996+13269966+18190039+24361145+31862411+40385634
1428.23+49281093+58180585+67124826+76332472+85989073+95785716+104942779
1421.48+113215527+121393454+130364817+139646674+147919680+154907170+160959384
1414.73+166218967+170687115+174396515+177463594+180051737+182358859+184577539
1407.98+186817072+189091134+191387354+193629854+195543000+196844369+197452905
1401.23+197256586+195908609+192999660+188502999+182610850+174740078+163555090
1394.48+148874422+132712452+116549667+99888344+82304428+64324269+46364076
1387.73+29390545+16237483+8412826+4439626+2504015+1539018+985718+568545+214775
1379.05+33577+3364+2118+6386+42382+185824+464032+856621+1341431+1885128+2392949
1368.44+2667537+2547982+2204373+2038878+2456678+4119695+8043434+14760141
1360.73+23838039+34363905+45386405+56069555+65483781+73060600+78837946+83117176
1353.01+86493014+89952021+94382890+99894553+105667577+110630545+114374999
1346.26+117171604+119389760+121175290+122594438+123918151+125835023+129275540
1339.51+134654853+141563126+149542839+158459555+167791390+176756342+185055572
1332.76+192550140+198950319+204091898+208196259+211685634+214755615+217378432
1326.01+219535554+221405495+223276839+225318149+227323867+228775172+229239206
1319.26+228522859+226738361+224252192+221474843+218608841+215567760+212272156
1312.51+208932669+206021011+203819716+202245874+201092990+200259348+199833907
1305.76+199970458+200705529+201897345+203458317+205442891+207904289+210766372
1299.01+213675644+216176231+218253473+220645942+224220244+229066127+234449489
1292.26+239519253+243959903+248075569+252659511+258652553+266422078+275294878
1285.51+284081639+291882983+298274211+303243227+307079261+310193657+312810394
1278.75+314774777+315789255+315746485+314878831+313538320+311882939+309822952
1272.00+307210247+304015117+300273397+295976023+291031424+285384573+279154716
1265.25+272891733+267738526+264937937+265188234+268637210+275027454+283265109
1258.50+291545404+298357816+302736440+303831781+301151148+295606286+289549154
1251.75+285021642+282471285+281526671+282293013+285498819+291832311+301247686
1245.00+312782622+325041582+336889842+347864318+358011877+367431929+376048482
1238.25+383708485+390299757+395759853+400068516+403317964+405758718+407638013
1231.50+408991586+409526242+408770512+406520577+403188686+399602176+396395209
1224.75+393696029+391292948+388887770+386157045+382937821+379782945+378156882
1218.00+379449946+383637654+389333338+395042087+399943174+403721084+406319919
1211.25+408053971+409530306+411087795+412453431+413188744+413163263+412510232
1204.50+411436501+410139374+408804702+407595952+406633856+405905026+405215740
1197.75+404420756+403504203+402511851+401494018+400550726+399682845+398721781
1191.00+397674951+397067463+397627343+399557858+402291776+404719468+405795585
1184.25+405017438+402278100+397425524+389884928+378797528+363909252+346566771
1177.50+329051759+312937929+299237243+289214091+283210050+279563449+276407154
1170.75+274326524+276325549+284330324+296632893+309901848+322098459+332432322
1163.99+340257793+345340927+348196155+349348265+348809739+346520808+343050673
1157.24+339536285+337093079+336473335+337904288+340901857+344417632+347597603
1150.49+350832181+356176030+365776225+379568224+395355991+410934455+425331974
1143.74+438356018+449928176+459698451+466945367+471195456+472998855+473707235
1136.99+474294337+474774612+474703683+473870058+472417849+470653607+469086603
1130.24+468347387+468865400+470701570+473792646+478160465+483741774+490219090
1123.49+497009665+503415891+509010586+514182485+519919133+526511728+532843639
1116.74+537205394+538365406+535802793+529722437+521130592+511432858+501561594
1109.99+491590758+481470744+471861582+464024564+459098673+457597727+459286783
1103.24+463294864+468389770+473181933+476321456+476814439+474352106+469491530
1096.49+463554612+458315816+455290830+454594159+454877033+454906385+454455302
1089.74+453728342+452729185+451070836+448062300+442922785+435100410+424720971
1082.99+413144136+403084761+397383593+397187774+401845628+410292907+421577029
1076.24+434583785+448092426+460920361+471995891+480471232+485704318+487321285
1069.49+485577202+481318631+475364423+468136376+459854274+450847278+441638430
1062.74+432897019+425386936+419742795+416263887+415326175+417220177+420976412
1055.99+424798770+427914908+430970665+435003227+440389201+446190875+450649491
1049.23+452570362+451613297+447478617+439840192+429091112+416383810+402777599
1042.48+388742979+374330203+359662776+345582386+333661812+325103157+319753211
1035.73+316406225+313708400+310465630+305431072+299224406+297833675+308730062
1028.98+330991693+355685176+375720773+389545995+397980630+401999935+402943195
1022.23+402791468+403045797+403818171+404424304+404420627+403938869+403491204
1015.48+403591130+404364923+405580575+407016398+408720775+410732927+412632284
1008.73+413644537+412904063+409494310+403032121+395176299+390037332+391252081
1001.98+398471161+408108901+416880566+423422360+427584909+429481782+429456011
995.23+428256551+426420090+423688043+419650868+415003368+411456435+409941200
988.48+409469925+408420934+406394944+404324830+403383763+404003669+405633247
981.73+407221442+407837057+406840545+403568164+397089752+386296709+370476526
974.98+350375291+328402631+307372941+289607567+276570298+267945763+261887502
968.23+256951224+252889439+249783784+248834041+254247496+269770273+293045028
961.48+318313421+342306587+363342535+378788787+386288580+385591521+379434947
954.73+373845445+375278204+384725318+396345665+403412567+403886035+400541211
947.98+397939311+399458481+405886221+415668301+426419671+436647448+446210583
941.23+455445299+464172711+471745691+477954711+483225245+487809332+491626368
934.47+495178591+499420003+504119143+507585213+508411743+506711269+503730633
927.72+500552727+496966701+492007458+485792955+479825974+475185732+471445882
920.97+467895594+465195221+465340077+470121725+479470171+491032105+501334810
914.22+507389588+507422101+500772125+488182746+473225929+462592063+461244522
907.47+466272790+469295453+465528961+458091613+453992445+456900539+464175033
900.72+470880326+474331463+474373491+471864227+467756382+462704923+457050557
893.97+451520919+447576123+445887551+445104114+443503339+441230181+439903895
887.22+440150773+440272342+438345019+434889335+431681851+428616418+423756262
880.47+416070583+406398363+396155684+386308707+377398346+369827850+363620281
873.72+358075387+353030895+350973328+355655889+367608009+383273239+398694558
866.97+411638062+420690377+424757484+424025428+420896775+419007546+420395116
860.22+423957693+426940006+427824691+428010640+429841488+432787256+433603335
853.47+430211225+423176417+413845420+403286096+393329743+386882811+386176624
846.72+391226051+398833383+403726568+406023723+414035014+432350268+454945414
839.97+474292757+488052985+496154202+497599218+492152831+483922465+478708377
833.22+477499305+477249201+475896209+472754331+467303041+460005969+452696124
826.47+447297022+444424763+443264621+442240885+440154902+436999510+432729262
819.71+426095252+416069326+403110888+388565932+374290723+362362665+353772498
812.96+347801614+343273586+339746941+337127785+334692805+330982920+325488053
806.21+321059370+323026753+334358225+353522781+377374671+402729281+425613881
799.46+441969493+448482645+442541952+424674331+403314125+392674551+399939013
792.71+417622460+432544377+438817617+439609086+439208126+436860943+429031537
785.96+414449585+395451239+376715479+363158714+357857087+360450632+367057612
779.21+373118809+376050546+375252175+371673986+367039775+361320351+351477986
772.46+334464569+310290260+280200256+245439770+212668019+195044663+200490325
765.71+223211055+250651068+274012330+290576889+301296004+308461573+314057816
758.96+318859462+322287924+323107196+320283480+313383271+302835010+290095808
752.21+277588744+268010095+262085192+257661685+252195509+244319770+233393821
745.46+219281354+202233392+182985409+164359203+152804591+154189017+166935024
738.71+183297410+196746944+204707627+206190219+200336212+186496459+163918473
731.96+132158258+93819180+56304092+28475784+15742775+18396693+35424351+63358967
724.24+94684271+123627310+149035890+174479636+204221740+239240281+277130790
717.49+314854349+350368324+383034392+413478457+442707806+471294252+499003657
710.74+524860733+547776040+567293753+583135708+593981455+597960732+594442570
703.99+584034907+566714005+540616631+503559038+457090553+407796416+361120532
697.24+314523125+263653485+218122793+198026105+214413650+262263416+328122014
690.49+403587033+484041873+558333945+616010658+657189998+686167404+703337999
683.74+706194744+692117967+657904635+598141101+505721917+379742433+240848425
676.99+129070472+67581599+47441500+57184951+102229044+193476160+315544248
670.24+431861962+529403534+619840724+698272122+748642537+777799732+801093711
663.49+825616146+851576824+877043745+900342240+920498405+936880692+948963927
656.74+956429112+959280825+957796265+952485315+944187505+933976145+922830428
649.99+911551305+900940889+891826838+884937338+880850911+879949130+882301732
643.23+887648356+895522079+905388699+916654985+928573592+940237580+950839674
636.48+959985141+967513287+972990542+975658661+974921638+970734833+963520334
629.73+953779636+941632665+926831122+910511539+894784025+881879323+873630153
622.98+870749862+872525942+877730902+885490315+895040386+906582579+920719737
616.23+936562143+952314042+966646729+978553402+987044354+991315924+991053241
609.48+986449381+978073966+966941731+954318034+941138521+927854439+914844909
602.73+902689165+892011013+883404783+877588529+875152903+875935470+879148243
595.98+884384361+892167901+903181760+917017465+932009182+945575365+955600550
589.23+961666714+963802241+962027065+957062983+949824615+940750173+930022285
582.48+917922406+904890621+891562994+878812664+867654303+859178317+854415506
575.73+853784731+856757141+862585716+870823468+880961932+892326078+904181273
568.98+915527679+924984018+931495943+934915922+935503669+933141520+927450415
562.23+918419130+906299447+891195224+873182908+852717935+831146880+811166181
555.48+796185301+788779724+789397275+796166722+806228871+817526380+828968067
548.73+839677699+849155971+857533192+865395498+873884837+884289403+896075314
541.98+905637965+908595796+903938200+895401317+887867172+882476553+876862151
535.23+869332844+860308462+851129643+843559050+839096919+837990643+839606932
528.47+843508475+849662178+858346272+869416964+881835134+894997423+908702947
521.72+922661671+937279942+951958013+963354415+968432291+966955794+960431096
514.97+951095713+940858356+930447533+919904981+909513768+899962665+892032689
508.22+886400288+883607149+884027752+887873365+895190951+905989284+920126571
501.47+935860214+950463454+962956261+973229744+980624290+984521124+984710976
494.72+981351056+974916929+965609091+953251690+938126115+920867916+901908404
487.97+881271900+857401722+827661102+793392098+765664308+760364003+781043857
481.22+814147752+843575500+863300031+875977724+885772028+894822408+903397545
474.47+911453896+919230339+925567572+927042262+920902687+905512300+877359649
467.72+829135211+751204086+645381444+545334350+500157509+531025984+616030139
460.97+707026854+770108570+807358306+834761097+859223087+879572781+896675834
454.22+912465342+926850282+938534009+946454503+950492161+950639501+946444310
447.47+937708415+925335724+911188309+896282906+880435856+863883844+847541424
440.72+832174325+818139157+806104432+797247968+792153126+790320988+790650826
433.97+792037977+794781120+802917591+822001994+851811317+884668784+912425669
427.22+931622898+942551605+946853430+946496627+942764358+936189471+927829861
420.47+918212119+906372084+893054457+882335342+876585275+875320048+877794057
413.71+883805904+892975432+904749731+919023069+935346975+952030716+967406459
406.96+981126239+993057684+1002337911+1008208159+1010357104+1008743912
401.18+1003760930+996341612+987779054
##END=
