##TITLE=Ñìåñü_1_250ìêì
##JCAMP-DX=4.24
##DATA TYPE=INFRARED SPECTRUM
##DATE=9/3/2017
##SAMPLING PROCEDURE=Instrument type and / or accessory
##ORIGIN=Default
##XUNITS=1/CM
##YUNITS=TRANSMITTANCE
##RESOLUTION=2
##FIRSTX=3998.2792
##LASTX=399.2493
##DELTAX=-0.96437028
##MAXY=0.96084046
##MINY=3.6623901e-006
##XFACTOR=1
##YFACTOR=8.9485242e-010
##NPOINTS=3733
##FIRSTY=0.75467986
##XYDATA=(X++(Y..Y))
3998.28+843356788+845562923+847644301+849698436+851700217+853492315+855122954
3991.53+856838918+858765298+860746830+862642304+864547170+866548484+868609879
3984.78+870678535+872676386+874596771+876485584+878325307+880061054+881602704
3978.03+882834026+883789257+884627923+885336369+885727160+885781180+885633242
3971.28+885281484+884755877+884302807+883982155+883589165+883085939+882630471
3964.53+882290902+882052777+882077689+882459288+882836824+882970174+883116379
3957.78+883512899+884096788+884647905+885040028+885355619+885616257+885661951
3951.03+885613260+885811620+886173969+886588939+887124670+887410353+887153978
3944.27+886919183+887616106+889177473+890373293+890689283+890840550+891376947
3937.52+892146673+892819351+893256568+893505550+893888948+894886541+896300104
3930.77+897306889+897649922+897524498+896896049+895925765+895320561+895579268
3924.02+896152766+896074368+895247692+894469440+894311711+894395838+894423280
3917.27+894905258+895819924+896290379+896049590+895605245+895336680+895239366
3910.52+895166763+894951951+894443796+893639966+892818085+892399252+892576364
3903.77+892979411+893072063+892826478+892468392+892347497+892680206+892809493
3897.02+892070274+890790061+889636671+888900582+888689167+889343994+890842016
3890.27+891965698+891574241+890067560+888916368+889489133+891576506+893116957
3883.52+892836070+891556723+890950387+892021450+893900405+894735140+894104892
3876.77+893017977+892638110+893654487+895532376+896631214+896571466+897148228
3870.02+899810364+903069177+904340464+903594318+902992112+904099342+906104986
3863.27+907341570+907722104+907871307+907609602+906687077+905445763+904079893
3856.52+902272941+900571497+901194419+905080617+909318640+911039999+910195139
3849.77+908279283+906645247+905705336+905256329+905136568+905483530+906385607
3843.02+907293013+907632982+907739289+908067202+908708174+909953284+911354923
3836.26+911698090+911034870+910072113+908994457+908304727+908426954+908542452
3829.51+907860583+906934926+906742029+907332711+907731629+907171852+906096127
3822.76+906006073+908326042+912330003+914968760+914694600+913142692+913104259
3816.01+915584088+918412878+919283982+918533505+917561423+916930309+916444001
3809.26+916051012+916472443+918522981+921233009+922318392+921406057+920413126
3802.51+921509966+925098025+928853137+930290879+929850131+929684410+930975746
3795.76+932904990+934054117+934198857+934029073+934005293+934108603+934174745
3789.01+934114598+933962464+933876873+934113266+934801996+935631270+936079877
3782.26+936123306+936421045+937776991+940162370+942355716+943424447+943731312
3775.51+944002408+944449816+944857859+945050823+945323318+946354349+948092960
3768.76+949158227+948745056+947933100+948010166+948620964+948588393+947681920
3762.01+946609192+946312785+947395171+949272860+950688754+951473001+952041170
3755.26+952118635+951722183+952252452+955003510+958931604+962303452+965106864
3748.51+966763547+965793730+963033080+961964749+965181066+970104423+972113730
3741.76+971167625+969600131+968401846+967495174+967141350+967992338+970337219
3735.01+973304954+975356091+976383858+977509873+978659200+978825254+978127066
3728.26+977643755+978252556+979881929+981502777+982297614+982611340+983178909
3721.50+983741484+983554247+982835943+982148012+981308081+979977379+978309239
3714.75+976662081+975618728+976177839+978457643+980803989+982142617+982801973
3708.00+982906614+982517955+982122568+981964972+981928338+982218817+983282685
3701.25+984687922+985191747+984456524+983276890+982410848+981986886+981663902
3694.50+981074752+980256135+979792474+980356247+981760285+983402580+985479828
3687.75+987600572+988373095+987860477+987381830+987609231+988290967+989105854
3681.00+990075139+991231126+992052274+991988064+992050143+994421933+998953099
3674.25+1001748319+1000457915+997131294+995397412+996737306+999372599
3668.46+1000970466+1000875883+999828799+998948370+998832072+999418225
3662.68+1000433537+1001632753+1002750575+1003453626+1003591505+1003679362
3656.89+1004701933+1006538192+1007377391+1006119425+1003671968+1001840039
3651.11+1001872743+1003424185+1004920142+1005420304+1005015792+1003670436
3645.32+1001336613+998790841+997113710+996658242+996935732+997308672+997564648
3638.57+997786787+997912877+997721244+997263912+996922277+996682154+995700680
3631.82+993422741+990926593+990309667+992089708+993730405+992907792+990158599
3625.07+987137977+984722225+982979684+981812905+981447292+982428366+984804753
3618.32+987638405+989840477+991120224+992170238+993925234+996651181+999752999
3611.57+1002164621+1003717928+1005650503+1008667594+1011959912+1014625845
3605.78+1016297315+1017114599+1017711676+1018697480+1020313998+1022489693
3599.99+1024790879+1026693680+1028084062+1029332836+1031077242+1033565663
3594.21+1036311193+1038773570+1040574660+1041377091+1041557933+1042390870
3588.42+1044841791+1048445569+1051741284+1053368926+1053168501+1052267224
3582.64+1051564372+1051058882+1050643312+1050370484+1050126032+1049812506
3576.85+1049527622+1049317872+1049199976+1049193315+1049174065+1049020266
3571.06+1048638201+1047873870+1047129855+1047543559+1049441631+1051550118
3565.28+1052383588+1051704516+1050453478+1049313676+1048226095+1047147906
3559.49+1046067185+1044772518+1043238062+1041627938+1039958933+1038345146
3553.70+1037221929+1036959026+1037212937+1037067264+1036241254+1035388734
3547.92+1035310802+1036307529+1037927445+1039522049+1040747109+1041465747
3542.13+1041727917+1041761222+1041823500+1041933604+1041960847+1042038179
3536.35+1042295021+1042250859+1041508643+1040437447+1039511724+1038813669
3530.56+1038257755+1037858039+1037728352+1037828864+1037953555+1038012570
3524.77+1038194744+1038727011+1039399289+1039625092+1039299976+1038935629
3518.99+1038841777+1038789423+1038486155+1037909594+1037180165+1036286415
3513.20+1035045901+1033355581+1031385838+1029612125+1028351961+1027113912
3507.41+1025362179+1023390039+1021662884+1020377010+1019604419+1018904699
3501.63+1017600174+1015674660+1013592150+1011446162+1008993043+1006091716
3495.84+1002660920+998542059+993659334+988107594+982056226+975674346+969159383
3489.09+962828992+957049186+951916546+947355539+943511371+940621568+938936843
3482.34+938685329+939621576+941125460+942724926+944307074+946044953+948078839
3475.59+950350783+952655965+954702906+956407680+957977639+959541470+960875169
3468.84+961670073+961991459+962029425+961699314+960958030+960080598+959394133
3462.09+958976565+958647719+958170337+957524569+956930223+956594317+956560613
3455.34+956717676+956906577+957063240+957208246+957361845+957479875+957423591
3448.59+957272457+957454830+957822109+957554543+956608571+955624566+954951355
3441.84+954421220+953743213+953059012+952706454+952666156+952749017+952964761
3435.09+953283549+953520675+953785110+954435873+955496412+956556750+957342395
3428.34+957977440+958562261+959058893+959455879+959717383+959815164+959775599
3421.59+959635455+959350837+958743103+957786407+956747916+955829120+955052867
3414.84+954442801+954027764+953726894+953445074+953312590+953496363+953838530
3408.08+954103231+954318909+954568890+954801953+955021228+955255423+955349340
3401.33+955098627+954382320+953117228+951504706+949883259+948420939+946914858
3394.58+945249316+943754625+942699815+941686902+940267011+938704313+937469061
3387.83+936635191+936052035+935635999+935342589+935072159+934740583+934378500
3381.08+933993437+933398092+932476565+931396377+930210349+928718988+926902312
3374.33+924987988+923128682+921369556+919754037+918239763+916713232+915155996
3367.58+913664035+912327072+911199060+910298648+909620708+909235512+909175099
3360.83+909229451+909147256+908897808+908585881+908286943+907973550+907535267
3354.08+906932728+906277502+905674164+905014807+904059977+902800879+901518335
3347.33+900433352+899588958+899007134+898700269+898536213+898323066+898150217
3340.58+898322400+898833952+899310069+899550924+899676548+899771664+899884899
3333.83+900088187+900312524+900434151+900394652+900196159+899908878+899652968
3327.08+899510360+899338177+898880178+898175662+897537221+897150159+896994096
3320.33+897045984+897342791+897896173+898643985+899507163+900419364+901333830
3313.58+902244433+903089759+903790413+904390354+904931081+905314145+905401402
3306.83+905159947+904644532+903854557+902783627+901588341+900468321+899487047
3300.08+898641987+897985894+897626875+897547945+897556870+897536621+897572789
3293.32+897812846+898183455+898366228+898269646+898156145+898169134+898159343
3286.57+897973639+897576053+896947870+896097215+895070380+893903802+892633514
3279.82+891287892+889895511+888557882+887440127+886533787+885636107+884776459
3273.07+884173054+883792454+883415784+882884182+882186194+881474283+880881935
3266.32+880385703+879883543+879279072+878528529+877648100+876668291+875579311
3259.57+874311221+872859892+871406165+870026106+868487120+866706812+864945687
3252.82+863351017+861892893+860609017+859567129+858796204+858180410+857424272
3246.07+856386514+855213341+853982885+852636131+851164486+849544571+847712774
3239.32+845629532+843293843+840782642+838201901+835592652+832884157+829905298
3232.57+826553632+822975432+819461042+816169723+813068438+810084917+807177596
3225.82+804317899+801502431+798712740+795874625+792920611+789856493+786706318
3219.07+783346593+779585019+775454502+771135683+766676387+761985094+756978411
3212.32+751695170+746279311+740853528+735472506+730144903+724864326+719642565
3205.57+714532105+709622004+704943900+700440109+696062941+691802804+687650240
3198.82+683599986+679642650+675719485+671759885+667760986+663754760+659740475
3192.07+655686823+651609726+647587914+643657888+639805128+636043354+632435713
3185.32+629074455+626005675+623198400+620650630+618408926+616464828+614776240
3178.56+613338499+612117634+611044041+610103864+609268795+608461568+607669262
3171.81+606918253+606206076+605536196+604919536+604346771+603816102+603369426
3165.06+603044911+602842155+602773815+602870930+603134033+603562324+604202097
3158.31+605076066+606149992+607412953+608891592+610607756+612510290+614405165
3151.56+616101813+617631340+619149545+620697789+622189816+623553223+624769558
3144.81+625804785+626636190+627316728+627920999+628488835+628989863+629351346
3138.06+629596665+629853507+630215190+630685445+631247087+631889324+632528964
3131.31+633059034+633420251+633522894+633309548+632842223+632152361+631153835
3124.56+629779505+628079060+626108386+623761773+620865509+617455228+613751537
3117.81+609892116+605886356+601705150+597263772+592481625+587390283+582071273
3111.06+576620711+571170283+565786730+560488501+555404819+550707198+546389478
3104.31+542237213+537929218+533115633+527437570+520481993+511830800+501190749
3097.56+488383561+473308792+456262816+438349699+421308218+406836188+395813105
3090.81+388009171+382625151+379038125+377002374+376292862+376392974+376538247
3084.06+375973741+374191168+370949473+366142015+359716807+351672050+341989294
3077.31+330558734+317291616+302525843+287525709+274244853+264021803+256558371
3070.55+250432800+244381248+237926349+231185501+224530261+218386456+213083216
3063.80+208766462+205335415+202481081+199873081+197288061+194631570+191891286
3057.05+189082045+186230808+183367864+180509833+177637198+174700369+171662196
3050.30+168502129+165171578+161602137+157731092+153488640+148801260+143572688
3043.55+137701062+131165816+124069396+116672505+109420471+102830765+97273056
3036.80+92807274+89172264+85950019+82788204+79517975+76154028+72842036+69779455
3029.09+67112411+64904207+63141138+61721310+60498172+59338983+58143284+56852119
3021.37+55466340+54024731+52562507+51110666+49699185+48342190+47018345+45681765
3013.66+44284505+42787757+41173133+39437302+37582147+35621576+33583151+31481580
3005.94+29326571+27155424+25023863+22969618+20983812+19050257+17166126+15310934
2998.23+13480752+11723679+10073287+8524887+7066549+5704767+4483654+3452743
2990.51+2608676+1919864+1364403+927054+599648+377756+231298+110618+30901+12447
2980.87+12067+11233+11064+11365+30123+49680+54791+68742+81629+81592+92969
2970.26+129815+149490+125027+83138+55998+61349+91583+93745+55665+39780+59829
2959.65+67120+51353+35218+28999+41027+69481+96134+104092+73308+34239+31723
2949.04+45003+32338+15812+30759+52389+61835+61201+58112+59011+60598+55675+44423
2937.47+39617+44245+52370+59418+55649+39032+33336+54166+80924+84686+63535+41187
2925.90+43912+56636+52854+46188+50881+57467+55987+44535+26678+20795+36215+54050
2914.33+56206+54737+47677+27477+17908+30951+48216+55397+58677+41791+20259+23178
2902.75+29939+28394+40189+58919+66323+65944+63359+62819+65308+60285+53329+60635
2891.18+75010+83616+76651+49372+34632+55113+69016+46701+17649+4792+7650+23707
2879.61+47341+71838+87789+89843+81356+81371+92787+94774+81507+79435+93390+84541
2868.04+48214+25381+19300+21497+39850+62419+73815+65234+49642+61777+95721
2857.43+107020+83752+55745+44657+45198+56097+72743+74388+64548+68419+86187
2846.82+105637+118554+114917+92110+69855+61192+55570+37649+10672+11188+10759
2836.21+4093+27084+47356+60049+89533+179854+355106+603878+937128+1383338
2826.57+1961595+2670976+3510921+4513737+5699034+7043068+8546580+10250575
2818.85+12176035+14298020+16605399+19130568+21882940+24823318+27920521+31200351
2811.14+34708438+38452098+42406320+46558859+50919895+55471073+60142321+64858955
2803.42+69567728+74189090+78650476+82951352+87099096+91089994+94966683+98824522
2795.71+102795304+107044676+111730423+116920763+122613529+128891824+135993881
2788.96+144118460+153268866+163291857+173905315+184799245+195755053+206617060
2782.21+217247137+227534031+237386988+246723414+255511504+263813302+271743759
2775.46+279376244+286735401+293864793+300782203+307433047+313779258+319806481
2768.71+325434521+330557769+335105920+339029618+342324634+345078123+347489112
2761.96+349834958+352365043+355212784+358391534+361837817+365450521+369069652
2755.21+372457220+375393216+377730603+379387452+380390674+380819499+380710994
2748.46+380087639+378949836+377249358+374954500+372054606+368511041+364248140
2741.70+359177812+353241776+346397235+338617879+329920760+320369089+310107239
2734.95+299448937+288950662+279348552+271391801+265601154+262031829+260286806
2728.20+259748744+259794404+259984171+260270687+261017317+262730900+265740548
2721.45+270097517+275737047+282650744+290868349+300314313+310736655+321726167
2714.70+332778091+343422173+353367066+362524482+370895287+378517880+385462334
2707.95+391760287+397388559+402295996+406395541+409581385+411809601+413186029
2701.20+413972807+414495083+415043436+415786452+416687697+417551407+418153613
2694.45+418347344+418109419+417525297+416763164+416063510+415660363+415611006
2687.70+415765471+415873709+415667523+414942491+413618417+411772367+409580852
2680.95+407155742+404460868+401364079+397693526+393299173+388123138+382202255
2674.20+375675968+368818772+362064418+356030101+351493307+349081651+348741116
2667.45+349627040+350546968+350453117+348754937+345588709+342063196+340181010
2660.70+342033822+348457997+358423206+369839611+380891336+390826971+399808674
2653.95+408170986+415913974+422781961+428561035+433235509+436944862+439880725
2647.20+442218845+444047777+445353867+446083894+446270930+446134750+446102012
2640.45+446751776+448575812+451703874+455862466+460561686+465297007+469668280
2633.70+473461192+476660325+479354433+481597103+483392864+484744014+485652353
2626.94+486168301+486450387+486748693+487330517+488400313+490002777+491962528
2620.19+493981993+495798570+497242073+498213855+498712685+498879139+498974456
2613.44+499259739+499834170+500603696+501341617+501782764+501782764+501424811
2606.69+500977236+500781374+501095366+501974763+503303466+504875023+506523081
2599.94+508315545+510593017+513777130+518104941+523460352+529439185+535588934
2593.19+541585218+547325992+552906939+558482191+564195589+570149377+576399505
2586.44+583002124+590021646+597481648+605332574+613446804+621653486+629821668
2579.69+637870421+645736135+653367188+660741332+667881947+674834660+681614258
2572.94+688183373+694505372+700543685+706225711+711508419+716422650+721027019
2566.19+725379409+729568808+733669218+737681705+741593014+745382363+748998997
2559.44+752440384+755784523+759092160+762361765+765585276+768786473+772002791
2552.69+775271329+778617466+781996108+785305877+788464312+791441972+794266033
2545.94+796984187+799600762+802039561+804209661+806061306+807593232+808851197
2539.19+809905807+810869164+811884541+813108204+814693149+816726969+819180687
2532.44+821931812+824814688+827658731+830385944+833032227+835613567+838046970
2525.69+840259899+842284327+844197186+846055359+847910668+849803211+851715137
2518.94+853598821+855422425+857161302+858836369+860508039+862221939+863994653
2512.18+865821254+867699543+869635115+871653814+873803932+876113310+878560568
2505.43+881137045+883842011+886584476+889216439+891609877+893661547+895313834
2498.68+896601840+897625610+898455617+899131358+899691401+900166585+900591480
2491.93+901000988+901414826+901853508+902346877+902895130+903443849+903914637
2485.18+904238620+904369506+904299567+904052383+903669519+903244291+902915978
2478.43+902815333+903000238+903406083+903887861+904297236+904535827+904588980
2471.68+904502056+904328075+904129449+903956667+903833109+903807265+903943079
2464.93+904259868+904759764+905483397+906460875+907647702+908946232+910230108
2458.18+911352725+912188727+912675434+912769418+912426785+911684901+910668258
2451.43+909507208+908325576+907213016+906184717+905233016+904348124+903527243
2444.68+902797748+902162371+901601529+901097837+900617391+900128885+899648839
2437.93+899207891+898764413+898204836+897407801+896290779+894818934+893009851
2431.18+890899698+888501398+885820345+882882584+879790025+876738363+873927091
2424.43+871468177+869411777+867786733+866595843+865831845+865452977+865364654
2417.68+865464233+865671385+865923365+866172214+866394352+866587983+866783545
2410.93+867003019+867230021+867434109+867559066+867561864+867463883+867279444
2404.18+866949933+866417998+865701426+864841245+863852977+862805561+861975488
2397.42+861686274+862196228+863607992+865841237+868699201+871960413+875420650
2390.67+878884218+882156686+885065273+887487486+889367440+890711463+891559521
2383.92+891963500+892012124+891827553+891497708+891094461+890804781+890887176
2377.17+891428569+892361419+893730220+895664660+898174729+901166443+904406340
2370.42+907395923+909766914+911855352+914354098+917266548+919785409+921328392
2363.67+922252050+923390586+924971602+926307233+926609102+925871281+924627504
2356.92+923128549+921325461+919223235+916854708+914537137+913153416+913409058
2350.17+914481186+914387002+912226294+909325833+908035363+909360203+912184930
2343.42+914377610+914916805+914334648+913510636+912651522+911543625+910048534
2336.67+908143668+906206764+904792336+904115195+903913572+904080292+904627413
2329.92+905089276+904958057+904441043+904101940+904014483+904047921+904514379
2323.17+905693613+907236462+908612658+909783566+910902986+911726198+911768961
2316.42+910872413+909254695+907346433+905609354+904349390+903690700+903628155
2309.67+904016481+904567865+905036389+905464347+906144951+907355358+909165707
2302.92+911471688+914106048+916870495+919527235+921845206+923707509+925092030
2296.17+926066377+926776489+927362043+927860140+928193715+928262588+928011008
2289.42+927478674+926738922+925873746+925038810+924462848+924360870+924870757
2282.66+926085960+928036253+930619191+933649938+936921474+940229644+943421450
2275.91+946380659+949012688+951239139+953052818+954525462+955746459+956763969
2269.16+957562603+958129173+958456354+958528490+958323803+957902039+957400678
2262.41+956925294+956567740+956446913+956686103+957282781+958102463+958984891
2255.66+959838077+960679807+961654887+962951352+964634678+966566786+968474316
2248.91+970106954+971401487+972395483+973129308+973615815+973851942+973827030
2242.16+973573785+973158149+972624883+972025407+971443184+970962138+970605184
2235.41+970385243+970327561+970403561+970571414+970820795+971161630+971616965
2228.66+972249478+973138366+974282898+975524544+976571561+977175965+977256761
2221.91+976855912+976039693+974861791+973389680+971723672+969994852+968343364
2215.16+966893101+965751767+964993097+964653794+964887523+965952058+967803637
2208.41+969991788+972128251+974165734+976213674+978294852+980255535+981850139
2201.66+982878706+983249781+982992206+982217684+981075884+979719738+978251423
2194.91+976747740+975310332+974026988+972939141+972067637+971466230+971253816
2188.16+971526777+972251077+973300824+974585166+976054014+977541578+978720013
2181.41+979297707+979198727+978527448+977507608+976481040+975822417+975727233
2174.65+976069733+976580753+977101164+977577880+978026953+978549629+979218776
2167.90+980018543+980935274+982027384+983405444+985131067+987200455+989558124
2161.15+992053207+994505726+996796321+998834536+1000553165+1001960533
2155.37+1003066831+1003791197+1004015800+1003717728+1003014810+1002089953
2149.58+1001194937+1000627900+1000595395+1001152707+1002244817+1003758226
2143.80+1005551589+1007489493+1009429860+1011259658+1012989144+1014774182
2138.01+1016834778+1019308279+1022098303+1024835973+1027143686+1028845196
2132.22+1029882155+1030253030+1029989261+1029151728+1027854730+1026305686
2126.44+1024776758+1023512798+1022690917+1022366868+1022463183+1022858770
2120.65+1023517660+1024481217+1025778747+1027407854+1029342694+1031558487
2114.86+1033950859+1036292076+1038376118+1040106470+1041437572+1042332322
2109.08+1042802243+1042907618+1042708725+1042240602+1041522364+1040567333
2103.29+1039428331+1038244634+1037182830+1036402846+1036038965+1036129419
2097.51+1036675407+1037612920+1038866356+1040382762+1042085937+1043829211
2091.72+1045454854+1046890198+1048097674+1049002682+1049571384+1049836285
2085.93+1049798052+1049452621+1048808585+1047841565+1046524252+1044873896
2080.15+1042965967+1040928151+1038916912+1037055142+1035440222+1034204837
2074.36+1033465551+1033251605+1033523434+1034259589+1035487581+1037188825
2068.57+1039186476+1041178199+1042936259+1044419028+1045529189+1045957814
2062.79+1045567289+1044537324+1043094454+1041449361+1039762238+1038069653
2057.00+1036335905+1034569718+1032868540+1031354466+1030136399+1029294403
2051.22+1028875969+1028903412+1029356748+1030166839+1031238234+1032479414
2045.43+1033792731+1035063152+1036136146+1036904940+1037355745+1037343756
2039.64+1036682068+1035448015+1033797927+1031783357+1029487034+1027070416
2033.86+1024713347+1022602395+1020909677+1019751357+1019167069+1019137428
2028.07+1019652910+1020736428+1022365269+1024440252+1026874788+1029614189
2022.28+1032540827+1035474992+1038273342+1040853350+1043148940+1045176765
2016.50+1046806471+1047637610+1047603307+1047068442+1046240034+1045136333
2010.71+1043787248+1042259652+1040702349+1039396425+1038656140+1038687512
2004.93+1039544629+1041112057+1043195233+1045696976+1048639933+1051994129
1999.14+1055533164+1058885563+1061751587+1063987763+1065458275+1066002266
1993.35+1065838542+1065513160+1064838817+1063182534+1061060192+1059427155
1987.57+1058297544+1057267846+1056327269+1055607766+1055134180+1054967127
1981.78+1055232161+1056085481+1057653308+1059875696+1062484945+1065176722
1975.99+1067731552+1069982115+1071794594+1073072342+1073737094+1073741823
1970.21+1073011995+1071489528+1069388434+1066948237+1063911696+1059984534
1964.42+1055426058+1050581100+1045547773+1040322015+1034858665+1028958896
1958.64+1022359940+1015043479+1007368931+1000176295+994853022+992810810
1952.85+994585123+999499155+1006070868+1012751286+1018402005+1022359008
1947.06+1024329683+1024089293+1021306396+1015986054+1008593593+999402706
1941.28+988601229+977078384+966510969+958876186+955665131+957173477+962256893
1934.53+969049013+975968555+982149877+987434917+992219728+997034313+1002073168
1927.78+1007044549+1011328998+1014274619+1015575280+1015620574+1014848117
1921.99+1012821358+1009173751+1004471801+999753132+995676368+991783843
1916.20+987524705+983563106+980634803+978706558+977549971+977139130+977554367
1909.45+978586130+979806062+981039183+982229274+983370408+984472244+985355537
1902.70+985800481+985752923+985183688+984033828+982309737+980062638+977407162
1895.95+974593426+971724271+968626450+965434911+962707365+961025438+960996396
1889.20+962451856+964149569+965732850+967884233+970801612+974040976+977104094
1882.45+979764299+981999475+983771124+985048473+985842777+986173021+986040604
1875.70+985371989+984026900+981881578+978872280+975083463+971065048+967939584
1868.95+966509170+966437766+967256516+968968550+971439321+974379613+977548838
1862.20+980735049+983716306+986211654+987942006+988628805+987911832+985564754
1855.45+981767545+977193283+972928017+970066056+969151990+969960615+971890859
1848.70+974491448+977214798+979181609+980596171+983263102+987451236+990790645
1841.95+992868693+995249209+998567970+1002501526+1006741481+1010935143
1836.16+1014484036+1017043062+1018765154+1019726379+1019849871+1019679687
1830.37+1020061020+1020239663+1018385087+1014636102+1010786073+1007998847
1824.59+1005760806+1003041387+999980666+997269906+995072297+993168963+991385458
1817.84+989655706+987853084+985715888+982972490+979415537+974939589+969692317
1811.09+964130986+958952319+955090833+953396583+953878428+955491083+956904912
1804.34+957189263+955993843+953439546+949814120+945531802+941225772+937731897
1797.59+936041244+936893631+940067719+944597354+950041587+956287785+962178295
1790.84+966251995+968378001+969336428+969809014+970036948+970048338+969742073
1784.09+968701584+966558061+963484418+959871248+955846372+951445625+947039882
1777.33+943239276+940474030+938824541+938329841+939361404+941981244+945038767
1770.58+947284867+949013021+951279104+954154986+956606173+957988163+958433707
1763.83+958280574+957841225+957042658+955122339+951549201+946824670+941842166
1757.08+937080534+932483293+927931677+923723095+920480134+918798140+918793078
1750.33+919795467+921093797+922539998+924057136+925506334+926987704+928750561
1743.58+930760734+932467240+933492076+934201788+934688562+934021213+931573356
1736.83+927891113+924027962+920745968+917750857+913895100+909131603+904734653
1730.08+901764586+900247181+899689336+899832611+900592612+901835990+903411145
1723.33+905085945+906491448+907389595+907987605+908893678+910419143+911559811
1716.58+910655136+907474454+902816865+897211040+890983492+884614401+878499821
1709.83+872765774+867472542+862869438+859262263+856608253+854479983+852482532
1703.08+850658196+849760981+850840902+853477461+854975816+854176316+852594301
1696.33+851710408+850971721+848788166+844994021+840481372+835875005+831229872
1689.58+826355805+821156624+815829355+810893209+807009276+804372452+802053415
1682.83+798991429+795674999+793254452+792174797+792002481+792298089+793241263
1676.08+795258497+797877005+799546543+799639995+798885056+797859553+796401230
1669.32+794085524+790479548+785587764+780061336+774611707+769605823+765076921
1662.57+760799865+756481379+752171286+748249586+745019880+742545513+740834212
1655.82+740209026+741504358+745376169+750492223+753495194+753458026+752172885
1649.07+751412550+751566949+751716418+750460517+746985293+741576695+735083713
1642.32+728193811+721245628+714430594+707908970+701734243+695794843+689808284
1635.57+683456112+676784286+670293236+664316535+658825609+653593390+648332928
1628.82+642744687+636515408+629507143+621785570+613249910+603424245+591908061
1622.07+578902447+564778013+549613189+533027976+513951244+491569339+468060021
1615.32+448132867+433673792+423021718+413426452+402559999+389164326+373395332
1608.57+356793067+341759162+331017500+326946830+330525230+340751811+355120731
1601.82+370784051+385706287+399051703+410873154+421524495+431096615+439310524
1595.07+445843371+450761066+454648962+458349622+462539654+467505373+473256871
1588.32+479688940+486716354+494295053+502365487+510785382+519263860+527398538
1581.57+534787069+541185900+546587938+551324558+556175178+561866695+567783381
1574.82+572204977+574859853+576792161+578901847+581720113+585446451+589486381
1568.07+593023551+596489916+601097482+607406825+614667735+621615985+627932322
1561.32+634706591+643604202+654580325+664321797+669438251+670211174+669202457
1554.56+668132328+666789170+664367957+660941223+657057024+652933101+648487793
1547.81+643777250+639128920+634843338+631007230+627599946+624630080+622104091
1541.06+619788652+617192991+613668410+609066306+604046833+599284403+595002552
1534.31+590880827+586259939+580631400+574024584+566660431+558488885+549181634
1527.56+538457589+526358582+513317199+500345955+488029938+475218254+460022924
1520.81+442098250+423328882+405220603+387926210+372450559+361008410+354146717
1514.06+349937635+345775712+339894195+331915214+322244580+311065667+297936561
1507.31+282217423+264910742+249074789+236328365+225444777+214222435+200936683
1500.56+184236887+163199238+139294758+117014539+100484494+91486239+89470353
1493.81+91682542+94740323+96207797+95195291+91987858+87292011+81472447+74508319
1486.09+66548334+57855657+48645016+39292200+30371404+22534382+16260728+11571946
1478.38+8103124+5453886+3401683+1888372+867549+290157+73047+21454+11534+9927
1468.74+10294+10904+11142+10811+9963+9234+10652+19336+36672+50100+54887+58393
1457.16+55193+36640+18195+11057+9800+10254+10858+11185+11281+11251+11093+10737
1445.59+10276+10373+13054+25487+75303+213190+467315+844495+1426483+2426523
1435.95+4017545+6190130+8999208+12681480+17442992+23412447+30673242+38947943
1428.23+47620259+56328236+65100822+74144080+83631649+93252650+102238017
1421.48+110345811+118359412+127173745+136322727+144484090+151355757+157288130
1414.73+162455656+166888875+170621907+173746221+176390107+178721449+180923638
1407.98+183118433+185329847+187536298+189652362+191428591+192635867+193219190
1401.23+193069437+191867223+189250614+185188387+179838654+172681737+162508943
1394.48+149063347+133997671+118528996+102184614+84683961+66657667+48518947
1387.73+31165007+17464187+9107813+4743679+2569182+1461448+776061+280350+59509
1379.05+15643+10251+10052+10033+13063+42113+265098+896126+1621135+2289329
1369.41+2875637+3164193+3023815+2734172+2754810+3545558+5896816+10832966
1361.69+18573125+28362677+39163813+50032014+60232584+68992561+75889768+81049501
1353.98+84825445+87819199+90925813+94886537+99754758+104833903+109225308
1347.23+112541796+114925743+116584715+117559945+117942701+118170885+119109979
1340.47+121746313+126483957+132888841+140405011+148786440+157546887+166025014
1333.72+173998051+181382203+187922877+193416067+197949781+201805589+205167429
1326.97+208089754+210575495+212716304+214662217+216469584+217955450+218766640
1320.22+218649892+217524428+215536535+212997557+210231029+207413513+204509022
1313.47+201462906+198432143+195810588+193845375+192464700+191493201+190859755
1306.72+190664276+191052686+192045434+193471036+195192612+197232393+199657436
1299.97+202452007+205384406+208130735+210656940+213453059+217117018+221719888
1293.22+226728270+231502590+235841691+240048258+244769558+250701099+258043570
1286.47+266194717+274217377+281441569+287536367+292461921+296396010+299623085
1279.72+302316027+304371261+305577339+305846170+305336683+304320606+302946542
1272.97+301189513+299009056+296441970+293495749+290126399+286282264+281949558
1266.22+277221564+272522128+268752178+266926743+267683764+271229093+277373914
1259.47+285171570+293086441+299840028+304590403+306567438+305256553+301306711
1252.72+296634834+292988660+290821624+289889640+290336715+292820640+297968067
1245.97+305793483+315508144+325935848+336153670+345808484+354937425+363611764
1239.22+371736118+379117689+385612569+391134801+395612648+399076681+401742081
1232.47+403846372+405433416+406247637+405881124+404143446+401334405+398138436
1225.71+395170002+392652905+390520339+388607847+386639570+384421745+382371440
1218.96+381625993+383231254+387131206+392222915+397328279+401810288+405436613
1212.21+408152036+410122578+411729870+413222297+414417418+414999741+414898530
1205.46+414252728+413218734+411913510+410492853+409154558+408072972+407286527
1198.71+406659443+406065563+405575026+405333670+405330273+405473281+405623117
1191.96+405539657+405117027+404722206+405054881+406504379+408721704+410706200
1185.21+411455810+410490089+407740596+403135894+396232671+386364211+373386140
1178.46+358411616+343206828+328900686+316144188+305813965+298194169+292192990
1171.71+286771736+282980222+283717676+290555124+301578839+313519252+324481955
1164.96+333733089+340640908+344954298+347069746+347408616+346057166+343098057
1158.21+339138923+335282232+332629955+331910784+333278120+336274497+340069674
1151.46+343953141+348008324+353519666+361976129+373415914+386405875+399497913
1144.71+412063179+423884996+434721375+444113552+451300694+455689818+457574168
1137.96+458101240+458278251+458362278+458203717+457766799+457213450+456746592
1131.21+456669693+457397989+459241641+462264628+466452828+471827323+478311746
1124.46+485654284+493399370+500927513+507778948+514184773+520862360+527923245
1117.71+534384821+538834659+540220479+538058405+532525449+524590629+515640132
1110.95+506587358+497544541+488516412+480051722+473168282+468805901+467427841
1104.20+468905880+472561014+477376997+482135598+485573988+486714389+485136937
1097.45+481101637+475553294+470048647+466168377+464254952+463162442+461810559
1090.70+460142586+458423158+456550164+454123089+450612063+445419343+438131223
1083.95+428897307+418846640+410160944+405089551+404507593+407835280+414192248
1077.20+422887802+433203471+444320638+455309650+465163557+472928725+477793833
1070.45+479258317+477484670+473271026+467463676+460552494+452839713+444713227
1063.70+436677662+429331128+423298076+419048830+416823178+416917795+419532306
1056.95+423884629+428513144+432720893+436912257+441848336+447819608+453999864
1050.20+458855513+461308931+460953110+457495570+450683401+440768381+428650923
1043.45+415366220+401592745+387587906+373531646+360118022+348641736+340119564
1036.70+334472441+330738044+327810008+324726973+320506102+315781172+315690218
1029.95+326444636+346983388+369462741+387712164+400302908+407839010+411139421
1023.20+411388836+410457518+409996988+410334858+410800351+410783765+410210634
1016.45+409529930+409350254+409939072+411175256+412904575+415266907+418389040
1009.70+421852841+424855979+426553126+426032515+422756017+417907828+414790191
1002.95+416429290+422638687+430534441+437474398+442426629+445342010+446356555
996.19+445789185+444298357+442328915+439636872+435905838+431768327+428660714
989.44+427349529+427015755+426352402+425083080+423961695+423860717+424995990
982.69+426746590+428131511+428355215+426844038+422995907+416111934+405415865
975.94+390403042+371662116+351140682+331311142+314403745+301883972+293549269
969.19+287746383+283117169+279351432+276433820+275423554+280194461+294209957
962.44+315332465+338185924+359532668+377807902+391015439+397530868+397341334
955.69+392636187+388109483+388832683+395630432+403957775+408647402+408323253
948.94+405359781+403419613+405195957+411330720+420559807+430867649+440854006
942.19+450218308+459169871+467594795+475032717+481360377+486916945+491885329
935.44+496202083+500256966+504741740+509403459+512878117+514051523+513045137
928.69+510850725+508252600+505027557+500414096+494499707+488387525+482777802
921.94+477324510+471839812+467551466+466782806+471349275+480971750+493054306
915.19+504029397+511017479+512404232+507496595+496767921+483258582+472820487
908.44+469928485+472414542+473310824+468434260+460259484+454744379+455131573
901.69+459234248+462871031+463855402+462147264+458451866+453502932+447870230
894.94+441956641+436343921+432028100+429524925+427979944+426219352+424388455
888.19+423708150+424557374+425367631+424270625+421329599+417822736+413777411
881.43+407791419+399230713+389213583+379439041+370887760+363691894+357767580
874.68+352949998+348736354+345180234+344286283+348856782+359302636+372977964
867.93+386705645+398475474+407010269+411369486+411660664+409845254+408935317
861.18+410678791+414235510+417325338+418680885+419372180+421147159+423535268
854.43+424039327+421124845+415405886+408223141+400558984+393593815+389356258
847.68+389810128+395182058+402691583+407914644+411138122+419284690+435983703
840.93+455993851+472702823+483665992+488536927+486746228+478745766+468616500
834.18+461443647+457929523+455731748+453550357+450541458+445494643+438419471
827.43+430894159+424529864+419749050+415944381+412112702+407636621+402822302
820.68+397595878+390252807+379193189+364837024+348978408+333853550+321594316
813.93+312980324+307112761+302810095+299668612+297664500+296168343+293741068
807.18+289729113+286574442+289132602+300307086+318950198+342366330+367795901
800.43+391659075+410046777+419682308+418214460+406259493+390984133+383923281
793.68+390540655+404389797+414724682+417355345+416038032+414997676+412910737
786.93+405410003+390633074+370787015+350788424+335940256+329567069+331343181
780.18+337365842+343101354+346018100+345538187+342512536+338382019+332919501
773.42+323399702+307514809+286024324+260582414+231848254+204296192+188141802
766.67+189961142+205704209+226248590+245015593+259264918+268898117+275342775
759.92+280145271+283941181+286197805+285785033+281822502+274076983+263111900
753.17+250463473+238581059+229922390+224862403+221169053+216387057+209242978
746.42+199217288+186286259+170841381+153768112+137670355+127967949+129420003
739.67+140751091+155756721+169095926+178379415+182449352+180406873+171552392
732.92+154992257+129820777+97378830+63354176+36204229+22897853+25391974
726.17+41653050+65893890+90445125+111461317+129879926+149919614+175676798
719.42+208095299+244802130+282447389+318564935+352263432+383987792+414525789
712.67+444214997+472663924+498828850+521587525+540594252+555889661+566436627
705.92+570401889+567079598+557058904+540233301+514498765+477656386+432113958
699.17+386262100+347526346+314365978+280404077+249998314+240194680+262879353
692.42+313413245+378336406+450438482+526341097+596219353+650947639+691087098
685.67+720716691+740045702+746560398+737663254+710118836+658162656+573473467
678.92+452335887+311108163+188337730+113748890+87452012+101859740+161003577
672.17+268010811+398226659+512255162+597943910+671372557+738302561+787154193
665.42+816802569+837201444+856829193+878260297+900267497+920937334+938998722
658.66+953697786+964464893+970939358+973106128+971204393+965644261+957167282
651.91+946808218+935528360+924142661+913498713+904405208+897493725+893247110
645.16+892032973+893960818+898812371+906148082+915446008+926147173+937552654
638.41+948767503+958948589+967653102+974724711+979815654+982314200+981791724
631.66+978218452+971712681+962305251+949958793+934869803+918551223+903307302
624.91+891111380+883114581+879597860+880200732+884429363+891861057+902082042
618.16+914760142+929024188+943788262+958448760+972116794+983612197+991888085
611.41+996017869+995753634+991512014+983691794+972895046+960242523+946771583
604.66+933105548+919814451+907570303+896958461+888492406+882831096+880516455
597.91+881348194+884624259+890119381+898286032+909324901+922534136+936508302
591.16+949068106+958308150+963885534+965874126+964190200+959424373+952489644
584.41+943673296+932929635+920676229+907624323+894399501+881750308+870621052
577.66+862053153+857082238+856165108+858753775+864133532+871975133+881786743
570.91+892819617+904330340+915386128+924632099+930983206+934377901+935283175
564.16+933626758+928872254+920915953+910050532+896423662+880084234+861441822
557.41+841799951+823616137+809827076+802592743+802189096+806945133+814675831
550.66+824028376+834171963+844217501+853688543+862730294+871668535+880996702
543.90+891287692+901818406+909535716+910754316+904762628+895469964+887902522
537.15+882912957+877572233+870064872+861092527+852043050+844574322+840323710
530.40+839769129+842277733+847126355+854057886+863457990+875320338+888529307
523.65+902437597+916821271+931177636+945557380+959334851+969777709+974446821
516.90+973018605+966634660+957351254+946974606+936294889+925554425+915076732
510.15+905468344+897583780+892218544+889715002+890143027+893811549+901040021
503.40+911818651+925787888+941128790+955343346+967625659+977770178+985033419
496.65+988772479+988706537+985057398+978559620+969589873+957961320+943808977
489.90+927449233+909079982+888963394+866270727+839167323+808978086+785004741
483.15+780466514+798107203+826209400+850954603+867237747+877589351+885765793
476.40+893577820+901254233+909080714+917978325+927151361+932354872+929781658
469.65+917834517+893898207+852175534+784693414+692725330+604940984+565078416
462.90+592348475+665517617+741816019+793880770+824788444+848193953+869508160
456.15+887396099+902740532+917350275+931035893+942176540+949208783+952001804
449.40+951178592+946853179+938755401+927255536+913678689+898743898+882221496
442.65+864647415+847284150+830951316+816159399+803833590+795071794+790247085
435.90+788980727+790567471+794201956+799872258+810477373+830453618+859460290
429.14+890495519+916115223+933447715+943242873+947340952+947663869+945075069
422.39+939389913+931376129+921851933+910188345+897145830+886625440+881147836
415.64+880477356+883756485+890363368+899708653+911337872+925230975+941328149
408.89+958689483+975797505+991420361+1004430970+1013931852+1020096522
403.11+1023343080+1023295788+1019694674+1013310396+1005616532
##END=
