##TITLE=Ñìåñü_2_250ìêì
##JCAMP-DX=4.24
##DATA TYPE=INFRARED SPECTRUM
##DATE=9/3/2017
##SAMPLING PROCEDURE=Instrument type and / or accessory
##ORIGIN=Default
##XUNITS=1/CM
##YUNITS=TRANSMITTANCE
##RESOLUTION=2
##FIRSTX=3998.2792
##LASTX=399.2493
##DELTAX=-0.96437028
##MAXY=0.95519269
##MINY=5.6748365e-007
##XFACTOR=1
##YFACTOR=8.8959251e-010
##NPOINTS=3733
##FIRSTY=0.74190873
##XYDATA=(X++(Y..Y))
3998.28+833987156+835673735+837440315+839313361+840889789+842133014+843518888
3991.53+845293240+847248162+849050856+850855426+852889345+855098340+857398458
3984.78+859735494+862070118+864409433+866637055+868712648+870730687+872543364
3978.03+874072890+875598329+876968256+877797408+878354531+878926462+879178323
3971.28+878991588+878902676+879050483+878976312+878750581+878702541+878718755
3964.53+878571149+878694433+879487806+880143624+880213842+880416055+881071336
3957.78+881885145+882561197+882945186+883272224+883689312+883745192+883392024
3951.03+883386731+883648910+883810452+884222181+884377224+883681473+882890043
3944.27+883288572+884942789+886191710+886102396+885964104+886573288+887430782
3937.52+888060736+888358829+888428511+888555949+889320846+890629868+891526223
3930.77+891883680+892159528+891918052+890898882+890134655+890582498+891571115
3924.02+891609708+890479314+889418804+889368418+889650229+889448553+889772843
3917.27+891148331+892079929+891976679+891763947+891914501+892246966+892521809
3910.52+892567973+892183716+891296406+890261155+889658470+889795423+890172310
3903.77+889994017+889386844+888814109+888796688+889953079+891204546+890902366
3897.02+889669928+888657190+888046398+887799361+888574107+890838245+892867607
3890.27+892559397+890582096+889027377+889544768+892042609+893946342+893323088
3883.52+891493928+890613654+891940766+894454085+895408598+894198405+892494472
3876.77+891599993+892303047+894296965+895281428+894252341+893955187+896925126
3870.02+901142846+902507413+900809779+899534928+901027536+903966252+905527738
3863.27+905817388+906465768+906934717+906181880+904825421+903456834+901531794
3856.52+899314558+899475698+903476667+907937270+909467533+908433958+906565468
3849.77+905387703+905038957+904860530+904674599+904889877+905901476+906928820
3843.02+906791935+906128680+906066837+906554814+908011777+910127505+910692333
3836.26+909846163+909192690+908346118+907543834+908100756+908885284+908045747
3829.51+906578131+906312065+907356160+908085948+907152340+905176378+904239420
3822.76+906438230+911387615+914901210+914057719+911326710+910959605+914616115
3816.01+919157055+920461453+919269216+918273296+918049241+917763610+917046352
3809.26+916863302+918797990+922042437+923115276+920990637+918655275+919178964
3802.51+923277488+928240742+929753920+928152635+927242611+928960815+931770418
3795.76+933291032+933330229+933193343+933435087+933789931+933994890+933944438
3789.01+933619209+933157497+932969623+933486679+934415396+934772585+934257941
3782.26+933770567+934678447+937399405+940351857+941688484+941867982+942235556
3775.51+943012581+943722201+943995101+944144382+945253067+947675665+949369413
3768.76+948594466+947135828+947361492+948686795+948939929+947699652+946096491
3762.01+945245831+946059371+948011078+949133030+949276079+949681711+949661074
3755.26+948448401+947878682+950013505+953628675+956219851+958853439+961748537
3748.51+961308801+957722576+956215429+960541961+967491696+969447557+967054842
3741.76+965164241+964521489+963776492+962975950+963045498+964705008+967578129
3735.01+969634895+970255603+971778362+974329739+975234938+974270643+973492412
3728.26+974113522+975980471+977834891+978517777+978544645+979368772+980800408
3721.50+981182588+980609988+980402214+980204088+979137950+977439042+975559497
3714.75+973900523+973744273+975802514+978181091+979391151+980580641+981635188
3708.00+981662659+981435455+981623530+981790365+982023198+983374297+985684532
3701.25+986894994+986142961+984898061+984249680+984075341+983833195+983021999
3694.50+981550832+980023517+979548405+980217489+981160880+983088198+986258406
3687.75+987682806+986380417+985170693+985470058+986373315+987020154+987513692
3681.00+988314234+988987539+988356446+987319989+989313639+995295460+999820788
3674.25+997747003+992206659+989342450+991334626+995277973+997437386+997062710
3667.50+995530437+994446475+994459005+995153751+996083473+997102844+998129318
3660.75+998868486+998940178+998762220+999854289+1002545365+1004110000
3654.96+1002476018+999226948+996921737+996927700+998743393+1000341797
3649.18+1000625752+1000851483+1001278957+1000292751+998072835+996499490
3643.39+996340158+996905590+997397252+997748879+998313172+999018303+999310097
3636.64+999070698+999026075+999510501+999235457+996810916+993524659+992451016
3629.89+994724535+997034703+995473887+991202967+987189937+984227034+981751772
3623.14+979465992+977741289+977483062+978949606+981008785+982447389+982976572
3616.39+983358149+984821812+987713560+991307691+994169354+995425444+996826661
3609.64+1000056435+1004063702+1007516257+1010061201+1011565736+1012633147
3603.85+1014026123+1015937360+1018409674+1021179477+1023639664+1025549829
3598.07+1027119489+1028979671+1031749676+1034999349+1038006340+1040476175
3592.28+1041862048+1042142050+1042702255+1044924450+1048579151+1052453486
3586.49+1055051563+1055495519+1054948245+1054822348+1054822884+1054630521
3580.71+1054490285+1054265426+1053750715+1053295301+1053032787+1052833187
3574.92+1052781059+1052734091+1052418645+1051854888+1050911430+1049832963
3569.13+1049813399+1051343260+1053394934+1054554674+1054099127+1053046120
3563.35+1052406852+1051766646+1051031029+1050249717+1048904246+1047180079
3557.56+1045601440+1043896368+1041840339+1040035032+1039290973+1039571444
3551.78+1039552482+1038373043+1036857855+1036222608+1036817319+1038198904
3545.99+1039731646+1041193031+1042314246+1043008723+1043476332+1043856368
3540.20+1044235466+1044455167+1044672924+1045428038+1046249485+1045965865
3534.42+1044922239+1044105616+1043662129+1043280752+1042861319+1042695689
3528.63+1042932743+1043236397+1043244504+1043168725+1043767523+1045228908
3522.84+1046368615+1046203388+1045786232+1046098864+1046617528+1046669924
3517.06+1046322451+1045836417+1045256044+1044477009+1043258910+1041418694
3511.27+1039438512+1038254516+1037441043+1035660191+1033288649+1031224580
3505.49+1029686276+1028944830+1028655381+1027452624+1025156660+1022769305
3499.70+1020631467+1018234731+1015465062+1012197432+1008032442+1002878232
3493.91+996993631+990528121+983509574+975952934+968257129+961072619+954409787
3487.16+948078214+942454922+937799878+934301090+932712200+932952135+933973584
3480.41+935507130+937548820+939874399+942436429+945364358+948611351+951685143
3473.66+954278061+956629569+958918431+961056002+962770923+963903193+964738375
3466.91+965216503+964964709+964268422+963790361+963600142+963355852+963017156
3460.16+962658828+962249445+961841603+961599993+961584515+961701166+961833160
3453.41+961946997+962033765+962055005+961837985+961265451+961137678+961793964
3446.66+961759324+960331842+958860943+958014840+957442775+956563237+955307884
3439.91+954314242+953765695+953422778+953152424+953010513+952986125+952907330
3433.16+952916978+953482477+954532535+955466344+956164440+956902469+957559225
3426.41+957985292+958320571+958616519+958760507+958849620+959162118+959301081
3419.66+958732768+957898457+957322975+956882905+956486788+956253285+956225144
3412.91+956303269+956384542+956608866+957148769+957829981+958395278+958886605
3406.16+959441986+960029864+960578209+961065248+961430142+961499423+961010977
3399.41+959900214+958669183+957515807+956183603+954609186+953184183+952222099
3392.65+951451238+950303424+948864485+947498444+946382657+945571327+945037923
3385.90+944774805+944665123+944479728+944216945+944039054+943893593+943487425
3379.15+942745108+941879507+940925396+939663275+938085508+936415210+934786655
3372.40+933265974+931917018+930648198+929312241+927935949+926663511+925575261
3365.65+924594148+923681713+923058391+922905358+923043048+923137119+923061540
3358.90+922874470+922625289+922407867+922155068+921662468+920970402+920303261
3352.15+919711632+919004089+917905052+916402595+914820740+913444180+912343133
3345.40+911526310+911010795+910681613+910337021+910048040+910104389+910480874
3338.65+910848381+911052604+911098635+911062386+911095150+911194247+911258368
3331.90+911250060+911082822+910712903+910219901+909749546+909383178+909003275
3325.15+908380088+907525140+906729690+906181344+905874340+905796483+905942414
3318.40+906277023+906804464+907489227+908222365+908987128+909762008+910388143
3311.65+910864730+911381853+911947686+912273317+912125510+911673245+911057093
3304.90+910151626+908912822+907535592+906253438+905155407+904237209+903522362
3298.15+903089461+902916796+902835121+902756326+902768856+903035658+903502731
3291.40+903721694+903494020+903224269+903176028+903140450+902919811+902482957
3284.65+901807106+900924218+899914964+898786112+897533372+896193127+894814356
3277.89+893576691+892608577+891744249+890898949+890204270+889686611+889361383
3271.14+889154547+888821948+888273401+887678690+887185219+886777108+886357742
3264.39+885818910+885098369+884204693+883146394+881904776+880469388+878941537
3257.64+877454692+875920945+874253662+872507652+870700335+868954459+867455285
3250.89+866197386+865133526+864336266+863682459+862909254+861994540+860936441
3244.14+859592579+858086168+856605822+855016999+853175176+851059180+848722546
3237.39+846277636+843728068+841080946+838358848+835386832+832009587+828381887
3230.64+824802362+821434564+818291894+815285640+812305784+809374104+806527717
3223.89+803690040+800760972+797711435+794635029+791561103+788214344+784374716
3217.14+780182724+775843194+771454148+766868384+761820373+756475005+751148599
3210.39+745890669+740580813+735267540+730117282+725109405+720174560+715410503
3203.64+710900988+706574656+702344205+698199048+694201429+690415739+686716012
3196.89+682942047+679173308+675457902+671733184+667977644+664196175+660447201
3190.14+656803287+653217799+649637872+646145852+642845458+639787478+636997239
3183.39+634467438+632191373+630174272+628415465+627001183+625934709+624971687
3176.64+624025482+623267486+622684768+622135015+621567506+620995777+620435102
3169.89+619873557+619292916+618698004+618105838+617556487+617116283+616829380
3163.13+616685526+616657318+616752729+617010822+617466235+618126743+618981088
3156.38+620022436+621259966+622713646+624323239+625873804+627172775+628258881
3149.63+629298286+630371125+631423662+632359080+633123173+633687130+634041304
3142.88+634240970+634386164+634540872+634642045+634552262+634270317+633952794
3136.13+633719693+633618118+633712189+633897517+633914737+633783747+633606527
3129.38+633245184+632583470+631692207+630613807+629255337+627577201+625729950
3122.63+623712045+621281474+618377666+615151243+611626794+607838155+603923485
3115.88+599788110+595214608+590282845+585168367+579879080+574461417+569054072
3109.13+563712055+558414996+553266883+548452508+543999241+539730498+535425607
3102.38+530954384+526075452+520355944+513496059+505414322+496058572+485356715
3095.63+473275852+460237393+447171833+434984034+424144755+414612588+406105656
3088.88+398491728+391855965+386205135+381262383+376566836+371628943+366019989
3082.13+359468548+351881019+343244102+333591834+322991652+311500476+299211705
3075.38+286382561+273585060+261656844+251220550+242199040+233989514+226040290
3068.63+218141218+210334642+202826494+195966827+190007619+184992639+180863294
3061.88+177444491+174449711+171604731+168721610+165751721+162747930+159747304
3055.13+156777298+153886773+151083552+148328305+145596944+142886153+140174867
3048.37+137414159+134559313+131572440+128422818+125078202+121499942+117650834
3041.62+113501338+109077418+104518413+100062466+95910533+92088745+88475393
3034.87+84925608+81334316+77652278+73893179+70147015+66587553+63360569+60509404
3027.16+58025415+55857186+53911740+52096174+50322429+48519107+46694658+44916751
3019.44+43229024+41641822+40169420+38833392+37607616+36426104+35248825+34052539
3011.73+32801162+31467586+30051874+28554557+26977376+25336863+23659254+21991936
3004.01+20379957+18831451+17326752+15840548+14357494+12881108+11438405+10066458
2996.30+8759369+7486140+6260796+5122598+4101185+3217799+2471608+1847983+1340831
2987.62+953828+661043+423988+250990+154267+108234+78280+56335+38845+23464+26001
2977.01+59413+77075+51449+32077+47235+72363+97063+117305+112481+93203+93827
2966.40+99631+95800+93210+100001+102590+95780+88448+86654+83778+75164+73087
2955.79+80127+88638+93490+85841+76105+80162+79428+58776+33512+25105+45312+75711
2944.22+78927+58557+53992+73075+84635+79745+74464+71569+67689+65300+67167+77853
2932.65+89513+80398+59930+53218+62345+83223+96826+80789+43582+14416+10219+867
2921.08+21322+56842+74442+77832+71672+56515+32881+21330+35675+64518+72441+54529
2909.51+40500+31701+9795+11001+11417+22466+30837+24097+25789+50802+83325+101063
2897.93+91672+66024+42740+30184+29187+40612+50561+41295+26306+21143+20785+14278
2886.36+9226+12284+10801+11139+11546+10511+1542+10467+2870+638+10372+11935
2874.79+10374+1313+17151+42767+54785+61860+76876+85892+69021+51854+64526+92086
2863.22+102495+90644+69509+48916+42919+60861+82316+82259+65733+54958+66551
2852.61+91487+108812+110879+94737+78892+86297+106969+117705+113975+111347
2842.96+119543+124629+113367+83609+41960+18095+16214+12775+3199+17923+72426
2832.36+154321+267819+421344+634525+944008+1379219+1953887+2655407+3475883
2823.68+4446511+5610306+6973247+8514074+10219049+12094831+14170477+16484397
2815.96+19044193+21822001+24787952+27932546+31280782+34858035+38655296+42644732
2808.25+46823725+51210024+55775029+60460517+65213732+69993036+74783010+79558649
2800.53+84278677+88934056+93535431+98070031+102550718+107059798+111720353
2793.78+116669269+121995473+127723491+133905598+140674896+148168622+156414933
2787.03+165305051+174655274+184282651+194043211+203828747+213537581+223078727
2780.28+232371980+241330340+249903538+258107085+265997514+273611174+280942721
2773.53+288000530+294793112+301283245+307426039+313198412+318570547+323496949
2766.78+327930786+331841268+335217843+338089021+340570313+342841185+345097081
2760.03+347523666+350231325+353212587+356362863+359514981+362471318+365052142
2753.28+367117551+368593442+369484069+369816902+369626817+368941552+367715479
2746.53+365881931+363449818+360423832+356723435+352247789+346936325+340760398
2739.78+333688150+325690802+316783364+307044294+296641668+285897365+275353515
2733.03+265735368+257801254+252153639+249040986+248254899+249262394+251422243
2726.27+254167290+257209624+260581711+264470601+269029212+274281966+280190722
2719.52+286777271+294174681+302530323+311828786+321826886+332140232+342357630
2712.77+352140251+361296468+369726717+377355821+384165119+390195953+395472978
2706.02+399973113+403658903+406500433+408535724+409891715+410715976+411182679
2699.27+411504022+411817492+412102753+412227679+412045634+411488142+410563546
2692.52+409339483+407944598+406522175+405221964+404160716+403337762+402632664
2685.77+401879962+400947090+399755490+398308242+396683037+394918870+392966158
2679.02+390757196+388216138+385258360+381858736+378042191+373866615+369489998
2672.27+365220485+361497977+358850218+357713258+358109945+359568917+361344609
2665.52+362697484+363136616+362612961+361702200+361650173+363890458+369102257
2658.77+376719501+385383855+393844255+401554398+408606211+415239226+421466678
2652.02+427127793+432089908+436326926+439923067+443008618+445688103+448001420
2645.27+449938889+451493909+452688927+453605450+454438723+455491963+457036431
2638.52+459171154+461794692+464672871+467531017+470160685+472488844+474513684
2631.77+476253831+477759873+479085042+480245017+481226800+482039604+482753010
2625.02+483490804+484394530+485574773+487062289+488777444+490561746+492264975
2618.27+493785154+495032199+495953747+496598710+497136470+497785453+498643349
2611.51+499638030+500637535+501508564+502152723+502606964+503048140+503711294
2604.76+504783162+506297411+508168481+510266956+512485867+514862100+517575219
2598.01+520818862+524724353+529272763+534235916+539326374+544354620+549242966
2591.26+554004544+558740526+563589441+568629145+573888950+579409127+585236106
2584.51+591399034+597880759+604600073+611453459+618376259+625331019+632284841
2577.76+639193102+646010575+652728348+659345082+665849856+672223305+678416920
2571.01+684364369+690004010+695290617+700225663+704857591+709251461+713484793
2564.26+717606232+721639026+725616544+729547429+733414728+737212010+740965004
2557.51+744706674+748431593+752106395+755721297+759289633+762805707+766255448
2550.76+769619293+772850072+775878169+778660100+781223603+783627575+785896805
2544.01+788008647+789938109+791679831+793239709+794630540+795879260+797067611
2537.26+798309027+799710378+801373506+803375666+805721948+808355335+811178339
2530.51+814061309+816928935+819777332+822591424+825316269+827887210+830279389
2523.76+832506810+834581801+836528549+838404678+840253871+842079480+843877148
2517.01+845648418+847413591+849208579+851080688+853067436+855158039+857312092
2510.26+859517067+861790518+864136399+866548746+869014091+871499738+873968233
2503.51+876386543+878690681+880774650+882568098+884063788+885290263+886298043
2496.75+887145687+887897988+888600104+889257127+889878573+890516902+891209035
2490.00+891957584+892787741+893716056+894697504+895642771+896475139+897158829
2483.25+897674277+898007747+898163795+898183628+898134247+898093711+898126676
2476.50+898235555+898356828+898407616+898343629+898180613+897969355+897759772
2469.75+897616588+897598498+897722251+897992873+898420749+899021490+899820290
2463.00+900821705+901980039+903221254+904472855+905656985+906666038+907373648
2456.25+907733517+907767152+907456731+906803258+905893905+904825823+903672648
2449.50+902514113+901410520+900380898+899437038+898608757+897913609+897348245
2442.75+896918426+896603582+896344485+896099659+895871114+895652955+895387426
2436.00+895005580+894450936+893685302+892687572+891443476+889945508+888185293
2429.25+886159080+883901374+881492780+879056446+876760147+874727703+872979147
2422.50+871523926+870413700+869674934+869246723+869043773+869013153+869092350
2415.75+869209470+869322837+869418717+869486859+869529874+869544682+869502001
2409.00+869369739+869127057+868766853+868313583+867812541+867272302+866678529
2402.25+866053801+865450446+864912619+864459953+864248226+864456401+865224179
2395.50+866605631+868546014+870906434+873515432+876210327+878844451+881283197
2388.75+883416815+885177431+886539050+887505288+888093031+888336919+888316953
2381.99+888148576+887912862+887675340+887606193+887912661+888645129+889717030
2375.24+891158850+893120875+895667629+898741890+902141983+905446732+908340222
2368.49+911081013+914210484+917672688+920671706+922590046+923739602+924991136
2361.74+926620763+927895145+927979769+926842072+925012309+922852359+920454954
2354.99+917844013+914989050+912236935+910478998+910367105+911146675+911035519
2348.24+909211116+906830796+906043319+907800184+911047646+913687800+914661342
2341.49+914370686+913653160+912779317+911586210+909961942+907891575+905767270
2334.74+904122233+903178306+902697364+902592238+902896227+903212142+903117066
2327.99+902820112+902826075+903127317+903498442+904127794+905212492+906431597
2321.24+907367953+908103972+908896407+909604821+909800132+909308336+908270204
2314.49+907023562+905914407+905123379+904677949+904573157+904755336+905076210
2307.74+905409747+905813837+906512603+907674153+909312959+911332405+913645924
2300.99+916152208+918674505+921000687+922996548+924611770+925848228+926761669
2294.24+927423249+927877859+928089317+928009518+927632899+927007567+926201464
2287.49+925275695+924365470+923679568+923419131+923720641+924678973+926345452
2280.74+928652337+931441839+934517641+937665940+940718761+943561329+946111365
2273.99+948290343+950075482+951514622+952661298+953553365+954169182+954497359
2267.23+954553105+954390825+954048109+953593097+953147600+952789339+952577679
2260.48+952600058+952967096+953670753+954613742+955693214+956841095+958041708
2253.73+959353476+960862299+962567035+964278405+965700125+967134508+968281585
2246.98+969131709+969676839+969932787+969939286+969726755+969335998+968820551
2240.23+968248486+967711597+967284659+967013435+966936248+967070855+967399300
2233.48+967897126+968553346+969354223+970270344+971248509+972271364+973364572
2226.73+974493425+975529614+976312065+976713140+976675820+976223957+975416581
2219.98+974310107+972984737+971548947+970107529+968759646+967619737+966817587
2213.23+966424686+966439025+966914874+967946440+969455061+971173399+972890599
2206.48+974552655+976173505+977756498+979225052+980406033+981120544+981305604
2199.73+981003223+980263586+979179558+977892446+976491229+975045724+973678410
2192.98+972490662+971513704+970778087+970343577+970281466+970645489+971407907
2186.23+972461785+973722699+975131085+976550861+977758508+978563272+978898350
2179.48+978781967+978317173+977734723+977280113+977042255+976945504+976879306
2172.73+976791600+976685736+976624764+976722186+977045605+977603666+978406688
2165.98+979475775+980831430+982467623+984374439+986521725+988800067+991067555
2159.23+993199163+995091707+996685756+997974141+998951569+999565778+999771608
2152.47+999590233+999116528+998502587+997944727+997648577+997782782+998422318
2145.72+999542461+1001067632+1002906775+1004984111+1007189957+1009389571
2139.94+1011554144+1013780426+1016170126+1018762776+1021491909+1024094944
2134.15+1026277473+1027909579+1028948984+1029388452+1029259941+1028633672
2128.37+1027618321+1026362097+1025051936+1023897019+1023065790+1022610376
2122.58+1022510878+1022736139+1023286763+1024197725+1025480683+1027109305
2116.79+1029041112+1031233759+1033580979+1035891014+1037981884+1039742501
2111.01+1041109077+1042035450+1042498368+1042518200+1042159203+1041484357
2105.22+1040536410+1039349868+1038008953+1036672192+1035482837+1034568860
2099.43+1034050196+1033971535+1034356932+1035180054+1036380063+1037881113
2093.65+1039579216+1041330185+1043077468+1044803243+1046292635+1047391537
2087.86+1048176468+1048658683+1048725082+1048356972+1047578876+1046402116
2082.08+1044853361+1042984938+1040894134+1038735994+1036675275+1034825746
2076.29+1033285902+1032172660+1031550679+1031411583+1031732188+1032498626
2070.50+1033671834+1035153990+1036740602+1038184968+1039515363+1040883615
2064.72+1041724425+1041589014+1040906463+1039936606+1038518706+1036748441
2058.93+1034842966+1032876719+1030859686+1028837493+1026912587+1025200346
2053.14+1023798861+1022779557+1022192082+1022051243+1022322401+1022933595
2047.36+1023788610+1024793106+1025846850+1026790308+1027487666+1028081373
2041.57+1028523788+1028251759+1027240026+1025960888+1024383254+1022382569
2035.79+1020072199+1017629769+1015234105+1013058008+1011243924+1009911720
2030.00+1009155734+1009014895+1009508031+1010657387+1012444067+1014796916
2024.21+1017644576+1020907650+1024420708+1027959831+1031381834+1034598207
2018.43+1037741212+1040958657+1043449665+1044704214+1045408273+1045916685
2012.64+1045930756+1045462343+1044675805+1043710906+1042747884+1042003356
2006.85+1041689182+1041977024+1042945205+1044532755+1046614647+1049089708
2001.07+1051901187+1055026571+1058271018+1061263134+1063843925+1065933187
1995.28+1067115776+1067206363+1067428207+1068289319+1067418827+1064525404
1989.50+1062453830+1061422533+1059974347+1058258488+1056995698+1056147651
1983.71+1055534983+1055283993+1055510729+1056295659+1057725352+1059766373
1977.92+1062208669+1064788455+1067303784+1069589295+1071495776+1072898801
1972.14+1073693112+1073741823+1072798566+1071160631+1069801960+1068181914
1966.35+1065085408+1061063736+1057252719+1053589977+1049855342+1046128546
1960.56+1042396591+1038585172+1034621188+1030430202+1026275597+1022755838
1954.78+1020374848+1019671392+1021093380+1024286570+1028151390+1031646693
1948.99+1034012407+1034959818+1034524169+1032044820+1026615901+1019821745
1943.21+1013247892+1004385446+992391384+981345605+973005172+967183486+964670234
1936.46+965795871+969665247+974891485+980242213+984898329+988740569+992187698
1929.70+995652649+999281688+1002872939+1005754703+1007041212+1006985198
1923.92+1006923891+1006056146+1002022212+995712616+989780376+986234017
1918.13+982930340+976718903+970096272+966066359+963575753+961401465+959739945
1911.38+959333108+960179479+961233357+962167568+963345668+964590434+965986894
1904.63+967530557+968763197+969573789+970038583+970030811+969449299+968217866
1897.88+966185489+963851735+961955104+959761989+956500322+953062775+950347846
1891.13+949579800+951664640+953863920+954322617+955531672+958597156+962322142
1884.38+965801231+968753816+971342312+973712112+975758024+977359711+978404946
1877.63+978980092+979201803+978972655+978125479+976465701+973638611+969710206
1870.88+966613767+965953728+965866290+964440886+963617228+964490132+966352592
1864.13+968797569+971689785+974790781+977724538+980272900+982560019+984342143
1857.38+985086203+984733637+983439557+981398335+979089775+977072942+975603919
1850.63+974715604+974702673+975537051+975432729+973527253+973782666+978953359
1843.88+983531082+983630044+983952325+987136202+991315396+995621158+1000261595
1837.13+1004604610+1007709492+1009909977+1011674145+1012104433+1011262283
1831.34+1012010362+1015077722+1015390622+1010613433+1005437514+1003811103
1825.55+1004151541+1002434677+999031368+996646291+995507120+994665037+993997561
1818.80+993830457+994097260+994152537+993781546+993206600+992382138+991336033
1812.05+990417701+989248446+986874290+983981739+982117805+981081147+979780434
1805.30+977660082+974631918+970936748+966583147+961647229+956716538+951725478
1798.55+946831773+943734060+943236703+944152422+946217563+950807816+957021130
1791.80+961503175+963247108+963678870+963931535+964187952+964309092+964318473
1785.05+963622789+961288433+957824755+954512501+951327485+947135225+941780009
1778.30+936437187+932098460+928757061+926041061+924832006+926485084+929542059
1771.55+930848133+930423205+931320029+934655465+938135626+939862808+940317284
1764.80+940298858+940400500+941009818+940702546+937507614+932323052+927563953
1758.05+924063022+920670634+915929693+910217623+905222744+902253609+901616217
1751.30+901935750+901863924+902270627+903761158+905302208+906417929+907797638
1744.55+909965092+912105074+913031514+913705422+915629725+916952482+914931227
1737.80+910443822+906383088+905006796+906041242+905332895+899822769+893351296
1731.04+890034621+889360914+888866907+888125594+888024823+888735649+890053515
1724.29+891737414+893052198+893246572+892577287+892477386+894361957+897101878
1717.54+897071593+893538969+889635623+885982395+880955489+874852997+869010808
1710.79+863543899+857704591+851731547+847018345+843932358+841224465+837722729
1704.04+833301523+829602198+829942502+834839960+838227524+834836074+829819955
1697.29+829433219+832374012+832533477+827948517+822325761+817914001+814240875
1690.54+810248616+805087036+798489933+791315540+785939351+784412974+784791269
1683.79+781921230+775423157+770040603+768227323+768204877+767842395+767540684
1677.04+769099088+772712248+775184830+774091220+771873180+770918399+770722752
1670.29+770317121+768618348+764079753+757393940+750717574+744966843+740312000
1663.54+736362489+731670192+725699359+719887723+715271473+711414627+707658283
1656.79+704306565+703182135+706401925+713190721+717581240+714789125+709021777
1650.04+705658268+705891837+707779959+708762144+706862230+701551301+694536038
1643.29+687680642+680996035+673792965+665985870+658128121+650871784+644579609
1636.54+639016819+632491610+623457035+613997532+606550574+600744566+595285161
1629.79+589712991+583880384+576973798+568549412+559729545+551444624+542563518
1623.04+531053614+516990156+501957344+486604295+470787156+453976374+434802793
1616.28+413383869+393619061+378319044+366477211+355639809+344103472+331263106
1609.53+317465982+303999480+292626998+284914309+281938675+284009176+290363128
1602.78+299452444+309691986+320037191+330079847+339864311+349542174+358968075
1596.03+367638862+374954663+380610251+384885996+388542406+392348029+396793022
1589.28+402129846+408411435+415548978+423348200+431573020+440001326+448369162
1582.53+456333812+463502477+469588219+474662395+479555799+485779465+493735271
1575.78+501054423+505590504+508614112+511932563+516246733+522109793+529107200
1569.03+535077229+539203559+543603325+550070510+558025144+565384497+571085780
1562.28+576502907+584290102+595937695+609099002+618078635+619991079+618591202
1555.53+618874152+620892191+621196180+618982763+616403447+614228154+611148867
1548.78+606455096+601374990+597241156+593894129+590102140+585801604+582324124
1542.03+580069366+578869960+578333340+575837843+570068151+563781000+559379660
1535.28+557021250+555164485+551540304+545325047+537994471+530816962+523787763
1528.53+516052829+506854467+496355090+484850982+472867272+461647220+450958059
1521.78+438127676+421210193+402331590+384549645+367933203+351656964+337281578
1515.03+326876138+319957961+314202205+307256825+298386472+288263313+277291721
1508.28+265073437+250762004+234601813+219308982+207367668+198329140+190076497
1501.52+180708452+169027458+154187010+136653592+119204489+104837771+95209154
1494.77+90583173+89459739+89544521+89066310+87196438+83878163+79583608+74660362
1487.06+68962886+62429285+55242245+47567843+39632544+31798545+24548620+18365777
1479.34+13444560+9610420+6578785+4193945+2439790+1243835+495630+144998+38940
1470.66+15400+10652+10403+9909+7668+6804+8071+9727+11315+14832+24667+45731
1459.09+80035+115630+133028+125006+103487+77676+46989+24455+14438+10923+9231
1448.48+7563+6375+7930+14239+23591+38780+68291+126719+234375+408485+674162
1437.88+1105176+1861536+3067464+4721458+6899326+9825432+13702903+18689469
1430.16+24896912+32088717+39727984+47506339+55441254+63700077+72385052+81101375
1422.45+89141076+96477740+103969372+112211479+120444976+127676731+133981436
1415.70+139627359+144609683+148913083+152572860+155657390+158265734+160565568
1408.94+162725886+164846639+167021848+169334412+171577294+173294124+174399995
1402.19+175111475+175447055+175179733+173769203+170865881+166872199+161902831
1395.44+154876613+144794275+132437094+118911371+103956726+87347126+69833374
1388.69+51898103+34259429+19812042+10645596+5664670+3094615+1746759+895181
1380.98+301007+59472+15533+10190+9837+10115+16969+81494+427783+1190702+2092378
1370.37+3000948+3774059+4155610+4108375+4045110+4546418+6222988+9969776
1362.66+16457455+25079344+34685284+44375729+53489689+61584676+68194036+73164982
1354.94+76725721+79251729+81329601+83628279+86565479+90132164+93881732+97184965
1347.23+99689850+101351027+102161075+102048654+101090724+99849190+99386758
1340.47+100717563+104107221+109082510+115157222+122039084+129212195+136189192
1333.72+142919989+149378279+155370000+160677327+165220595+169092685+172406245
1326.97+175252313+177665816+179648260+181166429+182139100+182447209+182028328
1320.22+180928303+179139948+176763263+174124834+171480559+168922298+166459013
1313.47+164071591+161799463+159871157+158493726+157625947+157091973+156829124
1306.72+156985021+157732447+159053814+160729656+162593540+164649485+166990592
1299.97+169691517+172682612+175794210+178975525+182407594+186261795+190479649
1293.22+194819750+199037119+203107837+207258756+211885140+217332066+223569618
1286.47+230172030+236636000+242606380+247883741+252430677+256292415+259538403
1279.72+262208976+264275206+265683944+266386613+266427618+265935989+265048629
1272.97+263895036+262550084+261054880+259458955+257752644+255844438+253729866
1266.22+251485142+249266699+247480672+246728556+247598445+250590026+255832076
1259.47+262703837+270138300+277229292+283255201+287514396+289461245+289248647
1252.72+287902707+286546315+285620110+285108481+285190492+286374488+289192667
1245.97+293767107+299640284+306109714+312691440+319249212+325806280+332361473
1239.22+338809428+344971620+350648682+355628284+359727244+362917955+365383300
1232.47+367351624+368891870+369812848+369796466+368701751+366737012+364336324
1225.71+361910577+359754178+358063747+356913118+356184067+355704667+355586341
1218.96+356322594+358366530+361588464+365354690+369057332+372408413+375339624
1212.21+377813312+379795605+381328514+382483934+383216502+383426587+383108126
1205.46+382355792+381262048+379880229+378332612+376835482+375611318+374742601
1198.71+374134992+373753415+373819445+374580657+375999663+377784769+379499355
1191.96+380703619+381160272+381053672+381008579+381629522+382987824+384474100
1185.21+385244658+384776548+382964842+379851853+375286894+368960480+360826481
1178.46+351530129+342007644+332662279+323476882+314623113+306300302+298378533
1171.71+291086349+286008957+285575319+290599411+298996661+307944100+316095586
1164.96+323061670+328284758+331297981+332161069+331154428+328476217+324381177
1158.21+319555914+315043953+311833845+310601172+311541414+314330782+318362404
1151.46+323096913+328259264+334018973+340816378+348793625+357644749+366959627
1144.71+376469650+385954078+395143428+403561851+410407397+414965857+417236997
1137.96+417981559+418079315+418079684+418238646+418731112+419715040+421218167
1131.21+423253827+425970029+429534713+433968583+439224703+445302438+452155589
1124.46+459636819+467482139+475271813+482583997+489393764+496031034+502461402
1117.71+507901544+511326595+512075211+509885378+504941287+498051988+490374542
1110.95+482747516+475418347+468424357+462010874+456718137+453179617+451898904
1104.20+453025680+456199373+460709658+465683197+470181088+473357795+474541791
1097.45+473252669+469453678+464043520+458665489+454296745+450520703+446758463
1090.70+443136827+439842296+436651216+433215779+429237525+424421843+418620994
1083.95+411982585+405131109+399289423+395735124+394882521+396230873+399215486
1077.20+403645603+409497273+416588114+424324053+431749437+437810186+441569646
1070.45+442464426+440553558+436404615+430702460+423974938+416680946+409365982
1063.70+402567036+396766288+392407259+389809417+389116916+390421750+393705226
1056.95+398470756+403898235+409471980+415187032+421325471+427999023+434559374
1050.20+439792413+442863023+443500615+441476680+436510612+428664053+418518481
1043.45+406935511+394738567+382448356+370312886+358710820+348391746+340022369
1036.70+333591265+328575916+324545701+321330735+318707264+317147856+319558896
1029.95+329351366+345399228+362361937+376028139+385342716+390667748+392500191
1023.20+391612848+389488577+387842467+387491275+387941463+388223308+387894595
1016.45+387280185+387044672+387656704+389212494+391679448+395297533+400364808
1009.70+406573431+413043799+418864346+423267864+425772707+426798745+427914365
1002.95+430693449+435173114+440008160+443913818+446421006+447642121+447785941
996.19+447072837+445840633+444337205+442509753+440262266+437966737+436427965
989.44+436117175+436624415+437232226+437803754+438769691+440479386+442684931
982.69+444644108+445588437+444972151+442455683+437786602+430743801+421131198
975.94+408832209+394119467+378010399+362169172+348471613+338254181+331432555
969.19+326758951+323129342+320136723+317698078+316719946+320184194+330703604
962.44+346751633+364203995+380347904+394062213+404425073+410819628+413321255
955.69+412976428+412213341+413858713+418479754+423589508+426201052+425360577
948.94+422432883+419846967+419598824+422414792+427735101+434357061+441276377
942.19+448038540+454557484+460788285+466596705+471951520+476963217+481638663
935.44+485938160+490108845+494477589+498757052+502065754+503762082+503961916
928.69+503249147+502023375+500044599+496714758+491923097+486116252+479499216
921.94+471935071+463922715+457360989+455010586+458816511+468316551+480694836
915.19+492507791+501194290+505263567+503930559+497266186+487150966+477642183
908.44+472287636+470284774+467284382+460325133+450673200+442163319+437187636
901.69+434647248+432032655+428004617+422554927+416120774+409164741+402133431
894.94+395375456+389248810+384216510+380410182+377398970+374843306+373063259
888.19+372668214+373642794+374738916+374268829+371626497+367285057+361466520
881.43+353763044+344254763+334251571+325458338+318745690+313934163+310434102
874.68+307756594+305597415+304128560+304450137+308007719+315132932+324619303
867.93+334684171+343849367+351082889+355660579+357509505+357884750+358891391
861.18+361687761+365534826+368855521+370873560+372174106+373689126+375161499
854.43+375282706+373396092+370226721+366930515+364150628+362223511+361952855
847.68+364671134+370835402+378414757+384349442+389120936+397106290+410093760
840.93+424372127+435295728+440599756+439733082+432919898+421600448+409228360
834.18+399230193+392034928+386498403+382197968+378285108+373088987+365935465
827.43+357697647+349515574+341783823+334315223+326797611+319311021+312475123
820.68+306104220+298284261+287214930+273134889+257796229+243416018+231937237
813.93+223908917+218374000+214344037+211691437+210541093+210383621+209926113
807.18+208441445+207630618+211036624+220948258+236942166+257419794+280485263
800.43+303332406+322665017+335781968+341042745+339019547+334221722+333231027
793.68+338575021+345859935+348833659+346313439+342623561+341234204+339939856
786.93+333730629+320163792+301148738+281763430+267482232+261523477+263387913
780.18+269170068+274518149+277194267+276916358+274531181+271179731+266632025
773.42+258726386+245988734+230132700+213556158+196155187+178728822+166337672
766.67+163469543+169067191+178798773+188990760+197546839+203703486+207791809
759.92+210615398+212480186+212786135+210649904+205533785+197400825+186839521
753.17+175289952+164887929+157559950+153486217+150802545+147440844+142308678
746.42+135071026+125900160+115330632+104262783+94497834+89230038+91211360
739.67+99829165+111535343+123001536+132434272+138736397+141108233+139077773
732.92+132015106+118757266+99028690+75529356+54279955+42341019+43080954
726.17+53599100+66977984+77639045+85234153+92638624+103800778+121942056
719.42+147923092+179884995+214734341+249752633+283490780+315811463+347097666
712.67+377502757+406567636+433212429+456344700+475773090+491775457+503504793
705.92+509200750+508097324+500613481+486424160+463229041+429009081+387377372
699.17+349071417+324588281+315351795+314168168+317216935+332191957+367165123
692.42+417512075+473232736+532024308+593563808+650780795+697177466+733966893
685.67+764578987+788846107+804385657+809034805+800324520+773527330+720762772
678.92+634907575+520915546+404187081+318519390+284860339+308465411+384497148
672.17+493109102+599780405+677816379+727407848+766322518+803075429+831734945
665.42+850215756+863612576+877294691+893151562+910159264+926606894+941262819
658.66+953267467+961863177+966512928+967079700+963743058+956918349+947357338
651.91+936023516+923764326+911325504+899560992+889350461+881404940+876270361
645.16+874324685+875646638+879984024+886889940+895855972+906351396+917735871
638.41+929147885+939644180+948502472+955253613+959485404+960895398+959496459
631.66+955519075+949073666+940016913+928084627+913414096+897966072+884309150
624.91+873691849+866274774+862071258+861139190+863678104+869614029+878397748
618.16+889771503+903465745+918311152+932963861+946403294+957672995+965751247
611.41+969754494+969490438+965493624+958243250+948113055+935943984+922669175
604.66+908900896+895305951+882756307+872174718+864096801+858558132+855904041
597.91+856592623+860278145+866474775+874946599+885494820+897963325+910897025
591.16+921715064+929369930+934215261+935808439+933915493+929484973+923118894
584.41+914413635+903455561+891378015+878841570+865791889+852906832+841842225
577.66+834007592+829736538+828322255+829666453+834289939+841770332+851083100
570.91+861559361+872558172+883016477+891649239+897526805+900735875+902081480
564.16+901704124+898983031+893492135+885184131+874286359+861167599+846368491
557.41+830869813+816392918+804965360+797908488+795421836+796807173+801126938
550.66+807636536+815669495+824774892+834840831+845710261+856736476+867276322
543.90+877104002+885403027+889822291+887943683+879949451+869595737+861401839
537.15+856098950+850760953+843461735+834814700+826200966+819370495+816088594
530.40+816626152+819911471+825361429+833888395+845788855+858931133+872239912
523.65+886694160+901793773+916224302+930007992+942064031+950312335+954100170
516.90+952790880+946455823+937565772+927637388+916741492+905572160+894957874
510.15+885194517+877100853+872086410+870098053+870125792+872783366+879402781
503.40+890755162+905524120+920160212+933305974+945334341+955269626+961991554
496.65+965249669+964948628+961332721+955559076+948232788+938137837+924874954
489.90+909668205+893277929+876052470+857586332+836766675+815039206+798273784
483.15+794389868+805343654+823350492+838583774+847640661+852946900+857549615
476.40+862345698+867561216+875547743+888793740+903762096+912995601+914705429
469.65+909778289+895970680+868770538+823841551+762835054+703885457+676284441
462.90+693327788+738340997+781856908+809974108+829111876+846424103+860684379
456.15+872024232+884117590+897497994+910043015+919334343+924714953+926843010
449.40+925868932+921792519+914266498+902684701+888638898+874065386+858249386
442.65+840467273+821747733+804036642+788812003+776739214+768710208+765201839
435.90+765424621+768906993+775727548+785970976+800731826+821430410+846852314
429.14+872576933+893907414+908565751+916728895+919959741+920615290+918385860
422.39+911192103+902171598+895420391+887850349+875039665+861788508+855241925
415.64+855681058+859933017+866486032+875828013+888188040+902859443+918890386
408.89+935299825+951246145+966398824+980223452+991237272+998048714+1000528063
402.14+999585208+995969569+989617561+981306542
##END=
