##TITLE=Ñìåñü_3_250ìêì
##JCAMP-DX=4.24
##DATA TYPE=INFRARED SPECTRUM
##DATE=9/3/2017
##SAMPLING PROCEDURE=Instrument type and / or accessory
##ORIGIN=Default
##XUNITS=1/CM
##YUNITS=TRANSMITTANCE
##RESOLUTION=2
##FIRSTX=3998.2792
##LASTX=399.2493
##DELTAX=-0.96437028
##MAXY=0.97243875
##MINY=9.2154376e-005
##XFACTOR=1
##YFACTOR=9.0565416e-010
##NPOINTS=3733
##FIRSTY=0.76981968
##XYDATA=(X++(Y..Y))
3998.28+850015059+852041864+853968764+855908365+857818088+859487984+860944380
3991.53+862475475+864282330+866235819+868147976+870061121+872050873+874100582
3984.78+876160623+878130104+880018437+881889198+883712704+885458549+887066976
3978.03+888379173+889385995+890276983+891079058+891603200+891814001+891835325
3971.28+891623602+891194034+890865623+890735575+890549650+890235323+889933237
3964.53+889678866+889470697+889552635+890082701+890668839+890982508+891221940
3957.78+891637291+892218691+892769751+893148050+893441053+893688118+893691738
3951.03+893537799+893609273+893864631+894209562+894733243+895033289+894742589
3944.27+894416810+895049282+896634410+897880531+898191370+898290485+898782247
3937.52+899541081+900206460+900579296+900680123+900889279+901793299+903227055
3930.77+904278301+904617835+904473768+903847549+902869620+902219247+902431629
3924.02+903006118+902960443+902143232+901336353+901137200+901173069+901166290
3917.27+901717811+902848494+903584425+903545726+903228832+903055479+903041855
3910.52+903029943+902836318+902301449+901420266+900484656+899961698+900094576
3903.77+900519537+900682031+900540729+900296164+900297547+900783516+901072176
3897.02+900452670+899231361+898080671+897324469+897129462+897898103+899604263
3890.27+900920409+900597066+899027865+897760025+898267845+900383039+901966258
3883.52+901650944+900253320+899523772+900570740+902527519+903428117+902775769
3876.77+901580852+901049339+901936905+903738298+904761507+904599473+905128814
3870.02+907878191+911284982+912606525+911783588+911090765+912204007+914304590
3863.27+915650616+916133954+916369831+916125595+915119103+913723980+912194596
3856.52+910263418+908524088+909242316+913328833+917768969+919626896+918839432
3849.77+916943399+915347017+914467282+914061737+913947089+914293862+915224866
3843.02+916135796+916370950+916294605+916480727+917113067+918497726+920096544
3836.26+920578631+919996375+919095382+918058682+917406926+917581465+917727045
3829.51+917025272+916068798+915899590+916589320+917100497+916568589+915402169
3822.76+915184259+917489260+921658308+924514434+924343252+922781620+922753583
3816.01+925344413+928300182+929211244+928430165+927416959+926751515+926207826
3809.26+925711260+926032630+928066082+930818946+931895004+930883971+929764871
3802.51+930812628+934495377+938414793+939932002+939448203+939211932+940515705
3795.76+942547710+943809033+944025232+943897948+943906109+944029181+944096114
3789.01+944016610+943825816+943692872+943901699+944609067+945490513+945971152
3782.26+945987803+946222627+947549238+949992316+952302516+953477755+953854211
3775.51+954174922+954669250+955113100+955316201+955601570+956719683+958633617
3768.76+959844264+959440233+958554509+958601566+959267076+959312949+958438413
3762.01+957312271+956894090+957869913+959725207+961186144+962029220+962608185
3755.26+962581465+961972950+962287145+964908777+968791403+972173448+975032207
3748.51+976708948+975637103+972716413+971614227+975038130+980273627+982455687
3741.76+981528764+979903819+978586816+977492726+976917973+977583878+979888287
3735.01+983059925+985511822+986958280+988378018+989646647+989789200+988972844
3728.26+988327868+988806993+990405218+992083736+992967420+993376519+994061905
3721.50+994745778+994631064+993962329+993340519+992537457+991163789+989406295
3714.75+987703228+986691668+987366327+989813946+992337778+993869005+994769602
3708.00+995116047+994915841+994657126+994594142+994625404+995006269+996226985
3701.25+997797240+998383510+997655213+996465298+995597278+995180478+994865954
3694.50+994254806+993342033+992733978+993231926+994761112+996678666+999046322
3687.75+1001335659+1002115817+1001527572+1000977697+1001160594+1001793526
3681.97+1002510898+1003325279+1004300247+1004930481+1004638004+1004464584
3676.18+1006743522+1011424010+1014439077+1013189929+1009712059+1007805496
3670.39+1009101766+1011827713+1013560067+1013559804+1012547915+1011679829
3664.61+1011591046+1012231284+1013317937+1014588607+1015762990+1016488852
3658.82+1016611068+1016701167+1017846066+1019937962+1021021653+1019860169
3653.03+1017360096+1015425694+1015428655+1017082033+1018768382+1019535378
3647.25+1019546698+1018746006+1016935597+1014779993+1013366574+1013137541
3641.46+1013690510+1014413673+1015085238+1015777667+1016397765+1016677145
3635.68+1016645686+1016704261+1016841549+1016122729+1013859586+1011083687
3629.89+1009965837+1011163848+1012215159+1010773045+1007357895+1003625917
3624.10+1000466981+998013767+996262525+995488356+996199936+998370347+1001044169
3617.35+1003161074+1004415092+1005469760+1007285302+1010202767+1013663263
3611.57+1016508925+1018444051+1020679355+1023970841+1027588961+1030689849
3605.78+1032834329+1034031287+1034883446+1036055986+1037858498+1040254453
3599.99+1042807704+1044978774+1046615105+1048035040+1049893954+1052554547
3594.21+1055575274+1058330903+1060330198+1061192821+1061313984+1062012994
3588.42+1064337146+1067946052+1071433466+1073312519+1073275926+1072443973
3582.64+1071740751+1071158298+1070625995+1070259214+1069946466+1069561784
3576.85+1069197438+1068895286+1068673823+1068578853+1068506063+1068312702
3571.06+1067834103+1066821293+1065666456+1065664284+1067356228+1069528482
3565.28+1070543004+1069983190+1068723775+1067451856+1066123204+1064762304
3559.49+1063444973+1061980350+1060307492+1058549405+1056686937+1054847175
3553.70+1053533924+1053173922+1053416841+1053273433+1052381983+1051389246
3547.92+1051177457+1052165916+1053945393+1055790881+1057263599+1058202171
3542.13+1058673398+1058895849+1059111917+1059343384+1059485608+1059714443
3536.35+1060192318+1060410952+1059900696+1058987331+1058183743+1057636237
3530.56+1057257675+1057022588+1057052468+1057325069+1057615111+1057831573
3524.77+1058199538+1058969166+1059919717+1060384823+1060178826+1059846729
3518.99+1059806451+1059867394+1059695554+1059231435+1058582575+1057715674
3513.20+1056429341+1054652958+1052616149+1050837594+1049654918+1048517588
3507.41+1046781088+1044689456+1042753737+1041262262+1040343171+1039499173
3501.63+1037979069+1035779041+1033399144+1030887949+1027936721+1024395538
3495.84+1020216091+1015265042+1009452555+1002849971+995652167+988070601
3490.06+980311141+972726746+965804175+959716520+954342419+949812118+946428690
3483.31+944496328+944259398+945447734+947387336+949534120+951729277+954144253
3476.55+956890733+959860718+962848801+965575472+967932663+970084909+972162457
3469.80+973986753+975232610+975925565+976298006+976310576+975882128+975236296
3463.05+974730779+974514120+974405132+974107192+973581339+973084773+972836326
3456.30+972838498+972994937+973222588+973460110+973659263+973794840+973838672
3449.55+973697238+973458333+973545997+973843542+973512037+972462766+971348931
3442.80+970564627+969946832+969170951+968372958+967916867+967787148+967771221
3436.05+967883565+968128393+968316358+968532425+969161277+970254183+971376705
3429.30+972227218+972932677+973584367+974131807+974577894+974893734+975031220
3422.55+975026350+974982320+974891563+974509908+973737384+972861006+972126654
3415.80+971549006+971135365+970939503+970868095+970762529+970765359+971118714
3409.05+971664114+972098091+972422685+972786110+973198236+973620433+974035060
3402.30+974307069+974230923+973636031+972399058+970800438+969222023+967849408
3395.55+966420917+964768198+963274091+962288132+961385034+960019593+958441638
3388.80+957181631+956338752+955739648+955308698+955026357+954799299+954541966
3382.05+954263705+953938387+953371005+952465801+951417714+950275711+948812997
3375.30+947007655+945100895+943263502+941548589+939970371+938458494+936907457
3368.55+935332596+933848624+932503651+931302613+930308889+929593623+929214864
3361.79+929148260+929166556+929028479+928714415+928330917+927947354+927548982
3355.04+927049257+926395988+925675457+924994415+924232882+923110952+921626059
3348.29+920123593+918867008+917871178+917120373+916652501+916377992+916080118
3341.54+915799027+915852204+916261698+916622622+916717789+916697123+916665467
3334.79+916679090+916782023+916852576+916793014+916608472+916284470+915841542
3328.04+915403946+915091659+914766670+914156575+913323041+912581055+912071656
3321.29+911784115+911724751+911894090+912303518+912949350+913732141+914521842
3314.54+915284691+916060703+916796239+917395277+917888618+918322530+918621391
3307.79+918654166+918356950+917745934+916805980+915553672+914189811+912936977
3301.04+911855654+910932022+910212939+909810290+909702421+909670172+909578361
3294.29+909533674+909714925+910047549+910189641+910034123+909845171+909779620
3287.54+909693733+909423041+908932924+908229900+907343913+906307081+905111637
3280.79+903776536+902360484+900913565+899531867+898393024+897488411+896571953
3274.04+895681885+895096865+894773061+894445768+893952625+893273491+892547761
3267.29+891932072+891424712+890921236+890315155+889542039+888598663+887514576
3260.54+886302547+884919007+883365469+881815354+880341715+878712162+876843245
3253.79+875001245+873350435+871858433+870532349+869433454+868630129+868019442
3247.03+867254092+866168228+864956594+863710605+862328842+860803275+859128509
3240.28+857227934+855066079+852668215+850119703+847511168+844867621+842125023
3233.53+839112786+835696978+832029037+828449945+825125684+821985571+818950760
3226.78+816003481+813114119+810250424+807387058+804481176+801482036+798377265
3220.03+795207732+791891698+788194865+784064910+779683283+775165684+770460648
3213.28+765485840+760253634+754852812+749393285+743992398+738707672+733516600
3206.53+728389630+723349008+718486545+713858247+709403698+705063534+700848482
3199.78+696755251+692759425+688866664+685039387+681175913+677244717+673293183
3193.03+669325657+665305809+661277142+657331269+653452921+649588196+645809951
3186.28+642245535+638953918+635928979+633140839+630608846+628390983+626475600
3179.53+624809060+623398273+622238040+621235497+620333385+619519530+618734897
3172.78+617957766+617227429+616558299+615928328+615307572+614699122+614140164
3166.03+613651233+613241278+612943799+612800588+612820925+612990724+613320913
3159.28+613858547+614624950+615598667+616769364+618157446+619796278+621625115
3152.53+623404526+624929105+626265786+627595819+628959154+630270957+631451527
3145.78+632477764+633332423+633987271+634483706+634926897+635379433+635782083
3139.03+636009667+636053960+636063832+636194933+636494847+636926652+637430984
3132.27+637902146+638245432+638426288+638375348+638038118+637456520+636647536
3125.52+635536136+634049795+632229513+630166050+627778518+624870860+621465780
3118.77+617781319+613932916+609916754+605702887+601198977+596354810+591278451
3112.02+586067437+580736576+575352998+569985281+564661198+559515143+554729813
3105.27+550299615+546027108+541651897+536897007+531451300+524917821+516889544
3098.52+507094361+495384190+481678442+466168077+449671359+433608453+419472908
3091.77+408101514+399375708+392694049+387612952+383975285+381586010+379990154
3085.02+378529414+376531107+373493235+369137868+363353647+356107437+347399664
3078.27+337240069+325600088+312464849+298136666+283623645+270478846+259825729
3071.52+251512313+244438321+237574703+230490839+223243098+216160879+209642653
3064.77+203951526+199191420+195311130+192091843+189241607+186510296+183760492
3058.02+180954039+178116324+175300986+172531734+169803698+167122587+164485703
3051.27+161842188+159126443+156299077+153323729+150127740+146612043+142707813
3044.52+138362976+133501492+128061708+122076484+115739172+109404509+103490298
3037.77+98315638+93974535+90302728+86975793+83696697+80327329+76881774+73467117
3030.05+70252445+67392909+64969233+62980164+61337128+59910566+58580977+57246303
3022.34+55845064+54377508+52863142+51322529+49798715+48321957+46883640+45465740
3014.62+44062374+42649547+41186693+39659041+38052223+36338428+34509011+32581351
3006.91+30590696+28577604+26566027+24570533+22623158+20745103+18922510+17137692
2999.19+15387379+13674699+12009489+10401603+8852745+7401221+6101749+4958154
2991.48+3946874+3074169+2361908+1794289+1347737+1015209+784301+637348+540625
2982.80+473153+439680+421736+384152+345608+340161+350690+353424+357502+367857
2973.15+363698+337450+312482+309348+309707+283977+250434+241699+249501+247619
2963.51+243294+242796+226360+206360+207759+225440+234900+222275+202684+187390
2953.87+164819+141720+150293+183443+199645+188418+175594+184178+211294+239979
2944.22+253332+245547+226596+216325+223667+225007+201903+180889+185893+193495
2934.58+184834+183120+194307+181370+146253+137845+150996+156950+159974+156399
2924.94+135477+109226+101754+113818+136615+162535+167548+156913+154727+150542
2915.29+144409+162402+194109+198638+168667+142720+145352+160547+179094+196851
2905.65+212231+230907+234267+216415+211258+236993+258146+243589+223866+224669
2896.00+228061+228727+243413+260784+250523+227963+233651+260665+282229+292090
2886.36+285975+267702+244373+226907+232865+251918+255365+245309+241885+240865
2876.72+232473+220389+222707+254797+288310+280095+245511+241395+265941+276095
2867.07+272459+272353+273270+257883+231309+223651+238456+252274+248670+241900
2857.43+245875+244468+230159+224904+246048+277801+291116+290120+296673+307509
2847.79+319841+335619+344845+349144+355925+356586+348902+354543+376078+385700
2838.14+371104+349982+352248+378573+411436+452989+515386+610715+759490+985672
2828.50+1313665+1761719+2320022+2980176+3780988+4761380+5926763+7265282+8769521
2819.82+10458048+12348755+14433085+16724328+19251364+22011044+25000538+28213378
2812.10+31617422+35205088+39001852+43010515+47203783+51554330+56044270+60655937
2804.39+65340884+70030907+74673832+79223046+83635745+87897501+92031264+96088857
2796.67+100148226+104314559+108726058+113516578+118742220+124416070+130619731
2789.92+137532273+145337951+154099708+163683514+173818001+184243155+194768462
2783.17+205243388+215536322+225541682+235176148+244377739+253117366+261400096
2776.42+269285772+276854289+284149071+291188790+297985919+304531278+310774780
2769.67+316670029+322181977+327234412+331731148+335621441+338913782+341679382
2762.92+344091133+346398502+348826773+351506913+354481274+357725011+361132000
2756.17+364527471+367711022+370490377+372718540+374324234+375296635+375668813
2749.42+375521422+374906194+373774787+372068825+369799330+366970681+363514595
2742.67+359316984+354284622+348388255+341623177+333975633+325440160+316060723
2735.92+305991129+295545737+285246781+275807470+267965248+262218476+258659671
2729.17+256993954+256671992+257076978+257750682+258594367+259851051+261896695
2722.42+265030441+269363054+274877338+281553205+289387397+298312587+308158644
2715.67+318634377+329296000+339662942+349413306+358421750+366656979+374139166
2708.92+380948931+387140803+392671640+397467763+401469381+404600510+406824033
2702.17+408239724+409065293+409559128+409996231+410561540+411225141+411823916
2695.41+412193692+412217681+411849748+411154523+410283147+409407230+408724279
2688.66+408359505+408225705+408084502+407701859+406921932+405667683+403974850
2681.91+401973120+399771118+397377565+394677977+391483995+387673797+383226915
2675.16+378162831+372592572+366755503+361017714+355910752+352092097+350116857
2668.41+350029489+351172743+352496754+353049426+352275060+350208305+347709680
2661.66+346488898+348414481+354286103+363285464+373619335+383654739+392685856
2654.91+400837764+408417487+415437298+421668625+426951376+431307237+434846282
2648.16+437704580+440032418+441916572+443348814+444279126+444706884+444812548
2641.41+444979847+445692382+447374717+450175658+453873545+458044370+462259817
2634.66+466172849+469600306+472537844+475043939+477144752+478865621+480237545
2627.91+481263124+481954367+482406574+482842822+483538673+484688211+486329808
2621.16+488327918+490412212+492317459+493909070+495122876+495928570+496417830
2614.41+496808798+497332578+498081244+498975063+499851704+500516161+500816503
2607.66+500785768+500668159+500809560+501452134+502611972+504166431+505938175
2600.91+507777871+509738994+512123300+515298526+519461223+524512770+530102082
2594.16+535834211+541452942+546865840+552102258+557292278+562615439+568196130
2587.41+574077458+580280025+586845160+593803402+601138494+608777383+616572581
2580.65+624361394+632042668+639580928+646951559+654112837+661045806+667781531
2573.90+674353446+680749571+686936210+692857751+698439166+703637149+708467627
2567.15+712988516+717270962+721398942+725432874+729379735+733232613+736985388
2560.40+740610550+744091974+747484418+750855144+754220209+757567636+760887027
2553.65+764192333+767514685+770874683+774245277+777543146+780666016+783570845
2546.90+786312587+788961202+791511425+793878752+795982889+797796852+799343281
2540.15+800676210+801838418+802902432+804012976+805326358+806959136+809001341
2533.40+811468442+814250396+817161279+820036689+822833715+825586316+828271129
2526.65+830798120+833107201+835221999+837211159+839129108+841011452+842918147
2519.90+844880191+846837168+848725698+850543742+852318216+854075514+855863875
2513.15+857731740+859677199+861689525+863777867+865942486+868180554+870530506
2506.40+873020641+875621475+878294112+880979978+883558041+885883970+887865562
2499.65+889477015+890747224+891752465+892565201+893245059+893846598+894387325
2492.90+894867109+895320830+895799363+896339037+896971509+897685458+898401184
2486.15+899039579+899555955+899900294+900038964+899997764+899836191+899629470
2479.40+899463816+899423340+899575370+899910627+900317093+900645768+900801681
2472.65+900783056+900642280+900439836+900245948+900105699+900043900+900112741
2465.89+900363360+900785359+901360639+902135861+903147026+904346221+905642097
2459.14+906929022+908072078+908928646+909415867+909510507+909209277+908535474
2452.39+907564521+906430811+905283148+904193862+903155450+902190421+901335498
2445.64+900572188+899881537+899288883+898816602+898429879+898070404+897696712
2438.89+897309397+896946500+896584655+896120667+895438505+894445505+893104481
2432.14+891457948+889550990+887377156+884930853+882250450+879436708+876646000
2425.39+874042929+871754579+869852096+868350486+867240995+866527111+866174875
2418.64+866093792+866194224+866411279+866700860+867026310+867344323+867617714
2411.89+867848391+868056166+868234258+868350025+868363846+868250514+868019573
2405.14+867683198+867224673+866639258+865944856+865159630+864302272+863393908
2398.39+862697531+862508974+863061877+864456540+866616552+869337892+872393105
2391.64+875594162+878779358+881779486+884427640+886601145+888252087+889405212
2384.89+890122716+890474425+890537804+890401043+890168983+889961208+889910137
2378.14+890148580+890816328+892026054+893802503+896082494+898759739+901724326
2371.39+904865888+908077936+911279914+914388569+917303401+919950437+922307562
2364.64+924370170+926094955+927414129+928277345+928729947+928903893+928788587
2357.89+928111494+926651214+924557608+922180344+919695342+917095692+914357241
2351.13+911502760+908746474+906683339+906142941+907514634+910243411+913187399
2344.38+915448239+916670600+916868963+916239914+915037099+913439203+911570351
2337.63+909581389+907622174+905788862+904268890+903387641+903284445+903738101
2330.88+904347274+904758808+904794282+904466002+903953444+903521507+903459773
2324.13+904011492+905223652+906881044+908611884+910043337+910906881+911083526
2317.38+910591501+909558749+908165139+906635953+905241751+904205708+903640630
2310.63+903520520+903699599+904008398+904355040+904784937+905453145+906548749
2303.88+908213644+910451383+913089994+915847071+918446852+920697885+922541267
2297.13+924006219+925141707+926005712+926651412+927119086+927401691+927460528
2290.38+927263745+926801402+926119306+925319141+924553791+923997071+923836617
2283.63+924262498+925409109+927310472+929860893+932867470+936120257+939425234
2276.88+942623659+945583574+948216525+950484078+952387614+953941085+955175623
2270.13+956148089+956896788+957414283+957670891+957663849+957416126+956980109
2263.38+956457612+955987964+955701608+955683640+955993426+956639982+957550584
2256.63+958593142+959652746+960712218+961870214+963286990+965026320+966819486
2249.88+968215465+969806911+971080805+972044453+972753005+973202909+973366654
2243.13+973267341+972987237+972581494+972058603+971475426+970935883+970525862
2236.37+970278073+970188566+970256749+970472093+970818010+971270415+971801402
2229.62+972411892+973161973+974127726+975275784+976447404+977424016+977996992
2222.87+978063727+977637187+976783449+975599457+974182944+972614138+970999657
2216.12+969467838+968133527+967104987+966459945+966250656+966608289+967699352
2209.37+969458887+971516559+973535928+975457365+977363336+979267464+981035423
2202.62+982442788+983312387+983587950+983297711+982512748+981364690+980021296
2195.87+978593793+977133316+975721213+974457125+973390216+972532134+971944416
2189.12+971758162+972047283+972764391+973816097+975135337+976651822+978191867
2182.37+979466222+980226044+980394066+980013333+979233109+978362523+977746373
2175.62+977549523+977691155+977973102+978254654+978495533+978741216+979105496
2168.87+979655108+980357342+981195943+982247518+983613946+985319382+987335657
2162.12+989614662+992035890+994425330+996646088+998612674+1000270921+1001629781
2155.37+1002709788+1003438611+1003701472+1003477046+1002868926+1002043817
2149.58+1001233976+1000715429+1000705491+1001264448+1002330173+1003821253
2143.80+1005627187+1007602657+1009615444+1011581503+1013494450+1015461826
2138.01+1017650204+1020149751+1022878725+1025545768+1027817532+1029507765
2132.22+1030541702+1030909141+1030660233+1029884550+1028678378+1027194340
2126.44+1025673710+1024366382+1023457755+1023029307+1023050301+1023405368
2120.65+1024037247+1024997011+1026326321+1028000495+1029952733+1032135320
2114.86+1034473688+1036774214+1038817275+1040500532+1041789958+1042647513
2109.08+1043082806+1043160335+1042949467+1042482847+1041759354+1040783400
2103.29+1039631393+1038464973+1037419124+1036623829+1036245860+1036304368
2097.51+1036785994+1037661648+1038898226+1040422937+1042141602+1043940559
2091.72+1045681995+1047285354+1048710949+1049853544+1050620211+1051022926
2085.93+1051074919+1050758617+1050049736+1048926358+1047399080+1045519632
2080.15+1043393382+1041166832+1039000962+1037042932+1035422198+1034245248
2074.36+1033555058+1033341294+1033592243+1034314419+1035508480+1037114932
2068.57+1038953773+1040747663+1042301398+1043601617+1044571056+1044908418
2062.79+1044471085+1043427276+1041980226+1040310988+1038567774+1036792247
2057.00+1034951037+1033061124+1031238276+1029617280+1028309491+1027387307
2051.22+1026888108+1026833417+1027205792+1027937050+1028935316+1030113582
2045.43+1031379908+1032620895+1033666152+1034397805+1034830202+1034842839
2039.64+1034214184+1032976553+1031296390+1029257672+1026942536+1024501630
2033.86+1022115941+1019963431+1018209425+1016993908+1016390657+1016384273
2028.07+1016947575+1018099647+1019826604+1022022749+1024587912+1027464177
2022.28+1030529263+1033597442+1036531492+1039255530+1041713943+1043965042
2016.50+1045896022+1047055268+1047327738+1047089557+1046543565+1045681666
2010.71+1044542625+1043229440+1041899801+1040789850+1040162840+1040225298
2004.93+1041057515+1042567483+1044578757+1046995838+1049836959+1053080203
1999.14+1056512925+1059785851+1062627959+1064893471+1066413773+1066994646
1993.35+1066838799+1066542702+1065978545+1064424350+1062277961+1060509936
1987.57+1059198462+1057956948+1056801848+1055922706+1055364143+1055166175
1981.78+1055425613+1056272836+1057818344+1060005801+1062582284+1065247945
1975.99+1067778424+1070001947+1071788795+1073055713+1073728200+1073741823
1970.21+1073000495+1071436888+1069298265+1066904218+1064037232+1060350600
1964.42+1056066641+1051545093+1046911597+1042173521+1037314217+1032178165
1958.64+1026504150+1020248669+1013749677+1007753042+1003403466+1001824985
1952.85+1003427686+1007647805+1013234749+1018841304+1023443079+1026422606
1947.06+1027514986+1026536728+1023184167+1017438152+1009795313+1000682719
1941.28+990306300+979369739+969359772+962079568+958880880+960048287+964568387
1934.53+970755487+977163920+982976341+987970498+992408923+996721577+1001089252
1927.78+1005291733+1008824427+1011111394+1011824620+1011296200+1010007629
1921.99+1007603842+1003657705+998610700+993498735+989060048+984884616+980374717
1915.24+976153544+972959134+970751078+969281190+968524725+968603109+969377344
1908.49+970461760+971697679+973007968+974336620+975678236+976866112+977663579
1901.74+977993701+977833115+977125418+975837835+973957202+971556179+968907038
1894.99+966195570+963290610+960279492+957674248+956049500+956076549+957688793
1888.24+959624972+961409582+963669369+966630139+969904579+973010272+975700745
1881.49+977958096+979760081+981080440+981920883+982278780+982144651+981467162
1874.74+980145619+978082879+975214577+971604553+967780238+964844542+963553734
1867.99+963499767+964190418+965670046+967860136+970524678+973481302+976559090
1861.23+979527758+982081206+983946372+984889157+984597996+982868670+979844520
1854.48+976070421+972436638+969866539+968841684+969196553+970450835+972276249
1847.73+974256656+975617424+976575280+978910292+982903617+986167592+988249681
1840.98+990677754+994034724+997959339+1002167481+1006376610+1010009998
1835.20+1012665392+1014457571+1015471566+1015628335+1015468078+1015902055
1829.41+1016268770+1014691869+1011176024+1007506174+1004956740+1003066236
1823.62+1000719970+997998564+995609190+993731256+992146194+990696379+989368386
1816.87+988090872+986610849+984641828+981986895+978577932+974584080+970379558
1810.12+966392551+963209593+961519360+961421100+962072921+962344206+961463418
1803.37+959205145+955801842+951629569+947102098+942738373+939184750+937256929
1796.62+937649838+940232442+944145079+948983323+954648519+960051381+963788229
1789.87+965690251+966435923+966623821+966470607+966027350+965244822+963759731
1783.12+961211351+957752830+953786818+949487063+944901939+940350315+936368902
1776.37+933352650+931400939+930577212+931232850+933415174+936034962+937902761
1769.62+939305387+941288624+943953824+946282320+947591820+947965840+947727528
1762.87+947212929+946386635+944502120+941003123+936367059+931494395+926882353
1756.12+922462554+918057694+913906482+910613285+908796163+908614846+909453841
1749.37+910655143+912102851+913695482+915212098+916679156+918335561+920197371
1742.62+921760122+922638343+923180189+923497412+922699615+920174336+916467235
1735.87+912649502+909532226+906865643+903450296+899099668+895031117+892323599
1729.12+891012520+890579596+890755319+891473809+892630291+894099982+895669051
1722.37+896957556+897686380+898027954+898589939+899723583+900500253+899309219
1715.61+895925528+891162312+885529628+879279084+872822080+866547711+860618733
1708.86+855111359+850255937+846358174+843420702+841057785+838875725+836901768
1702.11+835869872+836780210+839167346+840367331+839289694+837508967+836498855
1695.36+835649790+833331758+829383713+824712965+819949881+815169224+810215147
1688.61+805008609+799717697+794795408+790846902+788087983+785712759+782694599
1681.86+779403771+776926931+775746032+775468165+775638426+776404500+778185095
1675.11+780535902+781964986+781871398+780966983+779817807+778269403+775898259
1668.36+772251905+767286574+761595974+755860160+750458154+745464589+740719604
1661.61+735997126+731354810+727125279+723565799+720718031+718579671+717458926
1654.86+718167216+721377618+725868167+728384168+727938936+726244031+725035687
1648.11+724749397+724574990+723174075+719686267+714304334+707805341+700824525
1641.36+693656995+686462877+679397358+672534020+665787830+658885465+651528917
1634.61+643886869+636562438+629840008+623611642+617640017+611664574+605410080
1627.86+598605119+591173215+583196305+574545593+564747349+553453286+540889937
1621.11+527383704+512975064+497334947+479530342+458790765+436955881+418145178
1614.36+404022533+393196341+383408825+372771322+360214291+345763530+330580227
1607.61+316596383+306110186+301216626+302853714+310270284+321438806+334033154
1600.85+346377245+357773944+368264550+378134630+387407679+395740345+402717673
1594.10+408255223+412744818+416867632+421234121+426161807+431752271+438003507
1587.35+444893697+452376278+460350489+468647254+476989826+485009087+492318808
1580.60+498665803+504028419+508743493+513628860+519482678+525760634+530744426
1573.85+534111466+536858506+539862549+543688377+548603920+553985129+558840418
1567.10+563467334+569065860+576236418+584240180+591781467+598521009+605571654
1560.35+614678588+625975480+636321625+642211905+643697917+643327450+642924472
1553.60+642281733+640495938+637591768+634163719+630502951+626526080+622211122
1546.85+617833246+613709807+609982041+606669101+603773749+601275848+598957487
1540.10+596423191+593130323+588901055+584263938+579815444+575771114+571848012
1533.35+567439533+562065498+555755325+548727617+540946965+532131059+522054488
1526.60+510771285+498645796+486544427+474953445+462813246+448446628+431599517
1519.85+413963264+396719755+379759477+363958938+351633407+343613258+338282693
1513.10+333288568+327016799+319136339+309999986+299678390+287596732+272963980
1506.35+256570063+241278216+228736437+217953107+207016957+194457491+179100916
1499.60+160019094+138284789+117719718+102052247+93092966+90512287+91802750
1492.85+93840982+94429589+92807062+89282110+84536450+78892413+72289312+64825989
1485.13+56705840+48086743+39278932+30783535+23203796+17025709+12317820+8760982
1477.42+5994311+3855927+2345405+1391726+823167+513017+367491+309789+290838
1468.74+283996+281624+276263+270357+270403+281716+295456+295877+282141+260600
1459.09+241653+229368+232267+254170+284003+310538+323928+325650+320395+313623
1449.45+304721+298270+304867+321717+337220+342619+349518+376490+438643+544622
1439.80+707574+968645+1418719+2220483+3495200+5242890+7535389+10589714+14604077
1431.13+19731392+26093230+33476375+41330973+49303346+57384583+65739194+74519539
1423.41+83437316+91768420+99262214+106623895+114698802+123118927+130716691
1416.66+137212129+142882105+147828563+152047466+155580060+158538067+161061652
1409.91+163327049+165521828+167756687+170030805+172308904+174520877+176441343
1403.16+177849185+178696013+178892615+178158313+176177824+172923458+168530824
1396.41+162532428+153809715+142024072+128520127+114320142+99015634+82434699
1389.66+65237449+47824750+31054316+17722453+9532556+5220057+3031759+1880751
1381.94+1194806+739688+454924+302215+224819+180958+157406+183248+315423+633928
1372.30+1163888+1821401+2510649+3110322+3418437+3327851+3089070+3141381+3942494
1363.62+6230243+10893166+18043183+26935294+36608870+46226385+55164128+62765931
1355.90+68677140+73037476+76203685+78727130+81371796+84766280+88983282+93458875
1348.19+97407537+100430650+102585290+104039696+104859745+105136452+105227678
1341.44+105869076+107956537+111930570+117458034+124013412+131329937+138956815
1334.69+146317476+153236740+159665673+165405502+170274448+174302605+177678431
1327.94+180543541+182973391+184994174+186671557+188109838+189344605+190219141
1321.19+190456844+189892737+188502549+186440418+183991302+181425497+178873283
1314.44+176301045+173683510+171165667+169052086+167500293+166426374+165708361
1307.69+165317278+165326443+165834740+166865485+168300277+170048361+172134514
1300.94+174599870+177428404+180437778+183341274+186084299+189066772+192756728
1294.18+197165964+201848360+206321255+210465804+214539142+219053055+224582181
1287.43+231328963+238801853+246180201+252866023+258554385+263182535+266887874
1280.68+269925170+272469750+274453661+275681337+276050932+275700818+274882521
1273.93+273737408+272252251+270408178+268258202+265814844+263040311+259884731
1267.18+256330467+252444402+248522123+245244377+243459849+243810818+246674036
1260.43+252075482+259242667+266787903+273539851+278692867+281487589+281397391
1253.68+278905808+275608761+273009391+271525156+270952575+271403959+273452467
1246.93+277675746+284132716+292187648+300880777+309474594+317681951+325496135
1240.18+332952161+339994578+346469976+352212767+357103136+361039663+364016163
1233.43+366241167+367969704+369247547+369839280+369399972+367801944+365337410
1226.68+362573950+359995756+357798361+355961231+354400487+352937477+351375976
1219.93+349976147+349675180+351374857+354995840+359552993+364030708+367917316
1213.18+371059634+373425414+375138122+376482174+377641354+378486668+378795138
1206.43+378521912+377785059+376721671+375414870+373963805+372554268+371394758
1199.68+370525422+369798245+369142211+368662889+368507732+368686286+369081893
1192.93+369450517+369489939+369100453+368618201+368722878+369892194+371944831
1186.18+374072398+375379297+375359356+373888908+370887761+365958398+358506058
1179.42+348365483+336433256+324212007+312718956+302593551+294722405+289483683
1172.67+285936873+283034051+281434839+283307278+289621168+298532109+307487507
1165.92+315447371+322233476+327318029+330240792+331183905+330510958+328340975
1159.17+324787517+320450051+316349252+313430668+312334175+313312729+316055557
1152.42+319785363+323802875+328103452+333714845+341935793+352859652+365209139
1145.67+377621479+389476276+400574081+410740817+419619509+426547838+430983104
1138.92+433164637+434065794+434551139+434877379+434922659+434645549+434242307
1132.17+433974905+434131016+435063467+437073523+440223871+444438265+449670668
1125.42+455821571+462661940+469779879+476617023+482782306+488473169+494300662
1118.67+500364394+505776338+509297251+510082444+507762010+502491171+495116459
1111.92+486849211+478489988+470184437+461993336+454365306+448143917+444225653
1105.17+443160915+444946545+449040138+454579925+460547832+465863128+469563384
1098.42+470973974+469764380+466081302+460876079+455718407+451597469+448229442
1091.67+445036052+441962444+439091674+436277109+433196491+429360231+424187981
1084.92+417328592+408916093+399869247+392057135+387458553+386809002+389522971
1078.17+394807236+402154898+411089236+420973169+430889253+439773473+446752479
1071.42+451137496+452441895+450758046+446741390+441094687+434241583+426508810
1064.66+418371183+410380519+403130721+397251531+393220495+391249500+391529505
1057.91+394149524+398410514+403096333+407625055+412281751+417636799+423884152
1051.16+430257341+435346698+438166593+438380916+435719007+429917708+421242677
1044.41+410554267+398741196+386341723+373605382+360758144+348413264+337646173
1037.66+329241638+323060264+318375794+314500341+310936090+307068239+303357355
1030.91+303993578+314230504+333026925+353369841+369811473+381179971+388038834
1024.16+391031623+391158512+390088279+389338264+389355540+389660686+389659633
1017.41+389187978+388614410+388520526+389184424+390523046+392455342+395147921
1010.66+398706249+402737351+406449486+408951501+409361950+407222866+403604845
1003.91+401427687+403341030+409185832+416509900+423024589+427747428+430614677
997.16+431808739+431631107+430620699+429174438+427163758+424350641+421225105
990.41+418988781+418344792+418617821+418632070+418060739+417492798+417676978
983.66+418802001+420319012+421353014+421161924+419239368+415129256+408325479
976.91+398228539+384391986+367301791+348672077+330701555+315400577+304074957
970.16+296477925+291089016+286725323+283194308+280563627+279762869+284194680
963.41+296931383+316021433+336652778+356006182+372754276+385125943+391608515
956.66+392089845+388477681+385044334+386487501+393600899+402152957+407217502
949.90+407278281+404361441+401882297+402526517+407112660+414555951+423007082
943.15+431288184+439231298+447034261+454567783+461380740+467324526+472664470
936.40+477519891+481811189+485861838+490275023+494889467+498568366+500305195
929.65+500144642+498917081+497259623+494932279+491248871+486233621+480753724
922.90+475373733+469879291+464284450+459870212+458911205+463178579+472425763
916.15+484226165+495241242+502726061+505103128+501685609+492805963+481030340
909.40+471487355+468214495+469451797+469183934+463743197+455156850+448437776
902.65+446383592+447276654+447731198+446034811+442258442+437053187+431053393
895.90+424749835+418471089+412653863+408073971+405104744+402972998+400677047
889.15+398354902+397038821+397034642+396958330+395137654+391592983+387378786
882.40+382456761+375717548+366849847+356962129+347501215+339292344+332540955
875.65+327161030+322798587+318890623+315484852+314313627+317817988+326376627
868.90+337799750+349536247+359886143+367625727+371924560+372886497+372137666
862.15+372233326+374563929+378230817+381293730+382792280+383646940+385285871
855.40+387342325+387808913+385450866+380878642+375317926+369542492+364478868
848.65+361825251+363204118+368861416+376542427+382389631+386394440+394261408
841.90+409002704+426104450+439828592+448050395+450665182+447552052+439344136
835.14+429282505+421279401+416021298+411892363+407908383+403359392+397247188
828.39+389481014+381291197+374075030+368231939+363243804+358270773+352831154
821.64+347250957+341445018+333885435+323249215+309929203+295397063+281536225
814.89+270183819+262037011+256371519+252267972+249524371+248155326+247558690
808.14+246519061+244509597+243419768+246920460+257251023+273871060+295052922
801.39+318481787+340778126+358386540+368566076+369498528+361783064+351192322
794.64+346801843+352667311+363370265+370408109+371022350+369066229+368279457
787.89+366951990+360542735+347114690+328861694+310706235+297848401+293288583
781.14+296342974+303046680+309008631+311798384+310982061+307684751+303652991
774.39+298911888+290867552+277299389+259212952+238592170+215905817+194004461
767.64+180564240+181074215+192674296+207974402+221488762+231229616+237535544
760.89+241727117+244914649+247303299+248239173+246803163+242275988+234370964
754.14+223525571+211063970+199126889+190083416+184653883+181054191+177052639
747.39+171466865+163870228+154353585+143414737+131845070+121396338+115677940
740.64+118055295+127801587+140493340+152006497+160197153+163846123+162099077
733.89+154486974+140444851+119197331+91586313+62084292+37960564+25825110
727.14+28011119+42393037+62982895+82701928+98775068+112881910+129183918
720.38+151361783+180277192+213965212+249547603+284572451+317726507+349078182
713.63+379361434+409015768+437703000+464451321+488283066+508852250+526016256
706.88+538695372+545216017+544881353+538013968+524247145+501551315+468105869
700.13+426525758+384968253+350634516+322196522+293372923+267711239+261416764
693.38+286237149+337302000+400799296+469375650+540071310+604543377+655113011
686.63+692514203+720531251+739570756+747489288+741814352+719228070+673880704
679.88+597373346+485215874+350995637+229705761+152180295+124434317+142762241
673.13+209127823+318822144+442665304+547723922+628732162+696945388+750052280
666.38+781505999+800651399+818696521+838998336+860351529+881002092+899852513
659.63+916262686+929653382+939416218+945090562+946537415+943948690+937801539
652.88+928865458+918117322+906508076+894848484+883864207+874287230+866868751
646.13+862267372+860865404+862671272+867402963+874640519+883908829+894646764
639.38+906120235+917428513+927740237+936561145+943610144+948458391+950542455
632.63+949540241+945543822+938847388+929650486+917877627+903488139+887872604
625.88+873365374+861909344+854457432+851061039+851316463+854914641+861545327
619.13+870556634+881780934+895211118+909996543+924808491+938346018+949591115
612.38+957767309+962087005+962117214+958020298+950279462+939677828+927310933
605.62+914132487+900721980+887646072+875626016+865194709+856724458+850944548
598.87+848608549+849522310+852847426+858260160+866150985+876708655+889291420
592.12+902716998+915052499+924244860+929611459+931219292+929300685+924604797
585.37+917776932+908949707+898373937+886525854+873751307+860549168+847882293
578.62+836893607+828675226+824076611+823286120+825798895+831095072+838854335
571.87+848476527+859161679+870287521+881057573+890120544+896443418+900033699
565.12+901254481+899981245+895871166+888887915+879078878+866460771+851265852
558.37+834053078+815944512+799051857+786116988+779296166+778967096+783613164
551.62+791148198+800241839+810195995+820336406+830183023+839660753+848938014
544.87+858443122+868553456+878390925+885194570+885904504+880060821+871016542
538.12+863156057+857426232+851416697+843549171+834412620+825350636+818134009
531.37+814395516+814350499+817135941+822194530+829528898+839425073+851539704
524.62+864614427+878158075+892087129+905857967+919416817+932222362+941875947
517.87+946154641+944737141+938670415+929766187+919636373+909039740+898247575
511.12+887715637+878221651+870502601+865054854+862274743+862499102+865972366
504.37+872886249+883388636+897269646+912660295+926871889+938921166+948643460
497.62+955498374+958986051+958955184+955732540+949892806+941622366+930768204
490.86+917426934+901937761+884785207+866338949+845720832+821303739+794470024
484.11+773421945+769416313+784480920+808216839+828622641+841437663+849158885
477.36+855483800+862300015+869828008+878330179+888618473+899526339+906427981
470.61+905542323+895610477+874493820+837025498+775977828+692750804+613729354
463.86+578775519+604684416+670654506+737723359+782605158+808978570+829342974
457.11+848615591+865190233+879473300+893098228+905853886+916247812+923160181
450.36+926437451+925940951+921392880+913073475+901865431+888706334+873914065
443.61+857713575+840983349+824626288+809332780+795736745+784507640+776482358
436.86+772139034+771274568+773365937+777840625+784576811+795579120+814003001
430.11+839297394+865961441+888240372+903676828+912561114+916222013+916149091
423.36+913068736+907236307+899842641+891328229+880219301+867217170+857021937
416.61+852110837+851526146+854148041+860025091+869380803+881477005+895275089
409.86+910270790+926038948+941907209+957055860+970304530+980446849+987169411
403.11+990591208+990255294+985826281+978196211+969096121
##END=
