##TITLE=Ñìåñü_6_250ìêì
##JCAMP-DX=4.24
##DATA TYPE=INFRARED SPECTRUM
##DATE=9/3/2017
##SAMPLING PROCEDURE=Instrument type and / or accessory
##ORIGIN=Default
##XUNITS=1/CM
##YUNITS=TRANSMITTANCE
##RESOLUTION=2
##FIRSTX=3998.2792
##LASTX=399.2493
##DELTAX=-0.96437028
##MAXY=0.97960192
##MINY=4.4473345e-006
##XFACTOR=1
##YFACTOR=9.1232538e-010
##NPOINTS=3733
##FIRSTY=0.7738204
##XYDATA=(X++(Y..Y))
3998.28+848184666+850397941+852484535+854556234+856600362+858392437+859921940
3991.53+861479601+863312901+865321815+867266246+869124437+871024964+873028129
3984.78+875095777+877082543+878957721+880795007+882595313+884319312+885884617
3978.03+887120253+888019492+888798127+889509273+889947263+890041930+889924723
3971.28+889603091+889090098+888649103+888385486+888085739+887670289+887276333
3964.53+886948951+886652014+886591386+886984688+887508656+887809578+888051113
3957.78+888468328+889038551+889592964+890010505+890331027+890552831+890515396
3951.03+890353828+890444314+890694342+891021724+891601159+892038561+891854193
3944.27+891538309+892133424+893731788+895062157+895453369+895576064+896064425
3937.52+896834697+897532254+897933658+898018199+898145467+898967874+900443020
3930.77+901672973+902209354+902178582+901564259+900525797+899773034+899883969
3924.02+900422179+900414013+899627930+898771549+898461611+898391901+898294490
3917.27+898765735+899861298+900615237+900609749+900313466+900137525+900093621
3910.52+900027309+899762581+899148584+898188129+897176061+896566637+896586564
3903.77+896883697+896947135+896779165+896586107+896646082+897137122+897396101
3897.02+896730426+895430764+894168668+893286938+892963411+893595373+895182761
3890.27+896448712+896133809+894561839+893225721+893609028+895628264+897226105
3883.52+897003778+895700457+895017861+896075597+898071183+899065873+898518973
3876.77+897402242+896903231+897771437+899543259+900583485+900459941+900979271
3870.02+903668428+907066053+908493376+907806207+907167058+908238448+910280290
3863.27+911587204+912010952+912184802+911936603+910962755+909578290+908040686
3856.52+906118207+904374021+905008009+908947830+913292844+915164494+914469093
3849.77+912681526+911155551+910297276+909878559+909721695+909989886+910825099
3843.02+911688796+911954831+911949931+912215312+912904768+914279628+915828339
3836.26+916267701+915638091+914695928+913648123+912991203+913169627+913365821
3829.51+912735883+911801887+911578711+912190943+912685120+912215966+911124257
3822.76+910898533+913069080+917051040+919830226+919734514+918283018+918262503
3816.01+920745471+923602207+924506215+923769785+922805933+922192851+921717229
3809.26+921288582+921615506+923557520+926202512+927269656+926344938+925333261
3802.51+926453325+930139851+934029169+935566969+935176868+935050972+936417470
3795.76+938461402+939739244+940002142+939927924+939968039+940101121+940169721
3789.01+940089361+939890162+939735585+939913225+940598434+941488591+942021640
3782.26+942119117+942425396+943772033+946185552+948470105+949657983+950069579
3775.51+950408917+950871145+951236093+951353888+951563933+952583776+954375001
3768.76+955508327+955101435+954233491+954282751+954960512+955048777+954227153
3762.01+953138646+952719667+953651181+955459066+956899324+957723431+958293262
3755.26+958309465+957782230+958155737+960790407+964683058+968070817+970893450
3748.51+972548849+971511562+968589363+967370386+970623887+975853179+978247555
3741.76+977588022+976149136+974935581+973881374+973266789+973810684+975988744
3735.01+979163323+981766634+983363037+984820740+986068920+986214351+985402658
3728.26+984710981+985092850+986618499+988320088+989280674+989715789+990366437
3721.50+991042369+990959135+990308814+989694752+988921148+987586467+985839407
3714.75+984093195+982961307+983443919+985705671+988135262+989642617+990539307
3708.00+990897918+990711590+990460320+990422493+990494816+990893672+992065936
3701.25+993536509+994019448+993210695+991963755+991061185+990641618+990352848
3694.50+989780403+988911087+988367127+988974590+990672390+992745526+995154995
3687.75+997399825+998164282+997604185+997091912+997319335+998005197+998768413
3681.00+999610355+1000607985+1001281173+1001048523+1000896756+1003119634
3675.22+1007726959+1010786683+1009720781+1006448006+1004670043+1006009951
3669.43+1008734519+1010471584+1010504511+1009533407+1008689635+1008611628
3663.64+1009266784+1010388676+1011720091+1012967749+1013765918+1013943035
3657.86+1014029404+1015080150+1017040064+1018057424+1016918480+1014468048
3652.07+1012529105+1012419608+1013874827+1015350300+1015955999+1015875379
3646.28+1015041211+1013224898+1011064804+1009670736+1009530075+1010253634
3640.50+1011187630+1012043095+1012849170+1013510402+1013780095+1013707314
3634.71+1013715546+1013838241+1013166229+1010969615+1008208460+1007038418
3628.93+1008190559+1009290957+1007973328+1004696895+1001102815+998081049
3623.14+995736782+994045450+993295562+994013633+996169546+998812448+1000921909
3616.39+1002217847+1003357510+1005286849+1008310183+1011829196+1014686194
3610.60+1016595279+1018777390+1022039515+1025691350+1028891213+1031177398
3604.82+1032510838+1033436341+1034598674+1036327049+1038632900+1041117828
3599.03+1043243230+1044836498+1046187251+1047926667+1050427667+1053308903
3593.24+1056004463+1058031474+1058923265+1058979386+1059508972+1061636138
3587.46+1065127189+1068617717+1070588019+1070639959+1069848715+1069160370
3581.67+1068585443+1068051414+1067689275+1067395278+1067019027+1066630494
3575.89+1066281421+1066011467+1065875640+1065757715+1065501806+1064953469
3570.10+1063856991+1062537925+1062293385+1063837718+1066121291+1067421868
3564.31+1067108402+1065960964+1064736369+1063471855+1062198522+1060969222
3558.53+1059577833+1057958693+1056240836+1054413678+1052611215+1051340560
3552.74+1051041402+1051383092+1051369633+1050566630+1049547897+1049194709
3546.95+1050042662+1051810629+1053772307+1055395367+1056430889+1056927221
3541.17+1057119822+1057288903+1057481896+1057583684+1057765374+1058247725
3535.38+1058542506+1058111049+1057216318+1056365557+1055721768+1055235824
3529.60+1054896813+1054822530+1054989912+1055156837+1055234191+1055484938
3523.81+1056190138+1057151051+1057681944+1057563758+1057304322+1057292104
3518.02+1057309679+1057037634+1056469174+1055758355+1054874339+1053580360
3512.24+1051763655+1049624859+1047694606+1046391807+1045236138+1043551012
3506.45+1041496170+1039573495+1038086850+1037169187+1036327180+1034837791
3500.66+1032666591+1030298217+1027807475+1024893311+1021396642+1017277548
3494.88+1012391188+1006636818+1000093360+992975628+985505165+977880059
3489.09+970430960+963639499+957680507+952403065+947924707+944566347+942661378
3482.34+942468842+943678607+945591482+947690425+949847840+952217717+954904065
3475.59+957822279+960772506+963467021+965804689+967953153+970010152+971757409
3468.84+972880216+973465923+973766911+973695372+973168529+972470123+971948442
3462.09+971685935+971521623+971230501+970766312+970309768+970062026+970082541
3455.34+970292063+970555615+970781731+970946108+971071155+971155695+971072461
3448.59+970857843+970947741+971304196+971088076+970164468+969160240+968482283
3441.84+967976020+967304335+966587243+966176562+966091238+966169572+966400653
3435.09+966724181+966945854+967198953+967906636+969112220+970352169+971289300
3428.34+972045069+972751903+973369950+973863080+974179879+974289376+974261936
3421.59+974188698+974044705+973624551+972825140+971890557+971097026+970504263
3414.84+970093059+969883733+969790896+969674342+969653436+969947367+970423969
3408.08+970800089+971078014+971397295+971743101+972082896+972434321+972669714
3401.33+972568318+971927078+970587824+968948692+967370451+966011859+964594793
3394.58+962937369+961396302+960323801+959367135+958027423+956505695+955273260
3387.83+954430142+953822287+953375673+953082133+952894236+952731819+952548300
3381.08+952260836+951663957+950700300+949609375+948438745+946919434+945015771
3374.33+943016657+941115215+939340519+937721183+936207621+934660936+933064140
3367.58+931543457+930169904+928968501+928011704+927333421+926948285+926858975
3360.83+926891641+926805990+926543418+926187551+925824628+925450664+924967006
3354.08+924348829+923724314+923180354+922546497+921526850+920125268+918695920
3347.33+917514183+916599591+915939666+915563807+915347034+915070546+914827182
3340.58+914968039+915498475+915971744+916152520+916224059+916310690+916438350
3333.83+916640751+916803037+916808917+916667733+916416790+916100776+915802598
3327.08+915610651+915397013+914893756+914159416+913521443+913137156+912995384
3320.33+913089529+913407895+913948719+914702723+915586935+916487088+917356209
3313.58+918221409+919041530+919742746+920365301+920937027+921370509+921539394
3306.83+921367634+920864703+920028903+918859448+917523003+916261233+915184421
3300.08+914289494+913595400+913204841+913128206+913167601+913167797+913212485
3293.32+913474338+913877049+914072132+913943623+913774999+913748017+913699736
3286.57+913451341+912980097+912283846+911388005+910344838+909151603+907819666
3279.82+906418019+905008401+903669735+902548039+901627893+900683902+899758595
3273.07+899111410+898703930+898297038+897737660+897012925+896257745+895596513
3266.32+895030405+894494285+893874736+893092443+892162301+891106526+889908521
3259.57+888511904+886917918+885315112+883801224+882133607+880197539+878282051
3252.82+876592940+875080032+873735029+872643450+871857564+871227104+870398620
3246.07+869221391+867903762+866559216+865093347+863489561+861734529+859746130
3239.32+857502737+855036690+852415544+849739518+847052517+844256605+841142132
3232.57+837605936+833835654+830156184+826717334+823455731+820301536+817245601
3225.82+814269567+811347695+808442743+805502774+802473298+799310805+796032478
3219.07+792588205+788794011+784606318+780160953+775521877+770652895+765517095
3212.32+760120813+754547479+748950822+743464382+738101746+732813982+727577308
3205.57+722405901+717393253+712617631+708019845+703529401+699161847+694915159
3198.82+690752161+686680891+682688086+678679992+674604345+670492961+666357273
3192.07+662182646+658021870+653950404+649950216+645988966+642117941+638404302
3185.32+634913643+631705940+628778971+626131561+623788928+621722652+619906469
3178.56+618394802+617184123+616127106+615128757+614201687+613337662+612509963
3171.81+611704019+610927671+610203851+609526220+608889423+608318611+607836130
3165.06+607447727+607173983+607060958+607124461+607335420+607705726+608299730
3158.31+609131546+610161123+611379381+612813760+614489085+616351001+618195015
3151.56+619833754+621314976+622791102+624295452+625761190+627113119+628281202
3144.81+629208272+629919222+630519825+631089134+631639431+632116490+632437927
3138.06+632618768+632794643+633091711+633521861+634043477+634648915+635263369
3131.31+635754932+636049778+636077936+635808504+635302960+634579597+633543617
3124.56+632100092+630303836+628259054+625853440+622876884+619378386+615610063
3117.81+611701275+607621969+603332945+598778475+593908252+588774673+583455810
3111.06+578012881+572556035+567151456+561792284+556586839+551730139+547226236
3104.31+542847772+538304212+533306394+527515568+520482246+511750111+501028074
3097.56+488140194+472969363+455809674+437749669+420491262+405750581+394462077
3090.81+386398818+380747869+376917023+374686926+373798663+373684592+373585188
3084.06+372788783+370789342+367320309+362279698+355620928+347323615+337365676
3077.31+325661624+312144721+297149307+281906642+268342977+257823945+250105659
3070.55+243793789+237631907+231123859+224325848+217572068+211316940+205902642
3063.80+201441630+197832850+194830145+192153188+189552360+186891361+184169962
3057.05+181425598+178676824+175944237+173256729+170605676+167930892+165178133
3050.30+162326231+159333604+156121981+152614646+148731060+144377275+139461564
3043.55+133918292+127721652+120921462+113750198+106666430+100207684+94753918
3036.80+90372334+86822843+83718456+80714762+77611518+74387261+71185561+68216971
3029.09+65619308+63436156+61662521+60239465+59048243+57940523+56803474+55594301
3021.37+54303793+52927904+51487514+50027505+48590921+47198254+45826419+44441640
3013.66+43011990+41494418+39874573+38160901+36352440+34453820+32485145+30459808
3005.94+28382488+26284401+24221151+22223776+20286967+18405144+16571256+14772327
2998.23+13013632+11316944+9696042+8157424+6720764+5417748+4278058+3320161
2990.51+2531559+1874694+1323376+890761+584387+376157+241374+156750+98199+47803
2980.87+13698+10866+11056+10708+6547+18169+16144+31111+64001+71421+53429+39802
2969.30+48534+91237+121326+94134+50753+42234+52655+49543+41641+37502+29579
2958.69+20612+17568+27123+47401+63410+54432+44526+62383+81155+75536+71187+84537
2947.12+97793+83742+43201+19854+30177+51587+56122+27941+10963+11143+44957+85967
2935.54+85738+62664+49097+48335+47517+49749+55345+57933+60779+62126+48117+24852
2923.97+27117+59544+84341+76139+52262+44178+56260+68168+65552+51116+36428+32789
2912.40+39215+43288+45997+53889+66236+76660+80845+79215+74350+76326+88087+89078
2900.83+62853+30737+20174+25641+36450+60042+85420+83145+65165+59474+69310+82940
2889.25+80603+57733+37354+35639+42023+46896+54750+66485+79790+89348+79799+54731
2877.68+41869+47292+50487+46733+55972+79099+94729+101547+104015+94226+78108
2867.07+68824+65673+64614+61566+43927+20158+20451+50488+78201+74153+56352+61181
2855.50+85763+102532+113797+119634+112290+105061+100293+91432+89547+106824
2845.86+122660+115100+108134+126465+147013+134429+84282+25740+4875+20903+56820
2835.25+84226+94838+111815+157454+232196+357419+565412+874800+1287225+1808812
2825.60+2459323+3255377+4202257+5307201+6582546+8033273+9651255+11442313
2817.89+13427561+15626179+18057598+20727736+23602559+26639901+29840374+33227158
2810.18+36829434+40661905+44712701+48980365+53446596+58032185+62649571+67258488
2802.46+71809447+76221827+80465445+84576086+88578895+92469349+96314789
2795.71+100278097+104532102+109192452+114297538+119874057+126032142+132981634
2788.96+140904632+149824778+159598201+169964877+180644856+191400752+202057979
2782.21+212503169+222643222+232384224+241652119+250422196+258721093+266617966
2775.46+274185106+281479334+288551594+295402769+301995259+308306884+314294884
2768.71+319870014+324955541+329489628+333409979+336704117+339450964+341844622
2761.96+344157921+346644874+349452708+352583645+355953079+359454648+362946287
2755.21+366231181+369110260+371432510+373104895+374107621+374501610+374389531
2748.46+373817642+372729298+371050771+368788922+365970275+362529824+358355818
2741.70+353374268+347538657+340821218+333215517+324705219+315308520+305191954
2734.95+294705572+284380039+274914806+267035099+261242052+257618670+255804235
2728.20+255179933+255127732+255240414+255480005+256161000+257739846+260553103
2721.45+264711968+270189491+276935447+284935954+294126561+304273344+314992800
2714.70+325829659+336337536+346182155+355217074+363456013+370992200+377900378
2707.95+384190966+389837700+394777960+398915608+402148497+404416259+405798241
2701.20+406570799+407096270+407649866+408355688+409187046+409990180+410554164
2694.45+410723833+410477464+409915146+409196748+408517941+408094553+408013051
2687.70+408137411+408215027+408002695+407326829+406096746+404342335+402224022
2680.95+399896088+397344684+394404061+390878025+386636041+381668635+376029773
2674.20+369819120+363284318+356850489+351101476+346763714+344446299+344155373
2667.45+345124158+346187349+346299689+344859757+341964311+338654918+336859936
2660.70+338630614+344840320+354537778+365675886+376447478+386088716+394758883
2653.95+402840664+410352123+417009848+422609380+427151176+430761230+433629824
2647.20+435934760+437733989+438998960+439706708+439891730+439744111+439679040
2640.45+440262853+441979828+444982517+449023080+453625146+458299175+462658203
2633.70+466485717+469728569+472428604+474656644+476466555+477870586+478848877
2626.94+479419068+479720154+480012746+480582153+481633878+483208493+485153479
2620.19+487198489+489087649+490650504+491776806+492434445+492749871+492997972
2613.44+493429363+494113886+494953574+495755990+496298610+496422318+496181828
2606.69+495853564+495774904+496199468+497187004+498600541+500228109+501929927
2599.94+503766232+506038567+509153922+513376568+518637677+524534308+530576698
2593.19+536453893+542086777+547550123+553000859+558613850+564503001+570700784
2586.44+577219807+584129912+591504924+599305709+607386380+615569034+623707589
2579.69+631711036+639530898+647127976+654468231+661562901+668465231+675202531
2572.94+681737365+688019950+694021930+699695157+704978348+709875685+714447207
2566.19+718743679+722860616+726905296+730883728+734749723+738487274+742084556
2559.44+745530396+748877454+752191584+755489511+758764833+762004615+765222902
2552.69+768477448+771816274+775204099+778532014+781699603+784671585+787490298
2545.94+790227867+792890303+795384966+797619800+799541952+801136919+802450432
2539.19+803551352+804529513+805537139+806773951+808392829+810456427+812948606
2532.44+815757453+818683115+821541746+824293492+826988791+829618888+832093036
2525.69+834342374+836393428+838321852+840192783+842055809+843951828+845887505
2518.94+847817105+849693067+851506636+853282312+855045641+856825564+858659452
2512.18+860561677+862517476+864517178+866586917+868765565+871083894+873550660
2505.43+876159001+878877297+881623751+884275669+886698270+888782447+890474498
2498.68+891805912+892862472+893714932+894424118+895031255+895539739+895961004
2491.93+896344964+896738593+897171422+897677097+898257577+898850667+899369343
2485.18+899756439+899972886+899991114+899823471+899521830+899173672+898893918
2478.43+898804346+898981071+899377575+899837452+900212657+900441256+900524163
2471.68+900481697+900340709+900167839+900031098+899952764+899968378+900133278
2464.93+900462424+900961696+901682250+902656948+903830649+905107968+906384764
2458.18+907526779+908406484+908949529+909090059+908779794+908070478+907090226
2451.43+905970359+904830566+903754406+902746977+901787174+900884342+900058472
2444.68+899319037+898672374+898124952+897640968+897172467+896719581+896305568
2437.93+895913572+895477673+894922868+894144494+893033774+891565030+889785107
2431.18+887728174+885392793+882766681+879871007+876825721+873831917+871090493
2424.43+868725189+866776447+865247140+864130082+863415081+863051832+862949586
2417.68+863029619+863234633+863500210+863763762+863998894+864214427+864439824
2410.93+864683319+864924135+865137381+865286993+865314563+865192848+864956018
2404.18+864601327+864068473+863349030+862490951+861508413+860398280+859497735
2397.42+859173228+859687004+861132946+863417303+866327023+869629001+873120118
2390.67+876613259+879913146+882833124+885240567+887084712+888378299+889151446
2383.92+889449559+889368808+889052467+888633554+888241950+888096258+888409855
2377.17+889220372+890439937+892112845+894392693+897302022+900718397+904384474
2370.42+907837175+910758263+913448597+916498130+919876612+922813838+924728216
2363.67+925911913+927189297+928829604+930152721+930395759+929465944+927694710
2356.92+925381020+922772352+919993884+916934160+913885673+911793721+911391206
2350.17+912016244+911905244+910143156+907786019+906989157+908740399+911964043
2343.42+914503328+915274580+914688611+913603370+912308019+910665426+908609995
2336.67+906208824+903922246+902307222+901611626+901582553+902038836+902880386
2329.92+903553182+903498563+902899136+902369354+902042625+901815333+902035439
2323.17+903040908+904519190+905933446+907188291+908363821+909200406+909239083
2316.42+908350428+906736450+904808287+903029410+901711389+900959540+900760406
2309.67+900978944+901363100+901725108+902134679+902874767+904162213+906026676
2302.92+908358529+911028871+913866661+916623634+919030685+920944475+922365983
2296.17+923374588+924102917+924679347+925170126+925503322+925567675+925326532
2289.42+924827456+924148127+923361522+922615227+922124905+922092696+922650768
2282.66+923878891+925815808+928388870+931440820+934769650+938147217+941408297
2275.91+944456131+947213039+949582850+951529241+953111075+954408909+955486702
2269.16+956335830+956934604+957252251+957282500+957016074+956507328+955907379
2262.41+955350744+954954632+954844678+955141941+955811601+956712669+957696710
2255.66+958670232+959647869+960756042+962169645+963954468+965746151+966946965
2248.91+968561792+969869687+970896194+971672738+972185468+972455815+972504684
2242.16+972334754+971990385+971527111+970997198+970469637+970013745+969679046
2235.41+969478998+969417912+969486968+969665065+969937698+970305848+970801200
2228.66+971494380+972454639+973660092+974956096+976069887+976734843+976852899
2221.91+976471944+975649471+974426575+972898640+971200709+969447899+967752255
2215.16+966248298+965088447+964355741+964057563+964331503+965435298+967343926
2208.41+969611688+971810132+973856482+975874216+977910504+979816715+981346087
2201.66+982304844+982629286+982358352+981577822+980433978+979106353+977700852
2194.91+976264056+974884949+973645719+972571062+971694167+971083437+970830273
2188.16+971013858+971640267+972635284+973913844+975397418+976914573+978157331
2181.41+978855476+978922768+978401610+977477871+976511601+975873628+975745249
2174.65+976031863+976486644+976928489+977300624+977649108+978090953+978701813
2167.90+979470256+980384783+981506936+982929098+984685697+986762949+989124137
2161.15+991655385+994152073+996428394+998396932+1000043576+1001414386
2155.37+1002526152+1003268592+1003512087+1003254873+1002612522+1001758297
2149.58+1000940202+1000443412+1000478496+1001101769+1002235095+1003752511
2143.80+1005518649+1007409376+1009305265+1011108185+1012818529+1014592768
2138.01+1016649048+1019105229+1021891406+1024674969+1027051641+1028820261
2132.22+1029926147+1030355448+1030130508+1029303266+1027972635+1026350622
2126.44+1024725014+1023362175+1022452156+1022050622+1022102561+1022524218
2120.65+1023268031+1024326942+1025715000+1027429460+1029417467+1031630807
2114.86+1033990950+1036302027+1038342954+1040005278+1041257052+1042072730
2109.08+1042473154+1042529536+1042326025+1041918741+1041300760+1040443007
2103.29+1039395463+1038303428+1037313181+1036576359+1036253289+1036326919
2097.51+1036807245+1037654740+1038818184+1040255045+1041897116+1043614450
2091.72+1045256456+1046753097+1048071118+1049116179+1049814193+1050184695
2085.93+1050230689+1049939501+1049304207+1048288610+1046863574+1045055362
2080.15+1042963019+1040750985+1038606179+1036675011+1035068089+1033895499
2074.36+1033231719+1033083806+1033417851+1034219157+1035497782+1037209040
2068.57+1039174247+1041106526+1042773488+1044124241+1045111026+1045469114
2062.79+1045027335+1043943335+1042474722+1040848592+1039202013+1037556545
2057.00+1035875405+1034145265+1032443088+1030898101+1029636070+1028748330
2051.22+1028282900+1028248078+1028613680+1029327243+1030326114+1031537904
2045.43+1032868861+1034204718+1035367182+1036214677+1036757984+1036885252
2039.64+1036346911+1035155570+1033483119+1031412661+1029020114+1026464562
2033.86+1023963497+1021735130+1019955730+1018758182+1018206775+1018262503
2028.07+1018875454+1020064444+1021821631+1024031508+1026578959+1029399762
2022.28+1032367760+1035289893+1038030141+1040525849+1042727233+1044685579
2016.50+1046306548+1047192916+1047225909+1046774265+1046062465+1045090250
2010.71+1043860624+1042441533+1040992585+1039768317+1039050376+1039052532
2004.93+1039840117+1041298016+1043257734+1045660147+1048535045+1051848587
1999.14+1055391708+1058808214+1061793133+1064178689+1065800834+1066447627
1993.35+1066287236+1065928821+1065320508+1063753504+1061585767+1059802250
1987.57+1058531138+1057369981+1056293495+1055488662+1054991153+1054836707
1981.78+1055156706+1056107558+1057778767+1060090498+1062777108+1065515592
1975.99+1068073300+1070291736+1072037359+1073209558+1073741823+1073615731
1970.21+1072777905+1071151448+1068928243+1066409669+1063426188+1059632059
1964.42+1055205314+1050444327+1045448665+1040237732+1034813880+1028969220
1958.64+1022333708+1014859848+1007033191+999783030+994454433+992400374
1952.85+994150832+999057510+1005653627+1012381453+1018068727+1022017563
1947.06+1023939062+1023624812+1020732078+1015203628+1007539127+998263653
1941.28+987645528+976341475+965853688+958180629+954877540+956291404+961312350
1934.53+968100086+975098456+981434287+986880613+991735744+996469357+1001263664
1927.78+1005863998+1009733717+1012289857+1013204710+1012818071+1011690299
1921.99+1009524521+1005866742+1001089683+996225862+992015042+988058104
1916.20+983760913+979722832+976652524+974514186+973074842+972302283+972336060
1909.45+973100452+974205358+975457851+976770580+978100426+979448958+980633700
1902.70+981387312+981629239+981353797+980507216+979047227+976962985+974343472
1895.95+971480137+968570024+965490112+962321347+959590573+957878596+957846713
1889.20+959434558+961385718+963194453+965475151+968464120+971774918+974905332
1882.45+977586323+979794894+981506152+982706771+983427129+983675262+983444703
1875.70+982693770+981299897+979121902+976072696+972230287+968150523+964953143
1868.95+963467543+963408287+964283287+966018000+968450531+971306417+974380123
1862.20+977509100+980489380+983028273+984830213+985622894+985049535+982863634
1855.45+979225585+974801911+970653744+967836404+966868500+967519540+969199700
1848.70+971494445+973934554+975701150+976985851+979566687+983729946+987114373
1841.95+989352932+991978325+995514782+999558024+1003811768+1008002793
1836.16+1011575118+1014130343+1015794954+1016699354+1016803429+1016617754
1830.37+1016977410+1017218618+1015551329+1011982793+1008221331+1005511789
1824.59+1003447996+1000932492+997993568+995299510+993026653+990952602+988915203
1817.84+986934643+985003540+982859911+980124105+976530678+972015603+966795655
1811.09+961349655+956343017+952643751+951065836+951623777+953249907+954554339
1804.34+954556299+952921153+949919444+946063119+941850730+937793833+934551504
1797.59+933002793+933896413+937099478+941681910+947147510+953319552+959080063
1790.84+963070974+965191803+966140041+966494602+966454879+966096268+965444836
1784.09+964197179+961957640+958793972+955057009+950923934+946467070+942023208
1777.33+938142579+935237693+933434642+932810911+933686695+936045139+938761932
1770.58+940670430+942113955+944196695+947059768+949661968+951253668+951863744
1763.83+951793250+951366693+950542718+948595805+944995714+940215584+935140674
1757.08+930280969+925617981+921024246+916753450+913404171+911592823+911487833
1750.33+912479844+913882471+915516376+917242334+918842788+920361054+922047682
1743.58+923943113+925567283+926513235+927073593+927327280+926422161+923807156
1736.83+920036612+916129261+912813760+909807804+906026676+901403149+897166914
1730.08+894360092+893001108+892545216+892693848+893367820+894458418+895850526
1723.33+897366767+898673289+899511442+900045340+900861476+902277496+903317984
1716.58+902330938+899086714+894421832+888866726+882691091+876314035+870131671
1709.83+864321376+858970239+854303723+850607005+847856108+845651458+843621180
1703.08+841832372+841037730+842202416+844793313+846127210+845173941+843543107
1696.33+842674902+841901690+839614654+835719325+831148391+826505460+821831039
1689.58+816951734+811806853+806601342+801795145+797941629+795154407+792604212
1682.83+789377824+785941064+783405112+782251272+782068928+782364232+783260400
1676.08+785174320+787655916+789220111+789287795+788562603+787569285+786097209
1669.32+783694797+779965020+774962564+769323833+763707837+758459338+753622304
1662.57+749015894+744418173+739906822+735821767+732412382+729716168+727745539
1655.82+726841662+727841774+731392408+736160778+738815505+738461533+736918049
1649.07+735917414+735853911+735885728+734645060+731270694+725993775+719627107
1642.32+712794617+705766260+698700272+691776120+685095856+678592185+671980128
1635.57+664905516+657495616+650389774+643928243+638000611+632338621+626663043
1628.82+620690723+614135701+606902722+599074040+590526176+580763255+569408961
1622.07+556717635+543072124+528524827+512692110+494536850+473216516+450709839
1615.32+431480444+417376332+406893314+397502724+387043128+374265530+359150558
1608.57+342963770+327879766+316545496+311400778+313551562+322156036+334888621
1601.82+349059765+362726769+375090812+386216311+396457630+405895586+414225566
1595.07+421082621+426463582+430850932+434977898+439442666+444504184+450200244
1588.32+456491486+463360856+470806623+478781552+487142238+495596154+503733239
1581.57+511131803+517524702+522891551+527571787+532373084+538048271+543997006
1574.82+548517602+551372116+553613157+556123173+559423909+563725412+568431519
1568.07+572676966+576840421+582111002+589041426+596855931+604252633+610908267
1561.32+617934272+627018714+638207062+648292335+653833067+655018136+654421779
1554.56+653807064+652928013+650898977+647756737+644084062+640177234+635967328
1547.81+631423442+626794949+622392965+618402381+614925834+611991287+609516878
1541.06+607184894+604518733+600967315+596449627+591584957+586971360+582776612
1534.31+578672610+574034579+568411985+561869703+554614446+546554224+537349245
1527.56+526760976+514872751+502109003+489436884+477403654+464870105+450026035
1520.81+432614195+414498003+397024620+380164710+364818591+353222599+346020881
1514.06+341402777+336899135+330885852+323092613+313948458+303581863+291436587
1507.31+276691593+260102357+244549263+231686961+220465979+208891187+195438408
1500.56+178906958+158400947+135254655+113722668+97748106+89041491+87054399
1493.81+89074852+91797958+92886025+91533851+88091310+83305529+77537651+70749032
1486.09+63077896+54764740+45984475+37073386+28578844+21134042+15201221+10790801
1478.38+7539442+5062258+3161775+1789969+872438+321856+86469+23801+11795+9732
1468.74+9959+10545+10905+11017+11014+10987+10960+10922+10867+10844+11025+11725
1457.16+13145+14112+12458+11328+10929+10861+10903+10955+10994+11008+10946+10713
1445.59+10285+10005+11078+17255+42602+124195+308334+617201+1097570+1908924
1435.95+3207911+5014040+7389458+10542736+14667822+19906794+26365626+33814719
1428.23+41697758+49675815+57764864+66145820+74974275+83954249+92346238+99894708
1420.52+107319406+115476858+123987417+131665042+138228247+143956778+148957438
1413.77+153230324+156808496+159791683+162322785+164591445+166789236+169017619
1407.02+171273784+173535977+175743339+177659203+179033361+179791416+179836413
1400.27+178883749+176609013+173003891+168226555+161765024+152437561+139964446
1393.52+125884531+111352162+95962923+79498284+62555925+45496489+29168618
1386.76+16304120+8485260+4418595+2409659+1386628+707179+208898+35764+12411
1378.09+10037+10343+9929+9978+20986+150103+646209+1319576+1944425+2472202
1368.44+2741110+2638026+2369888+2332637+2948006+4934551+9254203+16158494
1360.73+24967197+34729352+44597508+53909310+61936334+68259356+72980894+76430826
1353.01+79172421+82026871+85670097+90180321+94957731+99158866+102362862
1346.26+104664907+106295169+107355755+107928380+108332830+109283118+111688201
1339.51+115994660+121849553+128729286+136400696+144411820+152143516+159380333
1332.76+166043986+171915139+176813128+180806799+184139516+186976212+189390678
1326.01+191435133+193236436+194936196+196545878+197846586+198497349+198278860
1319.26+197137008+195217290+192805845+190198386+187563977+184879491+182108667
1312.51+179395026+177080143+175372674+174193762+173375699+172864586+172765672
1305.76+173208088+174201945+175592191+177273021+179298758+181747949+184582815
1299.01+187542286+190284952+192786572+195551940+199147131+203597135+208383013
1292.26+212922016+217047382+221074193+225641175+231401065+238523126+246414429
1285.51+254168844+261147532+267023813+271739410+275471767+278515714+281043924
1278.75+282950364+284038414+284248230+283734650+282732578+281364642+279592102
1272.00+277356549+274694504+271634388+268132966+264089347+259433383+254201560
1265.25+248713371+243781507+240478859+239689216+241973441+247432524+255213105
1258.50+263701369+271478684+277558558+281036150+281255635+278707040+275192895
1251.75+272426873+270888713+270382712+271062286+273554515+278471255+285844242
1245.00+294940214+304674356+314197114+323182903+331666871+339707852+347219768
1238.25+354040008+360032353+365096026+369146879+372211275+374518988+376323215
1231.50+377655870+378256539+377745801+375982374+373291616+370296636+367513171
1224.75+365138459+363122097+361307973+359461541+357414897+355514436+354807079
1218.00+356320281+360042446+364919693+369780672+373984404+377318917+379765723
1211.25+381523074+382947914+384237907+385227795+385646904+385416019+384652998
1204.50+383537672+382215568+380820029+379499591+378404909+377570971+376835586
1197.75+376088475+375417900+374972952+374768428+374726615+374675166+374359838
1191.00+373690733+373046782+373144814+374394889+376517775+378641054+379811064
1184.25+379494005+377546275+373844330+367956616+359244963+347520135+333800015
1177.50+319802656+306677357+295114097+286015838+279697385+275092021+271067643
1170.75+268393071+269623253+276196992+286407376+297349650+307455730+316171369
1163.99+322849314+327104201+329207782+329563976+328318834+325569309+321859622
1157.24+318200405+315598434+314742053+315873419+318666815+322320119+326083803
1150.49+330027381+335444471+343854908+355318830+368356452+381436966+393892572
1143.74+405525673+416130405+425303960+432364853+436790422+438903737+439772825
1136.99+440269778+440598924+440579814+440096777+439303867+438517654+438134249
1130.24+438570541+440116736+442804326+446546221+451305118+457026625+463531635
1123.49+470392218+476988824+482887514+488285625+493834067+499694308+504973841
1116.74+508322074+508792077+505983981+500076308+491979762+482960915+473847238
1109.99+464760183+455715334+447218298+440225090+435659611+434012640+435205157
1103.24+438625779+443297261+448043809+451699956+453373615+452637741+449617150
1096.49+445021324+440155772+436471174+434434820+433206337+431913110+430451030
1089.74+428952691+427327998+425267472+422252990+417655335+411051248+402570121
1082.99+393278184+385261213+380692663+380435873+383908206+390197651+398644706
1076.24+408664907+419531525+430249740+439755316+447194877+451872401+453332847
1069.49+451757644+447869861+442374437+435710702+428197446+420211573+412263398
1062.74+404963224+398913126+394618646+392379402+392444474+394927703+399064305
1055.99+403496179+407605048+411785816+416705888+422573349+428622696+433460906
1049.23+436078720+436068463+433115068+426944136+417822325+406648121+394346667
1042.48+381434875+368117923+354626728+341629808+330323174+321710272+315778295
1035.73+311645057+308309269+304995858+300923477+296611260+296705241+307064878
1028.98+326742030+348205410+365525229+377448374+384639703+387826042+388083584
1022.23+387163929+386592594+386718066+386980964+386832659+386247279+385703123
1015.48+385772670+386660475+388227479+390332824+393090450+396612534+400497606
1008.73+403897354+405906628+405651406+402674784+398178493+395415999+397365395
1001.98+403863153+412091932+419426666+424809555+428183595+429693727+429611016
995.23+428516400+426899645+424629694+421391775+417718119+414969770+413947772
988.48+413919646+413555874+412465537+411368079+411176458+412141748+413677262
981.73+414819048+414782168+413053825+409109790+402290073+391853932+377308268
974.98+359217066+339489575+320479078+304277950+292304858+284353742+278791123
968.23+274289344+270569808+267676715+266670853+271290542+284865330+305277376
961.48+327309607+347965965+365871198+379016488+385668268+385788676+381593862
954.73+377806887+379535034+387542760+397124252+402907107+403235077+400300073
947.98+397861498+398853608+404092274+412330560+421533873+430426335+438865550
941.23+447075808+454904359+461897959+467923133+473247614+477973126+482011174
934.47+485788937+490055748+494581080+497987525+499162990+498216745+496095132
927.72+493578420+490472374+486014498+480291749+474425791+469136785+464092418
920.97+459066376+455186041+454663478+459253358+468715553+480584897+491452430
914.22+498534751+500256528+495942482+485971411+473175226+463250117+460629526
907.47+463215784+464204202+459478528+451358331+445571393+445244599+448303049
900.72+450818455+450768149+448164283+443762887+438342268+432447792+426405926
893.97+420752887+416438579+413878780+412138481+410024121+407682533+406316100
887.22+406307999+406203042+404273376+400628467+396523224+391998578+385750816
880.47+377174891+367239623+357462296+348802713+341518710+335560926+330662970
873.72+326261704+322356608+320855361+324545023+333894944+346371652+358995654
866.97+369888438+377803490+381885017+382284297+380845934+380443223+382678841
860.22+386561398+389839138+391396211+392339876+394344674+396924269+397665500
853.47+395119160+389942200+383434316+376485795+370245481+366662540+367514902
846.72+372969918+380435220+385695054+388914975+396605021+412211654+430725656
839.97+445865945+455505322+459535465+457513615+449894030+440211665+432774129
833.22+428263464+424781985+421197149+416809309+410670228+402797512+394535478
826.47+387359241+381740468+377135463+372563745+367435490+362038294+356335733
819.71+348920214+338461729+325224091+310662061+296715956+285221654+276899482
812.96+271082082+266823699+263833880+262120090+261128945+259626898+257069369
806.21+255453415+258655156+268978337+285716582+307015127+330476869+352545948
799.46+369561546+378751826+378179152+368410319+355732810+350252119+356652171
792.71+369098272+378135837+380357474+379473033+379321069+378359144+372211667
785.96+359038545+341069319+323201359+310595128+306289640+309653652+316683805
779.21+322902037+325847920+325100220+321798373+317737131+312902351+304472674
772.46+289995413+270353982+247474027+222008483+197646750+183353075+185133716
765.71+199297608+217263225+232895256+244081694+251338633+256190269+259859188
758.96+262684091+264069976+262980277+258585250+250620219+239587395+226848914
752.21+214588620+205229357+199497739+195589000+191254374+185261050+177089175
745.46+166708975+154558537+141466444+129413670+122594941+124869661+135291282
738.71+148745237+160647492+168765745+171838993+168992384+159790932+143607068
731.96+119706821+89427893+58038661+33209147+21180052+23686577+38878666+61434677
724.24+84256740+103798220+120941739+139691862+164012239+194856996+229967062
717.49+266203545+301271471+334220856+365321587+395319307+424690225+453188724
710.74+479818675+503449238+523659047+540348275+552419921+558114969+556733314
703.99+548693542+533753727+509907992+475157582+431831607+387791351+349839641
697.24+316126158+280553276+248405164+237574087+260138322+311156466+376363917
690.49+447647665+521527732+588961916+641526158+679783526+707674235+725555719
683.74+731015374+721299623+692992484+640377217+555560070+435623319+297502724
676.99+178969743+107953190+83663707+98849475+157937869+263628034+390619177
670.24+500804473+584643819+658348076+724261218+769538581+796088533+815371533
663.49+834864513+856208693+877972309+898400852+916437828+931373723+942503338
656.74+949315183+951707273+949884557+944270717+935650726+925073695+913491717
649.99+901728375+890650634+881089134+873689688+868981685+867403771+869115879
643.23+873896139+881290620+890787310+901822127+913660471+925357957+936023514
636.48+945143888+952447622+957479870+959606906+958442417+954061012+946816600
629.73+937084190+924992486+910454859+894665718+879812142+868028939+860564748
622.98+857525930+858331547+862428950+869439602+878618710+889837177+903428984
616.23+918657243+933922350+947775161+959204587+967433171+971709585+971694428
609.48+967577948+959793496+949157796+936822859+923672962+910208293+897016322
602.73+884806301+874066396+865298295+859380986+856960019+857706314+860863057
595.98+866255484+874316032+885265655+898468537+912551906+925352796+934833937
589.23+940487499+942391554+940512782+935416378+928061227+918973715+908294961
582.48+896230828+883183242+869833427+857159479+846222988+838008843+833351016
575.73+832592373+835290351+840775616+848659896+858421249+869281693+880583786
568.98+891501723+900646531+906986348+910533911+911591908+910065215+905686554
562.23+898292334+887771620+874215289+858007628+839757276+820619314+802825964
555.48+789276558+782193714+781960345+787066027+795283112+805019116+815417527
548.73+825773342+835586700+844810757+853758783+863088353+873433453+883971154
541.98+891678121+893090025+887535573+878523259+870563193+864606292+858442482
535.23+850583747+841404312+832148373+824687579+820701568+820404239+822949861
528.47+827768602+834795652+844227140+855874124+868799538+882416563+896392265
521.72+910267223+924243447+937781943+948082029+952556728+951017360+944860214
514.97+935998361+925981361+915500043+904745503+894097651+884323036+876261704
508.22+870561299+867728474+868172540+872082047+879377614+889987769+903800923
501.47+919237724+933766271+946340521+956563057+963590304+966900644+966609914
494.72+963190141+957210635+948746984+937401184+923296124+907041488+889126293
487.97+869811149+848159578+822293398+793446350+770568551+766247122+782854031
481.22+809028973+831791787+846591464+855829241+863010934+870124223+877740509
474.47+886015086+895382418+904999712+910879194+909038120+897644038+874239593
467.72+833195394+766517338+675660186+589479285+551174224+579082376+651593137
460.97+726320177+776706293+806262070+828726444+849750363+867933096+883460710
454.22+897675921+910678558+921535082+928912903+932190316+931556916+927157153
447.47+918897602+907326796+893833838+879084140+862997736+846113686+829356251
440.72+813597033+799619306+788219998+780253595+776072239+775310787+777179497
433.97+780815390+786286870+796445707+815246291+842094682+870679551+894418369
427.22+910437611+919072955+922129609+921695800+918709902+913106907+905589339
420.47+896464588+884674656+871562587+861570806+856297023+854995335+857340385
413.71+863117295+871719320+882689000+895852029+910852408+927059481+943549902
406.96+958934437+971670908+980926782+986889956+989668815+988429716+982581267
400.21+973441489+963275008
##END=
