##TITLE=Ñìåñü_5_250ìêì
##JCAMP-DX=4.24
##DATA TYPE=INFRARED SPECTRUM
##DATE=9/3/2017
##SAMPLING PROCEDURE=Instrument type and / or accessory
##ORIGIN=Default
##XUNITS=1/CM
##YUNITS=TRANSMITTANCE
##RESOLUTION=2
##FIRSTX=3998.2792
##LASTX=399.2493
##DELTAX=-0.96437028
##MAXY=0.9491384
##MINY=7.2222815e-006
##XFACTOR=1
##YFACTOR=8.8395402e-010
##NPOINTS=3733
##FIRSTY=0.73822117
##XYDATA=(X++(Y..Y))
3998.28+835135256+836366925+837545391+838780769+840059503+841210931+842243884
3991.53+843414799+844934999+846703744+848540526+850471911+852570724+854823074
3984.78+857189650+859545909+861848022+864143123+866414218+868623009+870704627
3978.03+872508705+874015689+875388623+876662772+877682779+878433473+879037237
3971.28+879450580+879684224+880009504+880481106+880877727+881188712+881571106
3964.53+882001037+882394556+882972899+883946110+884976029+885732657+886379374
3957.78+887114693+887893842+888551146+888996855+889313572+889518760+889433192
3951.03+889140750+888995304+888957746+888973524+889203594+889301300+888827742
3944.27+888211435+888420130+889598462+890618941+890842335+890849887+891210029
3937.52+891834022+892368469+892577028+892424772+892263481+892756661+893920630
3930.77+894933490+895355666+895280078+894691687+893750640+893117274+893314641
3924.02+893908358+893978957+893351390+892734476+892689636+892874460+893016399
3917.27+893703979+895032274+896105011+896492327+896590369+896780453+897095687
3910.52+897401615+897516177+897262103+896618015+895874469+895495448+895718775
3903.77+896206965+896457128+896462590+896437911+896696166+897448411+898066942
3897.02+897870250+897108633+896404736+896082625+896319572+897501882+899608517
3890.27+901362091+901512526+900355435+899317896+899826652+901813532+903311817
3883.52+902972714+901504030+900559948+901249618+902850801+903533795+902761389
3876.77+901438826+900702697+901278478+902733676+903513431+903189837+903482211
3870.02+905895448+909097881+910525905+909975680+909456876+910551865+912590666
3863.27+913980389+914564464+914887857+914745378+913857533+912549264+911073703
3856.52+909204959+907478425+908005522+911707810+915856550+917716190+917182620
3849.77+915638011+914362513+913740880+913539602+913564686+913960363+914868302
3843.02+915785951+916121211+916187292+916509336+917257399+918697830+920312634
3836.26+920816670+920223020+919276376+918205864+917502708+917605606+917752737
3829.51+917151130+916304822+916180684+916878715+917458205+917095366+916123976
3822.76+915991679+918198177+922211450+925116047+925238499+924003526+924117954
3816.01+926661128+929599574+930666108+930117973+929285689+928720967+928228461
3809.26+927731842+927921724+929649337+932079769+933029110+932049021+930916878
3802.51+931765008+935075665+938658198+940058576+939600661+939329527+940450679
3795.76+942247744+943353050+943496270+943306119+943218730+943221899+943167281
3789.01+942968027+942647737+942368983+942417734+942972814+943761403+944251414
3782.26+944350333+944666511+946016518+948445399+950807120+952166028+952821106
3775.51+953441054+954212313+954917087+955383430+955901357+957149411+959101834
3768.76+960380299+960104647+959289895+959279579+959841065+959828523+958926180
3762.01+957742926+957185958+957923772+959518751+960785011+961466589+961884720
3755.26+961738937+961023307+961099638+963275388+966645855+969581402+972036175
3748.51+973442622+972340215+969443778+968119057+971043814+975954913+978296877
3741.76+977771735+976468254+975323098+974264993+973539788+973843625+975699894
3735.01+978589049+981060410+982648444+984092651+985311238+985502806+984814485
3728.26+984230275+984630874+986092815+987709304+988616973+989036722+989685058
3721.50+990373783+990344452+989796923+989341369+988808878+987803705+986428344
3714.75+985037609+984212271+984935925+987387530+990009664+991744762+992908124
3708.00+993568327+993671697+993628002+993697792+993813771+994225833+995405446
3701.25+996932861+997575667+996996110+995938207+995072209+994473569+993805342
3694.50+992737999+991342544+990257198+990275539+991347939+992788099+994509981
3687.75+996040228+996215140+995230399+994361299+994219090+994516724+994909771
3681.00+995424866+996121413+996498412+995970843+995457839+997139128+1001096569
3674.25+1003702520+1002495194+999183795+997194757+998080310+1000288359
3668.46+1001636815+1001442955+1000333132+999345086+999062219+999448928
3662.68+1000267253+1001289148+1002239838+1002773273+1002733220+1002625872
3656.89+1003455121+1005190691+1006102271+1005019959+1002691886+1000819771
3651.11+1000680731+1002075579+1003580742+1004379109+1004654693+1004301699
3645.32+1002999297+1001231833+999962809+999644204+999983172+1000463069
3639.53+1000883492+1001318750+1001702357+1001777743+1001520432+1001268043
3633.75+1001046065+1000027271+997525836+994378291+992512987+992623774+992666659
3627.00+990556922+986665898+982431591+978672797+975538265+973051328+971473610
3620.25+971252846+972368468+974015368+975322760+976058687+976816393+978449605
3613.50+981228108+984564995+987337227+989253171+991455624+994726093+998460478
3606.74+1001885428+1004540468+1006348861+1007801699+1009518591+1011851654
3600.96+1014843977+1018100892+1021050060+1023468219+1025608704+1028079795
3595.17+1031240894+1034723227+1037989785+1040578542+1042028412+1042622669
3589.39+1043626291+1046104867+1049799401+1053389756+1055448314+1055633813
3583.60+1054985747+1054399784+1053882060+1053374787+1053020579+1052727598
3577.81+1052359028+1052003607+1051719863+1051515619+1051424252+1051366397
3572.03+1051218726+1050807541+1049844242+1048604886+1048302802+1049629209
3566.24+1051621753+1052655583+1052121339+1050761824+1049293747+1047722166
3560.46+1046058408+1044407058+1042631705+1040650354+1038546551+1036312340
3554.67+1034082646+1032343165+1031535089+1031386542+1030984392+1029911385
3548.88+1028694753+1028178580+1028874723+1030478198+1032259013+1033733091
3543.10+1034723429+1035290849+1035627323+1035976001+1036388333+1036748272
3537.31+1037167549+1037807995+1038246557+1038060721+1037517509+1037051368
3531.52+1036794731+1036711927+1036799856+1037154333+1037732676+1038302928
3525.74+1038792400+1039444646+1040471396+1041631589+1042319641+1042401365
3519.95+1042352681+1042506488+1042669196+1042569198+1042197256+1041655459
3514.17+1040895798+1039735807+1038091874+1036116861+1034284530+1032995209
3508.38+1031801638+1030071530+1027967255+1025955427+1024295108+1023096413
3502.59+1021910057+1020059250+1017488497+1014621998+1011504257+1007818084
3496.81+1003382027+998168845+992084269+985048937+977124074+968497943+959392928
3490.06+950055482+940852559+932281046+924613899+917820302+912046914+907617398
3483.31+904856763+904028256+904915764+906899407+909426803+912262891+915455546
3476.55+919041653+922908537+926836984+930497062+933737457+936715417+939557978
3469.80+942057188+943858974+945001366+945751992+946099996+945990693+945634058
3463.05+945318824+945191585+945162860+944951535+944457614+943937057+943653246
3456.30+943612317+943676375+943712584+943667069+943553720+943377594+943101875
3449.55+942605863+941904528+941372846+941003264+940075972+938477757+936770642
3442.80+935332032+934069481+932717990+931375939+930335298+929592899+929005857
3436.05+928589816+928293396+927923882+927604670+927754701+928455699+929289466
3429.30+929913998+930421541+930947963+931466564+931934525+932311861+932601606
3422.55+932870785+933159721+933403209+933404962+933090268+932709359+932506396
3415.80+932496551+932652313+933003487+933465312+933904278+934460303+935348485
3409.05+936388856+937295109+938118020+938985973+939843206+940666723+941509660
3402.30+942256510+942658728+942494874+941630831+940451218+939316985+938385108
3395.55+937395040+936174632+935070608+934413169+933809135+932716304+931336695
3388.80+930193292+929432619+928922244+928595480+928433514+928354150+928280045
3382.05+928242554+928212750+927951123+927341897+926603071+925801401+924701557
3375.30+923282165+921801209+920404945+919109488+917949429+916872579+915723174
3368.55+914470603+913254578+912172131+911245446+910529411+910058281+909860375
3361.79+909941425+910100896+910081409+909859094+909547030+909203206+908807664
3355.04+908286704+907599866+906830427+906063550+905157836+903839656+902113796
3348.29+900329879+898779403+897503973+896492192+895776831+895247240+894673953
3341.54+894137551+894008289+894319476+894626146+894647588+894516505+894363103
3334.79+894249214+894220085+894158117+893937960+893542215+892981471+892287688
3328.04+891573609+890993647+890437083+889606890+888554854+887619067+886962370
3321.29+886544509+886319833+886295154+886494071+886903099+887449009+888011170
3314.54+888514868+889011555+889515523+889950242+890312339+890616783+890788324
3307.79+890717928+890340187+889646134+888610214+887251508+885767788+884391550
3301.04+883220163+882257067+881515813+881082848+880960059+880957429+880925670
3294.29+880931199+881149738+881543999+881779328+881709673+881577242+881553304
3287.54+881517499+881317570+880913532+880304643+879530080+878639740+877628566
3280.79+876501143+875317687+874134095+873027306+872165691+871550801+870922425
3274.04+870304095+870009968+870024735+870048065+869878682+869504381+869086317
3267.29+868780457+868571358+868346952+867980000+867386485+866571329+865576540
3260.54+864421876+863091558+861610670+860127894+858690295+857078593+855227382
3253.79+853423775+851848621+850455256+849232151+848243835+847558886+847072853
3247.03+846444073+845490281+844399406+843305968+842128175+840806825+839300044
3240.28+837565216+835601869+833420455+831077614+828660196+826207243+823647414
3233.53+820794873+817545307+814075584+810695609+807527093+804498359+801591942
3226.78+798834881+796159141+793498909+790840228+788143720+785355372+782468577
3220.03+779517521+776406118+772929045+769086638+765044235+760859825+756485062
3213.28+751865327+747000890+741986219+736971145+732068475+727297968+722633864
3206.53+718047911+713542267+709211670+705137709+701260037+697485531+693813249
3199.78+690276433+686875488+683589577+680357947+677101503+673808175+670519905
3193.03+667247682+663959074+660668646+657439713+654278615+651164245+648120946
3186.28+645213045+642540946+640169718+638063487+636174313+634519119+633120495
3179.53+631973316+631090932+630447721+629938089+629508023+629166020+628875601
3172.78+628574056+628228479+627839073+627414874+626954937+626454272+625927175
3166.03+625410328+624939062+624547903+624271172+624123029+624113859+624272993
3159.28+624606634+625087003+625720908+626532625+627518918+628696103+630029523
3152.53+631302459+632288549+633029465+633722911+634428629+635050127+635495971
3145.78+635750046+635831703+635760093+635569065+635322071+635060444+634721678
3139.03+634201256+633509496+632776267+632122807+631573458+631104755+630721688
3132.27+630377190+629973759+629441470+628686528+627663150+626437752+625038521
3125.52+623405849+621490983+619346116+617082370+614646881+611817604+608538301
3118.77+604997237+601321246+597450047+593300026+588842325+584098182+579148379
3112.02+574058188+568871707+563665604+558441599+553149085+547894231+542863310
3105.27+538076687+533412078+528759774+524063405+519242629+514083423+508315767
3098.52+501811140+494576991+486607995+477893228+468520180+458670270+448574276
3091.77+438413852+428220388+417959124+407726888+397778936+388312835+379351377
3085.02+370750161+362202822+353369446+344041711+334139205+323629227+312542625
3078.27+300977441+289055690+276930723+264808941+252939971+241574564+230896838
3071.52+220929111+211543100+202600893+194018996+185779810+177986603+170817102
3064.77+164418423+158900071+154262332+150353255+146959339+143863158+140904879
3058.02+138000106+135103904+132237894+129487661+126910056+124502129+122256741
3051.27+120160305+118177833+116282919+114464014+112692682+110915567+109087863
3044.52+107179446+105178894+103091317+100904087+98571007+96053937+93373982
3037.77+90566585+87628914+84537521+81274891+77848701+74295238+70664813+67021867
3030.05+63465105+60106930+57023802+54232204+51702377+49390255+47242509+45201606
3022.34+43223155+41288946+39409325+37616815+35949396+34423637+33032002+31746715
3014.62+30540370+29401156+28310986+27236274+26135965+24988318+23799166+22569497
3006.91+21291390+19981254+18667602+17363525+16092649+14878185+13698106+12508885
2999.19+11304109+10118015+8976737+7859336+6740373+5651568+4653055+3774342
2991.48+3003407+2318006+1730699+1259131+893408+612691+403795+259263+157418
2982.80+81070+29700+8773+8170+9699+11272+11321+15739+35856+57837+81752+100539
2971.22+104815+91506+79945+88803+111245+117556+109141+105049+93653+80555+83912
2960.62+83785+63758+46522+52169+76620+103769+121015+116182+110624+107574+98389
2950.01+82755+76005+88741+104699+113067+118540+114960+86906+49795+42122+71078
2939.40+114023+147577+158013+141053+118188+110327+105683+90455+79962+99342
2929.76+135277+135710+96486+71644+73020+74312+81338+96762+97493+83390+71235
2919.15+76980+98127+102311+81750+65155+69584+82593+79974+67662+62158+61091
2908.54+56277+41392+25966+27254+39563+45556+54018+82035+113787+117602+97361
2897.93+86294+84643+81710+82860+81683+72916+55321+31846+24146+44152+75307+79670
2886.36+50486+30162+34704+44395+55200+72891+88568+96065+92005+71349+52176+57660
2874.79+77414+83592+70230+50443+42252+58391+81173+79388+60539+54522+63561+63573
2863.22+57983+69551+87266+94791+98264+100475+100704+93066+75551+69272+89489
2852.61+114460+114522+91349+66659+50287+40378+48554+72413+87586+78363+56089
2842.00+35277+16935+11335+11285+11319+11311+11313+11317+11218+15653+77585
2831.39+169950+296438+495541+787256+1183516+1693510+2309622+3035693+3907457
2822.71+4953264+6186784+7611446+9201450+10955867+12906763+15063545+17432002
2815.00+20026881+22837321+25837492+29031496+32438999+36069446+39915296+43964488
2807.28+48230597+52715696+57390408+62221029+67177693+72231017+77336413+82451284
2799.57+87568742+92701464+97842759+102988934+108168638+113431331+118841121
2792.82+124464318+130336397+136465577+142907445+149746051+157000108+164642930
2786.07+172640263+180930527+189434948+198088421+206814837+215522473+224144086
2779.32+232626153+240902763+248918235+256670495+264160421+271343778+278207198
2772.56+284777553+291032421+296914270+302408162+307502938+312177662+316439717
2765.81+320274033+323654513+326611266+329212598+331540099+333700205+335831418
2759.06+338081374+340525595+343118937+345728158+348180572+350332115+352083969
2752.31+353380842+354196571+354485170+354226712+353451339+352164918+350341690
2745.56+347966685+345011011+341403225+337058232+331920975+325959694+319112019
2738.81+311337928+302701818+293324724+283365847+273121761+263076322+253837323
2732.06+246084777+240461908+237341386+236703789+238208800+241311993+245426276
2725.31+250127652+255230149+260675087+266399571+272323529+278398833+284650752
2718.56+291225439+298343810+306183139+314762642+323884448+333215960+342421041
2711.81+351213520+359371487+366774985+373378836+379143525+384050443+388122751
2705.06+391398210+393922301+395757026+396989268+397734904+398099327+398172994
2698.31+398031931+397690839+397108450+396238001+395075043+393640715+391965731
2691.56+390112159+388162736+386238768+384455593+382863648+381468935+380240840
2684.81+379128421+378073350+377019358+375932056+374796340+373597543+372318269
2678.06+370934851+369433261+367837170+366167613+364439157+362737707+361245726
2671.31+360188498+359800104+360290654+361716385+363890314+366480419+369180670
2664.56+371762515+374090285+376231039+378552943+381602311+385712851+390747615
2657.80+396209546+401568815+406560424+411217077+415657652+419911986+423948624
2651.05+427723264+431198989+434397174+437368997+440146860+442740033+445153202
2644.30+447382424+449401502+451195567+452802515+454312600+455798377+457265105
2637.55+458679946+460015086+461259599+462418984+463507095+464536340+465520980
2630.80+466480941+467460558+468501232+469596727+470726341+471895604+473121878
2624.05+474409041+475782750+477286834+478902379+480574127+482283568+483999752
2617.30+485636773+487122483+488439079+489641483+490843786+492125218+493478597
2610.55+494855071+496226757+497606804+499036210+500548925+502204254+504102565
2603.80+506286811+508733864+511389140+514185782+517121632+520251443+523611560
2597.05+527214491+531047896+535039221+539086917+543105855+547040404+550903478
2590.30+554768137+558711385+562791582+567044163+571480018+576120656+581003164
2583.55+586142781+591520290+597099616+602858641+608779092+614822805+620943927
2576.80+627100450+633249218+639366362+645427674+651362758+657113219+662663550
2570.05+667990419+673052425+677826371+682328307+686608736+690734145+694745868
2563.30+698667167+702549493+706448001+710353117+714232678+718136850+722117825
2556.55+726144719+730162106+734125414+737991422+741715692+745271321+748646036
2549.80+751816036+754736276+757379717+759768882+761948476+763959832+765819068
2543.04+767550323+769185355+770749519+772284958+773810822+775326504+776873877
2536.29+778537702+780395454+782493189+784854033+787482505+790332551+793298711
2529.54+796307081+799345997+802401164+805412501+808309546+811044017+813580381
2522.79+815910747+818058177+820070140+821993434+823855839+825691070+827549024
2516.04+829465777+831454073+833563270+835825600+838199526+840672101+843241707
2509.29+845847591+848448956+851065089+853674411+856204706+858610054+860870630
2502.54+862952519+864810608+866427704+867805762+868965281+869961553+870852433
2495.79+871671702+872439186+873203972+874025197+874920999+875886860+876938154
2489.04+878097336+879359281+880683058+882011218+883310047+884540704+885636165
2482.29+886554151+887285425+887834302+888207929+888425187+888520398+888509879
2475.54+888388640+888154120+887826615+887455348+887107006+886840997+886710655
2468.79+886753540+886995410+887470519+888180755+889081547+890150980+891402945
2462.04+892797321+894209701+895519925+896665688+897595003+898242798+898583453
2455.29+898621753+898366667+897847796+897097642+896151605+895095456+894027439
2448.54+892990237+892012980+891133698+890381724+889782477+889343780+889066645
2441.79+888937652+888916277+888956667+889023625+889077366+889080198+889002115
2435.03+888781283+888367400+887756690+886959201+885972504+884779068+883379095
2428.28+881811829+880127303+878376832+876656366+875080537+873711649+872566695
2421.53+871667791+871044944+870677453+870501529+870462892+870524792+870648998
2414.78+870781767+870872527+870902938+870871043+870738140+870461813+870033568
2408.03+869465272+868775467+868000634+867206583+866432357+865704185+865104129
2401.28+864725782+864584517+864601441+864897390+865569258+866637208+868066917
2394.53+869791024+871724162+873768560+875821251+877781024+879561300+881105437
2387.78+882381609+883371678+884068090+884461811+884561810+884439762+884227494
2381.03+884054537+884038421+884365387+885188567+886463930+888019328+889857122
2374.28+892177845+895121079+898696465+902738935+906814986+910603921+914376741
2367.53+918619275+923121480+926947434+929461074+931009122+932493045+934182965
2360.78+935352328+935223470+933690594+931084373+927803453+924255511+920653827
2354.03+916863611+913113987+910294891+909143059+909139283+908752844+907217405
2347.28+905543871+905723031+908562356+912840830+916308598+917842486+917838170
2340.53+917147759+916046701+914395756+912160128+909447436+906741757+904614354
2333.78+903320852+902605357+902331661+902529364+902799824+902690925+902393965
2327.03+902431659+902764221+903067857+903466231+904152596+904876250+905355338
2320.27+905775828+906392944+907027456+907271888+907017409+906408453+905693767
2313.52+905091621+904656902+904321912+904074176+903950442+903930416+903995148
2306.77+904250841+904896142+906003201+907482471+909208196+911163586+913359026
2300.02+915703148+918004924+920110952+921935057+923423160+924567979+925390283
2293.27+925917852+926117781+925966401+925517185+924869929+924102648+923256811
2286.52+922437744+921818403+921570532+921813211+922635380+924108919+926209889
2279.77+928823257+931756781+934776278+937718837+940498284+943043413+945256924
2273.02+947093773+948577831+949727977+950555473+951040089+951204145+951102529
2266.27+950814874+950387910+949893044+949468103+949203307+949135608+949304047
2259.52+949793586+950617036+951733063+953082396+954605832+956260015+958012172
2252.77+959845717+961724642+963259542+963907742+965207785+966252201+966990960
2246.02+967406798+967478610+967262566+966855898+966332847+965765360+965225991
2239.27+964775156+964477725+964410969+964623035+965095245+965810538+966764127
2232.52+967925264+969246007+970671468+972136645+973563658+974883726+976029422
2225.77+976923673+977496016+977703631+977546790+977049025+976248906+975221346
2219.02+974052117+972815122+971601255+970507345+969614914+969031244+968845610
2212.27+969067521+969665014+970609703+971844203+973242086+974686697+976116137
2205.51+977477540+978709815+979738386+980483618+980875384+980868236+980452870
2198.76+979655785+978558099+977269587+975863411+974412394+973045326+971871715
2192.01+970935590+970278758+969954220+970005466+970443489+971233224+972308456
2185.26+973589146+974989321+976408309+977722242+978831728+979670417+980170407
2178.51+980334801+980264067+980036695+979668192+979170427+978577586+977924463
2171.76+977238839+976609586+976207167+976143446+976422739+977028257+977959594
2165.01+979214998+980746863+982498211+984460075+986567923+988659521+990628667
2158.26+992423575+993946337+995144898+996017774+996535431+996704207+996598342
2151.51+996322690+995987633+995723444+995680828+995976911+996663007+997762919
2144.76+999287906+1001202501+1003430105+1005870853+1008440325+1011097859
2138.97+1013832533+1016599506+1019343080+1022040533+1024538529+1026603829
2133.19+1028155991+1029198250+1029704983+1029679562+1029204318+1028380396
2127.40+1027321887+1026174236+1025082955+1024167936+1023516701+1023193916
2121.61+1023232890+1023668620+1024542305+1025842415+1027486550+1029371004
2115.83+1031444734+1033663571+1035891242+1037928087+1039634123+1040947449
2110.04+1041828146+1042244322+1042190850+1041721945+1040907530+1039797033
2104.26+1038448037+1036974431+1035527392+1034213594+1033136002+1032427520
2098.47+1032106420+1032236761+1032822185+1033811040+1035131041+1036714153
2092.68+1038465096+1040244900+1041963882+1043550028+1044848317+1045735421
2086.90+1046216463+1046277959+1045861042+1044946090+1043584215+1041867728
2081.11+1039880578+1037723708+1035547621+1033523722+1031774599+1030379211
2075.32+1029421644+1028962246+1028992522+1029448144+1030264177+1031370156
2069.54+1032658196+1033980760+1035161856+1036085304+1036767961+1037195195
2063.75+1037149410+1036492646+1035336634+1033803488+1031971965+1029919342
2057.97+1027712102+1025413495+1023107134+1020919988+1018978219+1017366719
2052.18+1016141389+1015348080+1015000278+1015070472+1015505730+1016214145
2046.39+1017084594+1018006963+1018863116+1019501337+1019831607+1019890136
2040.61+1019581444+1018702162+1017295986+1015513282+1013404423+1011044657
2034.82+1008575925+1006143606+1003896515+1001989876+1000576755+999777580
2029.04+999628493+1000135631+1001336551+1003235975+1005756627+1008811996
2023.25+1012337754+1016202008+1020189052+1024104215+1027838667+1031356536
2017.46+1034751345+1037923232+1040402753+1042009869+1043051724+1043685157
2011.68+1043911653+1043813408+1043534519+1043242617+1043124885+1043339783
2005.89+1043994254+1045153638+1046822655+1048954037+1051465788+1054258789
2000.10+1057243761+1060300816+1063205277+1065739955+1067801075+1069266657
1994.32+1069918768+1069876220+1069683237+1069231931+1067769518+1065567336
1988.53+1063505069+1061707195+1059892328+1058180965+1056866560+1056045538
1982.75+1055745678+1056000090+1056820304+1058196474+1060064543+1062293697
1976.96+1064708013+1067121857+1069354383+1071250435+1072682302+1073535758
1971.17+1073741823+1073225110+1071935048+1070121259+1068140178+1065857418
1965.39+1062951540+1059640546+1056311615+1053175668+1050345109+1047909215
1959.60+1045821326+1043886502+1042026996+1040429118+1039380723+1039078436
1953.81+1039586720+1040827829+1042525031+1044169571+1045210616+1045252085
1948.03+1044060335+1041515476+1037502944+1031849648+1024602182+1016235318
1942.24+1007324095+998197907+989374679+981887906+976757729+974441726+974821691
1935.49+977229871+980702022+984379294+987722385+990518285+992841571+994904511
1928.74+996833402+998541798+999720467+999939208+998883059+996717828+993779786
1921.99+989775953+984376867+977968427+971416902+965304546+959490768+953703220
1915.24+948449377+944340017+941391321+939391630+938269939+938099881+938766558
1908.49+939892699+941298538+942896484+944623356+946460272+948250190+949768772
1901.74+950936585+951713306+951983361+951636369+950626409+949028125+947130994
1894.99+945177627+943112663+941025988+939360275+938586993+939328650+941555917
1888.24+944045552+946286034+948840671+951921731+955223150+958383102+961212987
1881.49+963701138+965838656+967600995+968949384+969833791+970232637+970128795
1874.74+969475874+968225191+966348895+963907675+961333821+959496432+958784713
1867.99+958508454+958230846+958313110+959085988+960619741+962845727+965593077
1861.23+968628285+971686014+974559930+977100541+979079667+980321180+980810044
1854.48+980595686+979773652+978513460+976987462+975285000+973513692+971931794
1847.73+970651037+969382282+968430042+969229959+971967397+974514954+976355309
1840.98+978674954+981875836+985595859+989592140+993630767+997189767+999893356
1834.23+1001855759+1003156948+1003695575+1003951875+1004789822+1005597224
1828.45+1004590972+1001747130+998766810+996942166+995910561+994589346+993036780
1821.70+991954333+991536202+991602620+992080965+993080541+994603438+996361058
1814.94+998030816+999461807+1000641487+1001641400+1002369977+1002323451
1809.16+1001078701+998897624+996198890+992935703+988868081+983926505+978300990
1802.41+972433066+966784355+961586884+956863712+952699733+949487860+947765237
1795.66+947626332+948654498+950672530+953596277+956550569+958420391+959002308
1788.91+958703663+957873132+956610649+954962805+952958932+950361882+946858444
1782.16+942528319+937696855+932549888+927167187+921818538+916946954+912913856
1775.41+909890718+908015906+907561903+908468629+909788090+910574319+911117599
1768.66+912304630+914190837+915836389+916561661+916368812+915518795+914318684
1761.90+912787763+910374525+906676418+902123033+897488599+893199403+889169340
1755.15+885186207+881403071+878328957+876525957+876185842+876826828+877890260
1748.40+879231030+880694386+882032661+883242415+884536861+885976482+887183269
1741.65+887850889+888283518+888559507+887877052+885711416+882604936+879608433
1734.90+877549673+876168581+874136523+871032672+867868607+865619089+864352829
1728.15+863667339+863416501+863643739+864320732+865348696+866514688+867435506
1721.40+867806841+867732399+867715407+868054308+867983237+866201478+862579633
1714.65+857823083+852340856+846308607+840036442+833848026+827922854+822373265
1707.90+817389747+813172432+809674185+806582405+803646386+800985682+799213903
1701.15+799027460+799941670+799901954+798188501+796037498+794464635+792830817
1694.40+789847935+785476340+780473066+775322997+770065648+764592457+758913942
1687.65+753267660+748068435+743734736+740317472+737195550+733725759+730277411
1680.90+727688924+726307899+725772036+725638998+725947083+726965742+728283383
1674.15+728718506+727856082+726279848+724399575+722005622+718686536+714126207
1667.40+708401840+702014574+695487256+689123050+682972731+676963273+671086515
1660.65+665505639+660459884+656102517+652454038+649509051+647459664+646781727
1653.90+647777190+649441082+649604599+647839360+645426797+643480038+642150394
1647.14+640718122+638117768+633725338+627727815+620661532+612934642+604793263
1640.39+596473667+588206936+580037708+571730114+562820105+553020396+543006025
1633.64+533881354+525813742+518366820+511168106+503971111+496533797+488665879
1626.89+480458317+472069741+463247356+453381465+442187717+430070690+417418508
1620.14+404307332+390635379+375850096+359246102+341731506+325817047+312413598
1613.39+300644373+289506524+278432683+267199202+256010258+245566125+236736188
1606.64+230214922+226398847+225310668+226619948+229821117+234393533+239937374
1599.89+246251985+253321167+261157714+269528439+277883604+285551341+292042989
1593.14+297256374+301521699+305432749+309579938+314403378+320105088+326666828
1586.39+333906910+341570821+349408633+357165192+364571083+371365928+377398144
1579.64+382701581+387630683+393001449+399642150+407104244+413727143+419120396
1572.89+424158734+429634454+436135002+444024499+452592438+460480114+467675962
1566.14+475275511+483899889+492897118+501098308+508282929+515627358+524921008
1559.39+536473043+547457456+554477920+557387304+558533742+559686990+560627228
1552.64+560387482+558906762+556725179+554155202+551180074+547817800+544330308
1545.89+541006907+537991254+535328291+533017986+531008786+529088089+526941165
1539.13+524158582+520644524+516842473+513193859+509803365+506379797+502424378
1532.38+497627775+492127848+486174760+479788370+472803138+465091319+456671017
1525.63+447652244+438394736+428985411+418528837+405940982+391430272+376504837
1518.88+361540124+345349575+328005069+312066572+299579188+290189687+282290278
1512.13+274447241+266173446+257500503+248163580+237369487+224259930+209587676
1505.38+196114353+185503820+177074803+169412174+161571513+152922271+142791820
1498.63+131119920+119016952+107864134+98853511+92682525+88736496+85755805
1491.88+82745690+79206286+75143300+70840290+66324064+61357467+55887474+49989135
1484.17+43709663+37171788+30596617+24316589+18726474+14051992+10235671+7109635
1476.45+4589493+2685735+1340233+490855+121561+28465+12570+9941+10137+10807
1466.81+11234+11372+11370+11338+11318+11310+11310+11312+11313+11313+11313+11313
1455.23+11313+11312+11312+11311+11312+11319+11335+11352+11330+11189+10855+10471
1443.66+10770+13875+26724+70664+171802+335664+572938+961105+1590443+2500080
1434.02+3765504+5551547+8036332+11393080+15786146+21127397+27027826+33188140
1426.30+39558142+46240691+53349745+60640345+67476444+73590110+79526459+86004519
1418.59+92815058+99090358+104605086+109527773+113876543+117599591+120711887
1411.84+123323999+125587964+127674126+129742427+131875949+134055416+136237126
1405.09+138368827+140285412+141834573+143018720+143817508+144071667+143594046
1398.34+142358332+140447066+137581747+132965266+126054467+117228113+106778349
1391.59+94337904+80024173+64654920+48622561+32627105+19339118+10685197+5774883
1383.87+3088320+1576317+624703+133983+21152+10444+10361+10904+10252+10204+22331
1373.26+182491+908885+1972229+2910378+3651861+4042716+4091853+4241801+5105677
1364.58+7292527+11493439+17834352+25218128+32573515+39446108+45566370+50785609
1356.87+54933662+57953634+60014093+61435959+62658512+64105791+66003356+68344886
1349.15+70913881+73341051+75300335+76590162+77077265+76690025+75551123+74126875
1341.44+73192917+73557205+75612264+79072910+83389440+88223812+93254581+98174344
1333.72+102953584+107620418+112067500+116137456+119707541+122697191+125099799
1326.97+127034303+128604258+129802540+130527122+130660792+130135575+128969153
1320.22+127270484+125177689+122887267+120595731+118418388+116401637+114540260
1313.47+112838920+111368154+110262081+109562103+109175985+109020408+109119883
1306.72+109578708+110480343+111801743+113393545+115155387+117123934+119363001
1299.97+121916795+124804180+127983501+131375917+134946414+138650835+142395452
1293.22+146094875+149719315+153353449+157183736+161400427+166070667+171087866
1286.47+176207760+181197397+185925002+190281830+194178214+197560414+200418568
1279.72+202777710+204662434+206083007+207023329+207490110+207525258+207215200
1272.97+206700746+206143221+205675833+205363263+205234658+205307836+205640669
1266.22+206310868+207351610+208783291+210660615+213087625+216220807+220159571
1259.47+224682359+229329774+233747187+237682495+240846088+242957663+243983165
1252.72+244241943+244153425+243940010+243685025+243532938+243697348+244407432
1245.97+245816474+247905830+250549255+253664889+257240208+261244884+265573627
1239.22+270056345+274517974+278776186+282617733+285846683+288380349+290302058
1232.47+291778833+292891050+293506918+293431768+292676961+291446844+289927723
1225.71+288281868+286775559+285700664+285240996+285419381+286124492+287253533
1218.96+288819754+290851980+293212892+295637727+297928579+300067108+302116057
1212.21+304044846+305687464+306854299+307481428+307621648+307348659+306724093
1205.46+305833180+304761184+303530628+302158841+300744135+299466041+298457328
1198.71+297705927+297254384+297366183+298318895+300063231+302223843+304266925
1191.96+305705974+306248344+305922254+305216975+304845067+305244924+306258121
1185.21+307310326+307869047+307720534+306863335+305226887+302706234+299328417
1178.46+295300950+290839977+285882488+280093760+273243134+265450618+257116339
1171.71+249143753+243236787+241233859+243569198+248765237+254929784+261163901
1164.96+267107144+271998772+275017695+275942711+274998983+272527150+268968824
1158.21+264995115+261388037+258849971+257943532+258937494+261734692+266080714
1151.46+271677925+278058988+284695390+291290946+297890616+304715838+311935388
1144.71+319566258+327415128+335191208+342519960+348832717+353562227+356501718
1137.96+357955500+358508861+358730434+359018730+359649870+360845903+362698665
1131.21+365202123+368383754+372341027+377121346+382666821+388869061+395633933
1124.46+402922632+410631417+418491312+426160921+433417894+440130441+446013469
1117.71+450563313+453284838+453931117+452447363+448967255+444010709+438431991
1110.95+432935671+427816991+423162597+418988605+415421345+412846310+411777619
1104.20+412551677+415082477+418903745+423308110+427496937+430769597+432591072
1097.45+432503717+430232015+426179498+421444289+416859415+412456163+408134804
1090.70+404067081+400322817+396699489+392935840+388894651+384584957+380130694
1083.95+375707887+371558675+368066970+365625682+364322504+363900361+364123654
1077.20+365143763+367498269+371529647+376777050+382191949+386759931+389684925
1070.45+390361649+388632451+384875443+379594764+373168860+366120480+359193575
1063.70+353048448+348173626+344929691+343542293+344068952+346378887+350196210
1056.95+355182526+361099606+367800083+375053011+382584658+390107304+397075072
1050.20+402748023+406606816+408377550+407837169+404825124+399392728+391878511
1043.45+382796185+372733973+362284344+351862530+341681979+332010824+323123674
1036.70+315062198+307846290+301873310+297900427+296550588+298214076+303616635
1029.95+313300061+325898839+338395562+348505346+355605681+359813252+361300951
1023.20+360424839+358208428+356264569+355660905+356114201+356689577+356846149
1016.45+356729765+356857443+357690603+359434163+362160611+366211881+371992787
1009.70+379202155+386952949+394522222+401440362+407289372+411922963+415585603
1002.95+418613326+421151443+423162260+424532901+425212018+425332751+425065696
996.19+424533440+423905772+423350456+422921671+422630072+422623599+423157169
989.44+424387860+426227069+428460842+430999397+433840509+436821705+439475430
982.69+441170913+441375393+439747845+436127619+430588144+423441823+415096300
975.94+405897389+396024688+385695994+375559407+366666761+359856643+355145035
969.19+351912226+349553505+347742414+346394295+345972860+347804213+353083477
962.44+361353479+370806633+379793243+387437970+393468837+397953410+401052574
955.69+403001457+404287070+405615129+407329897+408950432+409604701+408795479
948.94+406772962+404489561+403203510+403763074+406123582+409687201+413926734
942.19+418536220+423330632+428205756+433095007+437942621+442696810+447296856
935.44+451709751+455965299+460003218+463562859+466361456+468248237+469254927
928.69+469531017+469125900+467877509+465564236+462082611+457361664+451291957
921.94+444020116+436430108+430419334+428511313+432490468+441951680+454457472
915.19+467112554+477771484+485148179+488510049+487621192+483036891+476451618
908.44+469897092+463885847+457109309+448228497+437391687+426104010+415738466
901.69+406339255+397164821+387807618+378401698+369211620+360451406+352359587
894.94+345128338+338829202+333410426+328722621+324681364+321421920+319219333
888.19+318216250+318111499+317958737+316534725+313079263+307557961+300292323
881.43+291559451+281833948+272224897+264118007+258273532+254476000+252012780
874.68+250270737+248998510+248342824+248748987+250680743+254333555+259517995
867.93+265644815+271863525+277351298+281558162+284411747+286586924+289222005
861.18+292817384+296740639+300037709+302367771+304058366+305467981+306452723
854.43+306557441+305763188+304840785+304793180+306045920+308375848+311693248
847.68+316562203+323360014+331084612+338152546+344645509+352246710+361377753
840.93+369958875+375226136+375503069+370587116+361424044+349711864+337557244
834.18+326497344+316787620+308365430+301413812+295314705+288746424+281117206
827.43+272838877+264473243+256218245+248028586+239843495+231880703+224626966
820.68+217855604+210126067+200173546+188228380+175648819+164125745+155035817
813.93+148709979+144499676+141765255+140455368+140649953+141915387+143392078
807.18+144677218+146678831+151262997+159865039+172748538+189415494+208714968
800.43+228493243+246225721+260019688+268926967+273483841+275962366+278665686
793.68+281573148+282300106+278815379+272337740+266849512+264593656+262917222
786.93+257050966+244822545+228228515+212105901+201262567+197962210+201097331
780.18+207008039+211906039+213856406+212818935+210022563+206967565+203689122
773.42+198412505+190140868+180742213+172602739+165385566+157646673+150122072
766.67+144942351+143004139+143562827+145256556+146912492+148039324+148674696
759.92+148852458+148364133+146774177+143552847+138284760+130895818+121812599
753.17+112053904+103167192+96729067+93111605+91007153+88877837+86038293
746.42+82397905+78156306+73791253+69927045+67258187+66833115+69647617+75614506
738.71+83433202+91520553+98618696+103779722+106543753+106920575+104839580
731.96+99770570+91476834+80975832+70631532+63479876+61024179+61673509+62414269
724.24+61666349+60644723+61571728+66834586+78489156+97459000+122873132
717.49+152519480+183887702+215186084+245819627+275918874+305634532+334660571
710.74+362138528+387128974+409298031+428594319+444174159+454637813+459260414
703.99+457919003+449713465+432435614+404978998+371908972+344369789+333941333
697.24+345200825+373674851+411110943+452867180+497221309+540575897+580491374
690.49+619194939+658218053+694739057+726222398+753763402+779152390+802105148
683.74+821091631+834665744+841466219+839571920+826048581+797856613+755346109
676.99+706201276+664978947+646373711+656579649+689357368+729870406+763395649
670.24+782991426+792178503+800849879+813267845+825024326+833811614+841791364
663.49+851561371+863886081+877614877+891081306+903037446+912625729+919126547
656.74+921993383+921030893+916394099+908514885+898157905+886255978+873549953
649.99+860649057+848362107+837631836+829206308+823574321+821047532+821705780
643.23+825329715+831499993+839767601+849712721+860811697+872254226+883028191
636.48+892197737+898992953+902822076+903522939+901461819+897134728+890719411
629.73+882030773+870703144+856857964+842491283+830276551+821400998+815198893
622.98+810941861+808937113+809982339+814427633+821668424+831490148+844099411
616.23+858560223+873095478+886182007+896793265+904282668+908122243+908079020
609.48+904429125+897569851+887935716+876283076+863405780+849977720+836766984
602.73+824571739+814069582+805816607+800385357+798187692+799066771+802585449
595.98+808596459+816999869+827132377+837975322+848877606+858962913+866769437
589.23+871468604+872966889+871418437+867293500+860967190+852414220+841806334
582.48+829749116+816779375+803499727+791049395+780586954+772762629+768057056
575.73+766842919+768940720+773848110+781152082+790247050+800367151+810879219
568.98+820944500+829301991+835181445+838888723+840995965+841485167+839941434
562.23+836108804+829953765+821604096+811441784+800110784+788486262+777692135
555.48+768873358+762886421+760060313+760165840+762925328+768333112+776115025
548.73+785521249+796011605+807472475+819467252+830744714+839905696+846010028
541.98+848084432+844995281+837054032+827248019+818954046+812423087+805524974
535.23+797181980+787929900+778956372+772214629+769557836+771142701+775851982
528.47+782938493+792348898+804319805+818407462+833180945+847992997+862744835
521.72+876572349+888697265+898599973+905251968+907830947+906307106+901115501
514.97+893033392+882936689+871732389+860337128+849548733+840068471+832420744
508.22+827013836+824336275+824688999+828032899+834400543+844108245+857209272
501.47+872001028+885841960+897688460+907150515+913394224+916019460+915379755
494.72+912185549+907169867+900494272+891788777+881020813+868477361+854670346
487.97+840606762+826855511+813244312+800321164+790561474+787157899+790266740
481.22+796178426+800840911+802815721+803183752+803910575+806707486+812703055
474.47+822655255+837356858+855634050+871594428+879767432+879777074+872847876
467.72+859076666+837751052+810079033+783349949+768628791+770393828+782223942
460.97+794488978+802940129+809518153+817883804+828589530+839334770+849540236
454.22+859684746+869187462+876902686+882085391+884507866+883875983+879838233
447.47+872433387+862133789+849636189+835239233+819160043+802455242+786257377
440.72+771108312+757527321+746597121+739704065+737619548+740124017+746336641
433.97+755493105+767239674+781626988+798557139+816677758+833604268+847321466
427.22+856820203+862079980+864059240+863982842+861789156+856789051+849910829
420.47+842410773+833940404+824700664+817213217+813219902+812815257+815734621
413.71+821793843+830980313+843050275+857257619+872978150+889698999+906350126
406.96+921791229+935324682+946303229+954124655+958258695+958089244+953582454
400.21+946059606+937369552
##END=
