##TITLE=Íåôòü_3_250ìêì
##JCAMP-DX=4.24
##DATA TYPE=INFRARED SPECTRUM
##DATE=9/3/2017
##SAMPLING PROCEDURE=Instrument type and / or accessory
##ORIGIN=Default
##XUNITS=1/CM
##YUNITS=TRANSMITTANCE
##RESOLUTION=2
##FIRSTX=3998.2792
##LASTX=399.2493
##DELTAX=-0.96437028
##MAXY=0.94150788
##MINY=4.7049925e-006
##XFACTOR=1
##YFACTOR=8.7684754e-010
##NPOINTS=3733
##FIRSTY=0.68373382
##XYDATA=(X++(Y..Y))
3998.28+779763630+781434754+783204103+785148694+786877461+788293403+789826195
3991.53+791760862+793921209+795957840+798008066+800327817+802887116+805545252
3984.78+808180820+810828692+813564252+816200228+818618749+820919195+822973431
3978.03+824711103+826433481+828001621+828976534+829566430+830101265+830344212
3971.28+830181477+830092021+830227293+830151772+829885849+829718424+829569285
3964.53+829298196+829393363+830230420+830931661+830993179+831165567+831815554
3957.78+832631742+833302258+833662192+833905886+834186831+834147201+833807660
3951.03+833895417+834260653+834471990+834846403+834893578+834061755+833179833
3944.27+833564986+835233730+836439898+836200962+835842728+836278250+837076221
3937.52+837720091+838032237+838100893+838269133+839152890+840610841+841585618
3930.77+841904357+842089728+841805656+840826937+840156897+840723613+841832983
3924.02+841944735+840809943+839700641+839615399+839924623+839805257+840190273
3917.27+841543948+842357826+842054585+841637143+841659372+841927401+842135748
3910.52+842086669+841616003+840708726+839750264+839315285+839678413+840304745
3903.77+840355863+839899335+839375104+839303865+840332139+841462581+841080623
3897.02+839776775+838730487+838171384+838040462+838919528+841230715+843283932
3890.27+842994625+841010268+839451373+840011564+842614095+844654329+844097469
3883.52+842220174+841241931+842476852+844922970+845811418+844479427+842631565
3876.77+841668005+842396912+844477591+845584582+844640258+844310982+847158363
3870.02+851277509+852579387+850767417+849325372+850675513+853550493+855084372
3863.27+855282999+855791935+856173077+855396247+854046582+852743345+850965091
3856.52+848904397+849147071+853226247+857881791+859553527+858429135+856286053
3849.77+854750950+854055759+853603786+853231005+853338203+854313524+855391420
3843.02+855372727+854818722+854820965+855319434+856689355+858672489+859159809
3836.26+858241929+857478693+856516968+855547697+855857940+856421326+855438052
3829.51+853831710+853406247+854316379+854981933+854051476+852106341+851189412
3822.76+853385923+858369452+862032070+861356252+858659981+858192170+861745687
3816.01+866339849+867806025+866676263+865609174+865299883+864997866+864320960
3809.26+864169034+866088202+869333923+870471502+868366556+865913911+866219260
3802.51+870071599+874834614+876210518+874415813+873185311+874510368+876948398
3795.76+878150350+877878242+877416141+877356254+877457742+877446050+877201812
3789.01+876704500+876098425+875796611+876220986+877075241+877385688+876838276
3782.26+876309559+877152394+879794963+882690268+883988747+884094246+884328831
3775.51+884947073+885515421+885689780+885766049+886783515+889100479+890737818
3768.76+889930399+888345605+888331330+889401613+889450420+888029312+886251126
3762.01+885250586+885942379+887826199+888947261+889056634+889340706+889207201
3755.26+887951071+887356145+889470540+893153959+895867224+898473086+901212182
3748.51+900692165+897088686+895509398+899702230+906572910+908493506+905855423
3741.76+903515891+902482927+901540506+900701886+900851569+902644370+905544161
3735.01+907352256+907393042+908150703+910083670+910702388+909617898+908723469
3728.26+909247293+911065584+912882924+913474452+913317563+913874287+915003098
3721.50+915099896+914274530+913824665+913406136+912167816+910358565+908449322
3714.75+906836182+906747065+908875328+911329060+912501239+913424626+914067339
3708.00+913658056+913000999+912792380+912626247+912562145+913585117+915552209
3701.25+916511147+915606046+914188881+913292276+912811822+912229539+911071974
3694.50+909281553+907465776+906666106+906903410+907276463+908474405+910883748
3687.75+911751667+910023579+908286995+907956699+908258853+908389571+908426958
3681.00+908791853+909069263+908132825+906806204+908329480+913609793+917452411
3674.25+914894472+908912239+905440497+906633545+909741071+911143213+910046827
3667.50+907760860+905870514+905048003+904919936+905036515+905221750+905385097
3660.75+905275723+904582435+903721314+904084850+905918301+906636468+904310259
3654.00+900475661+897603401+897015136+898227965+899284993+899065634+898618759
3647.25+898123146+896146198+892989729+890497863+889401817+889007284+888513030
3640.50+887860119+887414740+887132232+886512154+885476063+884738727+884624323
3633.75+883915333+881312733+878036015+876959886+879103579+881293088+879771580
3627.00+875584934+871585902+868626768+866223542+864043210+862325659+861829909
3620.25+862809648+864282214+865096703+864900660+864392947+864746490+866289615
3613.50+868352620+869681145+869596514+869733146+871575774+874119506+876105902
3606.74+877202220+877376103+877283520+877664458+878669688+880240003+882031920
3599.99+883466419+884365878+884988063+885952235+887805467+890092997+892094009
3593.24+893533946+893996591+893571536+893571876+895216421+898164611+901119123
3586.49+902665374+902173635+900862037+900029602+899393822+898648261+897981688
3579.74+897247546+896265836+895366308+894678051+894062663+893562360+893062124
3572.99+892357076+891485487+890358172+889245472+889238470+890694042+892469508
3566.24+893118000+892105225+890583309+889590178+888765221+887963443+887172270
3559.49+885886027+884235976+882704747+881080731+879155649+877433951+876593767
3552.74+876551621+876136016+874651283+872910484+872017006+872227120+873030189
3545.99+873791657+874347905+874543812+874379718+874077837+873758281+873446135
3539.24+872974041+872479991+872430708+872419153+871461710+869866379+868477492
3532.49+867430933+866482395+865541334+864836762+864487705+864212606+863696396
3525.74+863082980+862990193+863608027+863972447+863256455+862335175+862065174
3518.99+862031458+861649229+860932761+860098695+859211743+858187208+856823608
3512.24+854998723+853142024+851993229+851090847+849276769+846953619+844981566
3505.49+843541357+842793960+842423355+841332203+839385300+837411683+835712622
3498.74+833927162+832014656+829875585+827137033+823697852+819793579+815549901
3491.98+810934734+805917353+800815342+796166595+791930870+787824844+784102950
3485.23+781010039+778687909+777692400+777890958+778406896+779089852+780052053
3478.48+781181815+782452288+783957346+785668711+787215438+788370964+789353693
3471.73+790329082+791229085+791856844+792126097+792259126+792158046+791506427
3464.98+790546402+789816814+789361239+788866033+788275049+787695078+787159698
3458.23+786691071+786363970+786223396+786205858+786210548+786231689+786277913
3451.48+786299325+786147195+785731657+785701408+786312104+786306938+785095877
3444.73+783830366+783122804+782653497+781871568+780750235+779882996+779419739
3437.98+779133356+778915561+778834737+778911686+778987684+779097465+779577444
3431.23+780416676+781189428+781798154+782441343+783049321+783527737+783938040
3424.48+784265617+784440587+784574908+784903233+785118377+784771087+784188124
3417.73+783811877+783577427+783397631+783328295+783406400+783595849+783833833
3410.98+784213683+784843414+785585440+786264317+786923005+787645591+788369264
3404.23+789028904+789640349+790172329+790478357+790382103+789887170+789314947
3397.48+788766652+788010826+787048625+786267784+785926340+785749467+785264389
3390.73+784595437+784036470+783672390+783543847+783657571+783974068+784368601
3383.98+784700120+785008188+785407275+785841166+786082073+786066643+785966174
3377.22+785839059+785515833+784945922+784278804+783626914+783030220+782525022
3370.47+782084061+781649966+781219610+780857909+780654049+780566632+780527205
3363.72+780710809+781289421+782119817+782935733+783641733+784271123+784847628
3356.97+785459685+786054067+786412777+786537241+786653888+786837152+786916684
3350.22+786670950+786110827+785497955+785036670+784757492+784689924+784904048
3343.47+785314488+785709293+786103010+786745316+787668975+788631244+789487198
3336.72+790212299+790859975+791555642+792302495+793033850+793712387+794259254
3329.97+794661265+794964506+795245383+795580029+795900468+796024253+795961851
3323.22+795960491+796173528+796577510+797141235+797885913+798840161+799994871
3316.47+801266499+802570076+803922052+805278718+806462657+807478152+808504930
3309.72+809555976+810392625+810808707+810941736+810917333+810626803+810026030
3302.97+809282576+808606622+808074030+807673039+807444503+807490591+807787375
3296.22+808146424+808455036+808804365+809390998+810188357+810790897+811022627
3289.47+811214660+811544140+811824881+811945946+811923038+811733793+811371753
3282.72+810859825+810207391+809452244+808631297+807773779+807041337+806523768
3275.97+806052490+805605275+805332691+805198506+805192660+805297819+805304481
3269.22+805122849+804933332+804857062+804817704+804718663+804510520+804155821
3262.46+803652187+803017766+802238624+801271393+800190234+799137896+798043890
3255.71+796824059+795536796+794191618+792865269+791722251+790801856+790076551
3248.96+789586240+789215294+788722740+788075132+787283822+786232708+785031775
3242.21+783874007+782650846+781193235+779452844+777500163+775456803+773303117
3235.46+771032173+768693320+766131778+763184268+760007475+756893355+753976434
3228.71+751270647+748700200+746127306+743551353+741044668+738577953+736047136
3221.96+733382814+730655546+727895786+724857324+721363762+717555471+713596205
3215.21+709566652+705348329+700701146+695778387+690896550+686115386+681283783
3208.46+676402762+671640631+667007110+662434088+657997698+653786173+649755601
3201.71+645837528+642043036+638441257+635059515+631741740+628330021+624916603
3194.96+621582241+618296890+615030572+611750523+608483253+605304897+602216132
3188.21+599188614+596266935+593517235+590978873+588669930+586580754+584713315
3181.46+583088551+581718154+580685598+579986124+579381341+578791241+578373120
3174.71+578106790+577874175+577643193+577413434+577188025+576960985+576716747
3167.96+576466323+576240915+576066080+575959154+575950521+576089396+576382441
3161.21+576792472+577341855+578097137+579049414+580150082+581402133+582833301
3154.46+584464115+586247467+587994792+589537916+590923405+592283266+593633406
3147.70+594894294+596001760+596933644+597681041+598257002+598704965+599079173
3140.95+599411780+599658737+599742279+599687966+599614756+599591304+599629031
3134.20+599787415+599999161+600051163+599974146+599855799+599561055+598995970
3127.45+598229472+597290858+596118203+594710895+593190338+591511941+589461511
3120.70+587010838+584269907+581208197+577841343+574307064+570499792+566191707
3113.95+561467744+556493766+551279458+545921109+540617446+535492561+530574527
3107.20+525924284+521654843+517780548+514150354+510568593+506910121+502944432
3100.45+498285828+492688781+486126406+478624091+470178575+460737957+450524418
3093.70+440084042+429872440+420054895+410590723+401454060+392802815+384896757
3086.95+377872042+371603799+365727065+359789831+353415614+346365510+338538542
3080.20+329939978+320656351+310806245+300492883+289828560+278998477+268328699
3073.45+258221899+248909076+240276592+231994779+223808201+215699897+207809490
3066.70+200371447+193744376+188171953+183642045+180010934+177025527+174339164
3059.95+171660091+168835635+165842241+162693420+159380657+155958198+152530896
3053.20+149126315+145721241+142323423+138933083+135534144+132134890+128738849
3046.45+125322151+121902258+118510176+115127118+111714872+108233333+104651122
3039.70+100982624+97279050+93562110+89806204+85967153+81990995+77858382
3032.94+73628954+69388437+65238791+61347476+57850668+54773515+52075103+49675200
3025.23+47478864+45393162+43331232+41274501+39284770+37416303+35711799+34227446
3017.51+32970331+31892738+30940565+30055020+29160408+28190150+27122244+25956000
3009.80+24680675+23305921+21878971+20442767+19016767+17607314+16219302+14874862
3002.08+13601989+12405934+11253142+10103597+8960021+7853445+6792401+5777237
2994.37+4810097+3896449+3067231+2360235+1781594+1312504+931734+638328+427352
2985.69+275813+172686+105718+60147+32279+16512+5489+18440+62233+101545+94630
2975.08+76036+91828+121710+125904+114689+108520+115872+135092+138330+129137
2965.44+129776+128506+116514+104578+95874+92692+104627+127054+137338+124688
2955.79+104139+81959+68544+85542+104162+93673+83037+95166+122421+137241+122091
2945.19+100471+89239+81619+92137+118067+113074+75722+57397+76910+102774+101507
2934.58+81835+79157+101201+113881+101929+81550+71638+77040+75573+63556+66807
2923.97+85823+108611+127986+125984+107326+90326+77650+77209+85978+87068+78602
2913.36+69956+63773+61194+58551+57122+74206+103869+118054+102206+70399+55494
2902.75+63855+66679+51130+37114+39290+61615+85308+74922+43956+37282+57576+70279
2891.18+66915+64280+67049+77712+91576+89965+74866+69124+76924+91189+99526+88562
2879.61+72971+66695+69620+79848+84616+78079+82554+110396+133978+129802+103582
2869.00+85507+98791+115724+109917+100113+98809+98796+106296+121141+127821
2859.36+130162+132172+129649+130060+136896+134324+120664+125200+149679+162400
2849.71+159575+156335+155680+157478+159511+151968+125020+83241+53497+36078+5366
2839.11+10996+11539+11411+11246+11728+55636+113081+165796+271856+469717+760976
2828.50+1127063+1566779+2126784+2830835+3677213+4693405+5893018+7255628+8793575
2819.82+10532463+12463665+14576612+16876118+19378117+22098184+25025962+28145468
2812.10+31456833+34960920+38667776+42579935+46680298+50964179+55417100+60001078
2804.39+64682730+69427443+74190521+78934052+83632566+88257564+92787413+97225154
2796.67+101604784+106013006+110572696+115380039+120511323+126055188+132118219
2789.92+138828927+146255805+154349426+162996355+172067455+181432670+190963288
2783.17+200546843+210089594+219496292+228667793+237539655+246087662+254303793
2776.42+262230210+269915821+277357756+284550983+291473751+298077829+304340328
2769.67+310233003+315679279+320605947+325000157+328885193+332264895+335150037
2762.92+337622565+339835186+342003622+344362663+347055807+350083155+353319529
2756.17+356551825+359552289+362136977+364160930+365556445+366351493+366592162
2749.42+366297554+365450538+363989120+361861062+359080127+355648491+351487982
2742.67+346496806+340603009+333774236+325985980+317214995+307469810+296820000
2735.92+285463341+273796524+262459561+252309154+244276830+239107455+237056940
2729.17+237789229+240585645+244646042+249313262+254236853+259381333+264859541
2722.42+270722867+276905613+283374216+290253716+297820404+306358979+315944046
2715.67+326341631+337111691+347800825+358085875+367775829+376715531+384794928
2708.92+391985165+398269620+403621953+408058717+411641259+414416008+416447711
2702.17+417875446+418856511+419546910+420092349+420544458+420843485+420882435
2695.41+420554043+419792269+418594599+417031455+415246336+413430831+411789583
2688.66+410446240+409376943+408454541+407534791+406510052+405309017+403920640
2681.91+402366231+400607520+398567559+396193325+393436691+390246065+386597416
2675.16+382514807+378073897+373431642+368920614+365063278+362416902+361317831
2668.41+361674468+362993101+364571913+365728152+366001688+365375628+364504277
2661.66+364686385+367290990+372860031+380718234+389479907+397982863+405835526
2654.91+413203723+420278808+426981894+433085974+438456695+443100344+447095909
2648.16+450551132+453580146+456243380+458543350+460478323+462055130+463318125
2641.41+464404926+465546720+466958923+468701115+470652878+472649641+474581317
2634.66+476361576+477935120+479312111+480531296+481616534+482575098+483399852
2627.91+484087600+484655166+485159378+485704954+486374858+487221840+488297459
2621.16+489592505+491009568+492411608+493655570+494620593+495272993+495683874
2614.41+496032795+496531740+497258642+498153139+499089373+499913243+500536685
2607.66+501025365+501542935+502249886+503292571+504755144+506610585+508766004
2600.91+511120491+513658173+516518028+519894943+523893431+528453198+533361953
2594.16+538388749+543372006+548232499+552992999+557758121+562646551+567732249
2587.41+573046923+578607229+584428835+590518675+596867707+603439973+610166953
2580.65+617008336+623961743+631015551+638132509+645261159+652375262+659473119
2573.90+666531821+673474761+680190932+686606581+692697032+698436183+703802690
2567.15+708818032+713552497+718108592+722558101+726935896+731263796+735542345
2560.40+739770389+743963900+748154353+752328831+756417319+760380188+764228992
2553.65+767991807+771674139+775253215+778700213+781969046+784990242+787723152
2546.90+790200267+792495139+794653107+796657586+798479616+800110974+801567361
2540.15+802883241+804087166+805216520+806343971+807608530+809146216+811003934
2533.40+813186442+815664305+818342086+821097700+823867521+826667115+829497502
2526.65+832287240+834942317+837403730+839657273+841709402+843589144+845356250
2519.90+847054156+848708558+850348004+851972768+853595561+855262606+857019991
2513.15+858890964+860857308+862900940+865021046+867195668+869397345+871641710
2506.40+873946983+876282912+878602459+880868102+883021855+884976847+886668975
2499.65+888087907+889278440+890300868+891184965+891964310+892687508+893386302
2492.90+894090874+894835279+895631619+896485942+897413136+898402731+899417614
2486.15+900407889+901305105+902037275+902550903+902811999+902823215+902658033
2479.40+902427458+902221015+902108718+902115176+902158205+902112457+901954617
2472.65+901741172+901513860+901309864+901201374+901243655+901443844+901806633
2465.89+902344935+903055081+903926194+904957391+906116723+907335262+908550810
2459.14+909668200+910551006+911112080+911336809+911217579+910744126+909951729
2452.39+908913870+907703964+906396920+905064589+903759585+902527451+901400748
2445.64+900398441+899536504+898818541+898245775+897782110+897357871+896938255
2438.89+896520066+896093856+895641611+895152048+894593285+893901356+893027728
2432.14+891965330+890695401+889151053+887289528+885152021+882831794+880425441
2425.39+878051309+875853235+873926454+872302370+871000628+870042981+869400675
2418.64+868986905+868706640+868480551+868272137+868082891+867901191+867711878
2411.89+867530246+867347390+867111989+866794201+866402319+865949191+865440934
2405.14+864896785+864324291+863736162+863199219+862776000+862485131+862375349
2398.39+862526256+863053342+864059320+865573351+867529226+869789091+872187218
2391.64+874573314+876829032+878858729+880587292+881971557+883001666+883684214
2384.89+884026405+884048294+883821933+883467574+883066176+882671778+882435698
2378.14+882555199+883077256+883935317+885187844+886964943+889279188+892031335
2371.39+895009026+897821672+900194512+902431401+905131886+908306096+911208062
2364.64+913200781+914521623+915968562+917814860+919328075+919613371+918669863
2357.89+917162562+915436649+913436454+911181823+908792737+906655977+905560067
2351.13+906001707+907006802+906688946+904393190+901556413+900415299+901844291
2344.38+904743335+907083683+907889267+907575149+906945623+906269669+905397060
2337.63+904205304+902606983+900888140+899526036+898721471+898226537+897961974
2330.88+898017987+898133750+898031310+897977337+898427407+899301647+900294097
2324.13+901444796+902817913+904088657+904935639+905547016+906258725+906982398
2317.38+907300662+907015910+906252471+905330716+904554633+904064933+903879155
2310.63+903992675+904346286+904788947+905201697+905657545+906398212+907619062
2303.88+909352859+911482889+913877890+916412582+918920694+921226579+923215558
2297.13+924812724+925990341+926805986+927357272+927691646+927755680+927496827
2290.38+926909921+926043770+924968525+923747403+922518871+921504669+920930475
2283.63+920966910+921737962+923290468+925530075+928273249+931298456+934372198
2276.88+937325010+940056016+942499212+944581591+946273991+947621684+948676469
2270.13+949459621+949935658+950099344+949989766+949688497+949264870+948807867
2263.38+948422578+948153529+948025462+948083038+948409935+949011659+949817379
2256.63+950739067+951721865+952758975+953895603+955189052+956624434+958237846
2249.88+960065926+961348091+962374733+963155167+963673076+963929550+963935192
2243.13+963707812+963325311+962847303+962283170+961702994+961208604+960873618
2236.37+960734267+960814819+961137433+961703742+962474114+963397365+964456297
2229.62+965622086+966860542+968121906+969322635+970362533+971090285+971367899
2222.87+971178246+970590864+969662855+968464777+967089077+965605908+964119611
2216.12+962781910+961731748+961068098+960851186+961084956+961750577+962829153
2209.37+964199483+965657705+967090301+968495638+969893566+971275927+972569104
2202.62+973634901+974337297+974608998+974451429+973893617+972995450+971852908
2195.87+970562450+969215097+967914103+966761365+965819828+965117024+964700127
2189.12+964656282+965024101+965749541+966733359+967882970+969128495+970345947
2182.37+971321879+971901103+972065741+971856511+971381562+970843463+970421876
2175.62+970157653+969969223+969776103+969565853+969356351+969219447+969294357
2168.87+969671080+970347918+971297272+972506498+973971110+975659568+977541961
2162.12+979598917+981762323+983916824+985956446+987801724+989389373+990686220
2155.37+991655559+992245116+992447616+992309557+991935553+991491261+991172385
2148.62+991141932+991491329+992244028+993382899+994866884+996631883+998610666
2141.87+1000699842+1002787523+1004868475+1007056284+1009481534+1012194935
2136.08+1015078072+1017808806+1020075672+1021742377+1022770787+1023178167
2130.29+1023012850+1022344305+1021297202+1020075672+1018887926+1017884803
2124.51+1017176153+1016805207+1016781348+1017110828+1017794939+1018836808
2118.72+1020240922+1022001094+1024064575+1026364342+1028791563+1031157674
2112.94+1033289607+1035093352+1036516635+1037496102+1037992735+1038032705
2107.15+1037669101+1036935707+1035886768+1034620306+1033243859+1031876453
2101.36+1030635142+1029654451+1029058913+1028912628+1029236194+1030011937
2095.58+1031179086+1032661236+1034365532+1036160236+1038017002+1039925498
2089.79+1041610693+1042874504+1043810874+1044430408+1044592327+1044258633
2084.00+1043455359+1042221458+1040617359+1038711582+1036607043+1034459679
2078.22+1032430254+1030627256+1029145038+1028109015+1027602186+1027614965
2072.43+1028097255+1028998618+1030253048+1031755727+1033308300+1034681621
2066.65+1035921504+1037170632+1037847674+1037530294+1036688206+1035600861
2060.86+1034135773+1032400480+1030588510+1028747990+1026871103+1024983408
2055.07+1023166815+1021517852+1020127062+1019084037+1018455870+1018250107
2049.29+1018425825+1018924769+1019670738+1020570606+1021512958+1022336624
2043.50+1022908438+1023381212+1023704166+1023292027+1022140853+1020757404
2037.71+1019093962+1016988811+1014545683+1011950153+1009383717+1007032357
2031.93+1005065537+1003609490+1002765227+1002611873+1003205100+1004574070
2026.14+1006678677+1009407033+1012669816+1016392253+1020392508+1024425664
2020.36+1028343329+1032041498+1035634713+1039258857+1042073678+1043534755
2014.57+1044400295+1045079036+1045243402+1044892170+1044208330+1043323690
2008.78+1042409616+1041694779+1041388751+1041649847+1042577177+1044147016
2003.00+1046226948+1048679592+1051447985+1054531107+1057729585+1060664588
1997.21+1063183305+1065213478+1066343444+1066413391+1066687335+1067628056
1991.42+1066710855+1063634938+1061403080+1060284058+1058742904+1056931002
1985.64+1055636262+1054830746+1054308282+1054173349+1054524922+1055421118
1979.85+1056933586+1059036289+1061544674+1064217629+1066844904+1069237661
1974.07+1071241323+1072739244+1073622389+1073741823+1072868535+1071355999
1968.28+1070219847+1068878475+1066039387+1062297033+1058877225+1055733672
1962.49+1052591275+1049485380+1046393761+1043296227+1040201345+1037020201
1956.71+1033921377+1031429578+1029976522+1029971763+1031722691+1034790790
1950.92+1038111897+1040794912+1042238656+1042254698+1040931476+1037603028
1945.13+1031303210+1023599143+1016024638+1005937942+992665344+980743905
1939.35+972214065+966826214+965115732+967115792+971642182+977108749+982224832
1932.60+986245956+989280747+992110659+995454062+999498162+1003825178+1007489496
1925.85+1009428309+1009849965+1010140154+1009474805+1005428869+998995547
1920.06+993049272+989705054+986747211+980775174+974229079+970344451+968240252
1913.31+966705013+965887261+966458667+968288855+970100077+971402363+972567133
1906.56+973521177+974486845+975580783+976397720+976818356+976874436+976384804
1899.81+975217655+973325202+970639263+967747358+965432569+962946344+959492140
1893.06+955991033+953372051+952880653+955392368+957984975+958646450+959982248
1886.31+963237078+967194440+970861069+973885868+976425794+978678113+980607681
1879.56+982158419+983273227+984074053+984677136+984954411+984699229+983678024
1872.81+981493749+978171351+975655421+975594990+975989048+974642714+973472166
1866.06+973795936+975097202+977057156+979564657+982383352+985144336+987659110
1859.31+990115154+992320433+993745347+994275289+993927727+992692466+990868328
1852.56+988928631+987156223+985706566+985037953+985239638+984545399+982112128
1845.80+982028109+987162885+991867576+991978445+992181082+995281878+999491024
1839.05+1003913615+1008692128+1013083858+1016046866+1017926541+1019266893
1833.27+1019232225+1017952304+1018384155+1021281703+1021413237+1016304088
1827.48+1010809719+1009121125+1009661875+1008180880+1004937946+1002773928
1821.70+1002035096+1001761968+1001798744+1002460219+1003646605+1004648640
1815.91+1005262600+1005830268+1006420504+1007080280+1008063146+1008745286
1810.12+1007759565+1005445320+1003299723+1001293613+998625077+995066870
1804.34+990787165+986123259+980984541+975253207+969398496+963360726+957399429
1797.59+953361855+952141073+952544715+954292515+958781451+965081608+969653814
1790.84+971292717+971428533+971357974+971431796+971615808+971952561+971756790
1784.09+969949442+966999417+964255495+961701906+958076539+953103002+947989027
1777.33+943859345+940798927+938418881+937571627+939683779+943334094+945207718
1770.58+945181548+946391997+950067327+953844009+955702271+956148262+956092590
1763.83+956210664+956918839+956725175+953520579+948173990+943199365+939494194
1757.08+935875148+930829421+924770919+919509367+916458330+915942867+916483209
1750.33+916553496+916949864+918320942+919682366+920623359+921919459+924136702
1743.58+926399081+927428579+928231852+930465341+932292742+930782382+926694505
1736.83+923021419+922216514+924105705+924305554+919304419+912894344+909452240
1730.08+908597645+907827749+906739316+906328197+906838969+908086465+909812310
1723.33+911224037+911516198+910963280+911091143+913422518+916822545+917445410
1716.58+914344750+910707758+907239416+902282397+896143751+890257907+884796302
1709.83+878980338+873035695+868429705+865581916+863172369+859907206+855594941
1703.08+851923214+852397686+857717969+861670301+858551492+853493189+853067251
1696.33+856102450+856304135+851516785+845530609+840753251+836778078+832514484
1689.58+827027864+819987855+812288410+806465784+804749388+805172879+802252967
1682.83+795388405+789527372+787346564+787056782+786434122+785887662+787290484
1676.08+790844748+793237574+791925636+789412017+788212919+787870116+787398498
1669.32+785648046+780942063+773933323+766889100+760849494+756046646+752092002
1662.57+747463988+741534028+735748857+731225661+727574191+724120463+721138082
1655.82+720460904+724248122+731655610+736423723+733530594+727380663+723650545
1649.07+723660401+725385702+726083816+723657818+717604822+709783632+702254195
1642.32+695226897+688178323+681078495+674399167+668662123+664148649+660631499
1635.57+656369944+649466498+641773783+635968627+631931393+628379032+624772086
1628.82+620897042+615792584+608788330+600970743+593412076+584953135+573261728
1622.07+558225796+541595282+524291567+506366347+487355515+465856861+442139876
1615.32+420521448+403935017+391034859+378904361+365636588+350915318+335856105
1608.57+322650972+313552852+309863009+311820244+318867255+329717832+342634814
1601.82+356057639+369080936+381443436+393256759+404619060+415236649+424456039
1595.07+431607325+436443516+439463658+441776102+444520296+448462262+453938923
1588.32+460873943+468924349+477646528+486658726+495715313+504592375+512995678
1581.57+520582725+527129024+532772125+538424470+545692335+554890448+563169049
1574.82+567941173+570585714+573195587+576632457+581508516+587295386+591659110
1568.07+593925839+596519534+601299135+607514527+612976471+616774634+620538605
1561.32+627024949+637546488+649347608+656464702+656266280+652989630+651779452
1554.56+652471448+651433386+647961033+644344298+641292785+637317068+631658333
1547.81+625699007+620922057+617170391+613086389+608504394+604786375+602395929
1541.06+601189218+600718891+598148512+591997019+585181602+580354486+577786486
1534.31+575867998+572121497+565537030+557601504+549719781+542009052+533657003
1527.56+523893907+512883178+500905354+488407954+476532570+464906861+450675902
1520.81+431855471+410824017+390905229+372264119+354257939+338782372+328022169
1514.06+321226874+315580714+308233487+298138090+285914226+272130974+256791088
1507.31+239731390+222066586+206945549+196438913+189512203+183621941+176501720
1500.56+166698637+153325315+136832002+119798875+105031389+94314019+88396890
1493.81+86288264+85970968+85679453+84414359+81904071+78421946+74199502+69044669
1486.09+62866236+55876809+48337159+40543036+32834880+25617266+19328888+14199317
1478.38+10124522+6864800+4278984+2367795+1091569+368058+90290+24177+12067+10064
1468.74+10358+10983+11354+11464+11455+11426+11408+11402+11402+11403+11404+11405
1457.16+11405+11405+11404+11403+11401+11403+11416+11446+11478+11442+11187+10580
1445.59+9878+10325+16253+47345+149245+366049+694965+1146097+1837728+3020074
1435.95+4860742+7307947+10409774+14424044+19567263+25974440+33707380+42414383
1428.23+51438954+60456692+69543078+78937273+88791525+98691397+107882594
1421.48+116384743+125186895+134900454+144499303+152726259+159696882+165855649
1414.73+171340417+176205413+180478813+184173329+187307654+189968374+192270451
1407.98+194314967+196259915+198257460+200104437+201332000+201905395+202079108
1401.23+201842534+200900420+198620095+194639417+189480951+183335490+175046200
1394.48+163506379+149504058+134166882+117205469+98469456+78842871+58760392
1387.73+38869100+22414799+11914329+6243770+3378536+1861262+766642+117164+9855
1379.05+7096+9849+10486+10454+21166+152977+827726+2090920+3472225+4789013
1369.41+5743975+6043573+5946269+6259309+7872878+11719829+18937231+29709221
1361.69+42221336+54746295+66487826+77011494+86095195+93376714+98759501
1354.94+102559728+105308264+107749939+110526158+113849329+117552334+121205401
1348.19+124294591+126512378+127679722+127561724+125950190+123049881+119882833
1341.44+118075231+118981700+122873525+129023498+136646632+145236028+154123354
1334.69+162805495+171369290+179863698+188021352+195481674+202008549+207607584
1327.94+212487875+216981076+221277656+225288465+228681728+231085956+232289167
1321.19+232325041+231396420+229570651+226961661+223925205+220753526+217599624
1314.44+214534957+211526829+208575683+205990825+204100869+202853610+201963566
1307.69+201360482+201371681+202312572+204050040+206084377+208058725+209952385
1300.94+211917097+214130619+216682253+219572680+222807049+226448340+230458350
1294.18+234631826+238730918+242656043+246631844+251114951+256545456+263060079
1287.43+270295927+277631564+284596595+290980244+296767556+302053817+306805752
1280.68+310887986+314247839+316904344+318850805+320002931+320334722+319949230
1273.93+319052591+317912157+316708335+315493263+314286518+313074097+311785576
1267.18+310481524+309353903+308682401+308909441+310506437+313839881+319211893
1260.43+326552255+335075536+343755297+351871775+358825659+363929845+366564156
1253.68+366765977+365449552+363673474+361955956+360488965+359641677+360054258
1246.93+362383696+366801188+372739815+379334989+386083007+392967623+400109562
1240.18+407525648+415085470+422554884+429647303+436060233+441523809+445954795
1233.43+449574588+452685071+455367169+457364203+458217371+457606946+455638121
1226.68+452799611+449692119+446867815+444741150+443476693+442960551+443047255
1219.93+443848285+445652811+448583429+452374454+456537105+460676031+464637812
1213.18+468400593+471870193+474866510+477291421+479173542+480497002+481187775
1206.43+481220947+480640023+479506930+477899942+476018603+474208196+472841164
1199.68+472070077+471809865+472080987+473214590+475510108+478837536+482700140
1192.93+486460406+489501995+491397508+492225082+492692248+493481008+494496876
1186.18+494822787+493460173+490031563+484788841+478132488+470187820+460929582
1179.42+450579444+439796537+429118347+418233510+406208476+392388059+376919391
1172.67+360750639+345911090+335772120+333737869+340305648+352101874+364859996
1165.92+376192693+385231097+391478369+394812153+395533889+393932917+390141008
1159.17+384456645+377805697+371608829+367229030+365427970+366039007+368402398
1152.42+372075553+376757778+381758404+386267970+390140328+394033997+398843915
1145.67+405122559+412930799+421937696+431583669+440937481+448609022+453438824
1138.92+455334642+455256436+454440859+453881518+454263713+455998802+459201868
1132.17+463661914+468999326+474908078+481319410+488309117+495954079+504289100
1125.42+513300925+523013039+533345401+543831219+553822782+563178702+572283824
1118.67+581105486+588693722+593803211+595639380+593902592+588842045+581525578
1111.92+573495089+565819334+558743366+552248185+546490034+541846895+538799392
1105.17+537754498+538831443+541711759+545771120+550228548+554172927+556632981
1098.42+556717985+553751272+547701742+539959880+532898220+527603633+523007533
1091.67+518086372+513220271+508877519+504686182+500113976+494990824+489284132
1084.92+482994001+476288672+469690779+464156202+460616144+459266412+459573799
1078.17+461004084+463518892+467465446+473050700+479893714+486977058+492919662
1071.42+496434024+496738625+493827686+488442894+481699057+474558511+467590454
1064.66+461166852+455648318+451380644+448588493+447357821+447701542+449701669
1057.91+453505678+458887547+465110484+471380460+477391141+483569622+490327462
1051.16+497004071+502302568+505436026+506105353+503903880+498353600+489367266
1044.41+477433593+463593700+449255746+435507214+422702732+410975264+400852132
1037.66+393057963+387834002+384645721+382607085+381051249+379598498+378931483
1030.91+382054235+392023809+407553383+423779609+436893585+445638094+450057626
1024.16+450627198+448189304+444438351+441614319+440841125+441210507+441037610
1017.41+439591929+437470600+435769091+435214577+435984711+438088129+441850366
1010.66+447724654+455585576+464571637+473545260+481493191+487733496+492252748
1003.91+495761435+498972726+501865278+503877097+504580548+504009311+502513667
997.16+500357093+497664867+494620865+491327662+487663684+483590830+479557573
990.41+476324971+474292521+473156335+472516986+472606238+473956515+476555444
983.66+479608827+482043627+483072785+482255237+479243761+473756155+465702521
976.91+455056450+441785279+426136611+408952738+391829635+376911200+365856763
970.16+358725224+354240197+351043589+348310101+345710901+344346689+347544283
963.41+358083700+374525342+392548584+408863621+422166605+432223868+439420460
956.66+444380367+447743585+450441249+453561894+457241846+460181471+460890054
949.90+459185078+456377361+454283018+454218577+456669318+461496842+468070535
943.15+475247482+481955088+487910845+493346143+498421814+503258447+507997976
936.40+512626364+517103234+521606546+526196494+530330832+533180219+534387814
929.65+534297542+533413207+531829331+529168272+524898321+518831865+511023591
922.90+501183104+489108618+476008610+464996624+459913782+462947723+472931028
916.15+486139559+498547570+507275968+510686498+507966605+499318588+486952485
909.40+475234057+467978462+464792594+461507073+454800792+445641425+438018521
902.65+434446617+433621354+432807986+430609572+426972445+422181220+416447303
895.90+410043448+403483520+397412340+392307915+388350111+385547661+383991655
889.15+384038593+386126987+390111404+394565026+397340285+397231591+394435600
882.40+389303373+381655896+371863366+361791216+353754406+348669593+345760727
875.65+343972039+342971975+342882756+344067239+347214327+352944845+361363001
868.90+371869518+383095765+393362869+401345741+406232744+407963686+407899517
862.15+408337079+410596501+414171974+417692556+420233128+421934161+423341231
855.40+424288002+423928069+421781963+418461434+415212858+412790972+411177595
848.65+410759338+413127318+419052622+426070063+431072013+435480533+444061695
841.90+458184403+474004812+486638299+492827588+491013681+481176423+465621698
835.14+449863351+438857244+432474835+428827920+427909801+428575660+427626918
828.39+423341333+416572957+408726514+400307236+391340038+382131864+373542205
821.64+366703405+361089432+353423839+340788686+323477120+304079742+286046134
814.89+272264785+263216695+257127264+252255045+248413106+246117911+244761483
808.14+242255834+237397908+232883634+234350677+245160961+263901163+287533484
801.39+313793045+340112324+363020699+378983485+385501709+383138454+377438831
794.64+376276032+382529898+390960629+394189968+390584824+385151599+382440068
787.89+380317719+372894155+356887355+333853292+309085771+288779451+277173269
781.14+274607835+277436387+281343669+284192885+285372865+284658861+281848221
774.39+276013410+265493962+249845583+231262388+211847914+190968573+169519899
767.64+153439719+148010063+152680987+163878480+178322935+192747303+204265303
760.89+212034882+217222408+220850613+222400536+220794074+215606974+207131446
754.14+196381643+185404597+176757990+171940340+170067973+168542947+165054874
747.39+158346384+148024236+134254724+117555401+99312996+82768098+72891490
740.64+73134436+82126863+95220412+108633763+120667634+130355098+136896792
733.89+139781195+138282518+130857714+116294003+95972542+75302142+62096602
727.14+60624755+67798209+76612950+82612959+86732963+92341379+103208135
720.38+122131660+149418153+182558949+218066688+253340470+287280205+319856205
713.63+351225017+381166978+408872322+432926774+451993822+466193818+476643099
706.88+482917833+482937512+475806857+462558866+443452358+415884563+377064758
700.13+330993539+290708136+269675101+272168905+292174856+321017712+356186794
693.38+398067935+442412834+486929237+537302831+595666910+653309389+702227276
686.63+743823258+781685518+814809642+840178513+856239490+862280047+856126717
679.88+832491984+784190640+709237444+620384027+544534397+507881329+521809693
673.13+579170343+657380884+728857307+776461421+802095467+821409846+845004542
666.38+868548324+885539417+897238505+908654881+922347504+937544437+952383815
659.63+965394842+975656305+982561109+985748235+985161058+980992902+973668549
652.88+963964898+952853190+941117327+929344212+918207694+908486708+900872981
646.13+895902164+893943501+895103649+899154750+905631238+914025874+923891988
639.38+934685024+945557115+955530767+963888832+970249896+974345047+975996389
632.63+975238864+972125628+966405714+957588131+945341427+930141639+914208254
625.88+900348342+889687520+881937501+876924334+875047515+877064773+883271599
619.13+893252525+906147244+920514869+934974398+948944023+961767027+972354096
612.38+979445223+982161410+980817999+976483302+969547636+959891092+948038649
605.62+934870326+921165264+907810211+895686680+885575172+877911483+872705128
598.87+870268866+871042569+874748896+880963948+889325683+899474850+911374876
592.12+923660326+933628676+940339477+944490911+945860968+944208606+940356810
585.37+934697803+926535305+915674158+903234266+890288157+877216495+864722359
578.62+854181039+846550385+841709062+839097830+839286123+843067972+849887466
571.87+858628576+868568512+879036215+888960448+896939003+901885621+904081520
565.12+904914498+904748977+902533297+897459427+889534438+879239463+867155086
558.37+853783175+839785611+826455233+815379825+807485901+802778558+800740772
551.62+801049927+803738108+808773639+816030900+825211339+835779918+846882720
544.87+857524917+867106687+874686154+877722645+873661347+863081349+850798686
538.12+842441300+838748908+835640703+830174748+822753937+814919559+808579704
531.37+805524451+806039574+809253278+814771643+823455518+835457372+848740846
524.62+862559360+878084006+894609803+910239063+924420842+935962906+943151646
517.87+945846014+943771996+937146981+928348567+918717922+908286043+897735954
511.12+887782491+878649499+871159284+866661988+864999905+865149384+867868087
504.37+874634221+886068202+900451802+914093850+926032214+937046988+946196566
497.62+952267169+954951611+954124275+950182343+944482142+937522209+927709592
490.86+914384040+898918194+882295531+864917994+846561873+826244440+805134949
484.11+788836056+785367985+796860970+815500959+831289487+840606694+845733177
477.36+849798894+853788001+857698528+863854576+875426006+889568766+898779183
470.61+901100565+897888764+887870588+867979976+835398300+790972951+746598652
463.86+723148949+731253464+759582489+787591754+806439137+821229098+835803913
457.11+847192419+855624170+865409665+877299494+888730893+896673352+900417202
450.36+901202937+899730372+895914535+888887102+877604639+863451614+848327076
443.61+831653159+813009160+793344024+773727152+755199052+739682700+729725906
436.86+725787780+726058529+729980408+738159628+750660086+768599174+793881851
430.11+825097547+856602346+882636567+900831584+911783004+916947417+918081530
423.36+915003914+906731770+897398861+891293251+884886643+872968195+859945817
416.61+853212448+853366549+857466934+864083928+873821567+887135563+903203541
409.86+920698744+938582499+956043851+972067169+985465183+995751185+1003015991
403.11+1006713481+1006310111+1002427250+995914735+987860184
##END=
