##TITLE=ֽופע_1
##JCAMP-DX=4.24
##DATA TYPE=INFRARED SPECTRUM
##DATE=9/3/2017
##SAMPLING PROCEDURE=Instrument type and / or accessory
##ORIGIN=Default
##XUNITS=1/CM
##YUNITS=TRANSMITTANCE
##RESOLUTION=2
##FIRSTX=3998.2792
##LASTX=399.2493
##DELTAX=-0.96437028
##MAXY=0.93267655
##MINY=0.0013375038
##XFACTOR=1
##YFACTOR=8.6862273e-010
##NPOINTS=3733
##FIRSTY=0.73184729
##XYDATA=(X++(Y..Y))
3998.28+842537572+843704039+844942487+846387001+847683365+848648158+849678277
3991.53+851153395+852953290+854650736+856315794+858237283+860399559+862679174
3984.78+865023773+867438638+869919789+872315235+874542425+876667029+878573559
3978.03+880250556+882014426+883689090+884799357+885557674+886317500+886835167
3971.28+886979406+887270559+887895204+888324146+888486020+888730649+889045751
3964.53+889230887+889734075+890999217+892139402+892540141+892936626+893786756
3957.78+894836294+895715313+896168958+896443025+896807670+896854949+896468071
3951.03+896432115+896749206+896995345+897437599+897498328+896473767+895199361
3944.27+895234014+896846783+898231049+898069724+897597140+897895224+898601870
3937.52+899137515+899277774+899119743+899034449+899730733+901163032+902166115
3930.77+902393384+902414999+901967187+900738002+899719616+900048648+901209899
3924.02+901519923+900431203+899168806+898966858+899352570+899387085+899971931
3917.27+901719264+903017617+903024960+902734149+902850391+903264511+903675406
3910.52+903849151+903539196+902631220+901485339+900793309+901041850+901829055
3903.77+902210718+902049599+901707873+901741702+902972328+904507351+904494176
3897.02+903303556+902160557+901410955+901068680+901864257+904496578+907285283
3890.27+907613766+905663250+903675200+903849494+906568070+909138496+908885358
3883.52+906747167+905206723+906090271+908694252+909961658+908687253+906445172
3876.77+904864929+905080875+907004629+908170615+907040860+906253723+908965574
3870.02+913681258+915804078+914198651+912316275+913234338+916184162+918110524
3863.27+918609115+919333602+919929083+919204185+917651595+915970961+913644135
3856.52+910776174+910214041+914194259+919761926+922706535+922476385+920649865
3849.77+919093707+918319951+917783962+917265403+917185393+918067156+919216193
3843.02+919247552+918551405+918348222+918756784+920291396+922814199+923937092
3836.26+923340032+922657541+921694669+920674088+921110715+922078047+921428836
3829.51+919847700+919353501+920430350+921506102+920856959+918727209+917238299
3822.76+918989062+924247597+928835991+928827551+925960413+924873752+928210660
3816.01+933359952+935564292+934707574+933497809+932907267+932255998+931096119
3809.26+930383297+932020289+935604640+937379832+935423141+932430635+932053844
3802.51+935829987+941400330+943771827+942333352+940911757+942143618+944961762
3795.76+946789585+946947479+946623525+946596420+946776547+946909464+946816896
3789.01+946408746+945798236+945438325+945867061+946873781+947388978+946885790
3782.26+946173517+946816278+949582682+953016138+954927334+955416867+955858847
3775.51+956652022+957378774+957614757+957630265+958643504+961329279+963696934
3768.76+963473440+962057197+962147707+963610610+964158058+962962154+961053154
3762.01+959742037+960258469+962356105+963921595+964334205+964718819+964498206
3755.26+962806730+961476743+963021030+966679490+969716667+972785409+976168567
3748.51+975957562+971745958+969096070+972945431+980858107+984176968+982036514
3741.76+979470479+978061922+976702017+975372373+975130557+976928256+980377838
3735.01+982977839+983563234+984695528+987178258+988352409+987450952+986404433
3728.26+986753845+988650974+990792046+991642931+991493957+992020545+993332623
3721.50+993685397+992962694+992577257+992305317+991165132+989271982+987079994
3714.75+985021540+984551152+986789321+989947132+991986029+993706394+995065270
3708.00+995111932+994606753+994409129+994180625+993993019+995034048+997414947
3701.25+999040959+998616890+997364237+996495786+996058404+995534972+994346342
3694.50+992336813+990132885+988973761+989109559+989660233+991354865+994752913
3687.75+996737670+995581222+993906283+993551725+993922889+994155785+994265851
3681.00+994707693+995067672+994019712+992274301+993587202+999715080+1005357679
3674.25+1004117926+998149040+994084557+995240662+999303293+1002122877
3668.46+1002215033+1000639181+999129479+998635280+998923483+999550873
3662.68+1000327373+1001147859+1001698532+1001536521+1001035048+1001876669
3656.89+1004729122+1006834787+1005473852+1001795835+998597264+997829959
3651.11+999521846+1001720971+1002896358+1003906852+1004916934+1004190938
3645.32+1001783415+999748840+999159672+999442316+999699228+999756526+999994019
3638.57+1000423098+1000476484+999940015+999532414+999699434+999128518+996130797
3631.82+991799864+989544128+991150859+993506093+991961463+986964644+981607709
3625.07+977126293+973187246+969500172+966406383+964915620+965558999+967366442
3618.32+968888221+969411584+969509641+970596921+973342601+977174052+980538957
3611.57+982243951+983925889+987587711+992347106+996591990+999700944+1001478195
3604.82+1002613439+1004078745+1006235805+1009152898+1012494541+1015522592
3599.03+1017883247+1019784768+1021952602+1025146164+1028952568+1032465623
3593.24+1035235595+1036644564+1036635918+1036776931+1038857001+1042893349
3587.46+1047433504+1050527156+1050994868+1050065345+1049499232+1049217960
3581.67+1048861000+1048620763+1048339765+1047741332+1047150997+1046758973
3575.89+1046445586+1046281791+1046135837+1045700925+1044932727+1043664978
3570.10+1042184714+1041943858+1043749655+1046390691+1047818873+1046973615
3564.31+1045105580+1043716443+1042587031+1041490351+1040381250+1038677972
3558.53+1036488522+1034410992+1032289751+1029859103+1027650852+1026535576
3552.74+1026597196+1026493100+1025131205+1023262278+1022338176+1022950607
3546.95+1024580531+1026301445+1027763663+1028768118+1029324075+1029698945
3541.17+1030058306+1030464741+1030747797+1031078681+1032063855+1033266415
3535.38+1033371472+1032551192+1031824372+1031465559+1031247005+1031057409
3529.60+1031156084+1031702709+1032366879+1032733789+1032902182+1033583713
3523.81+1035093758+1036325482+1036168068+1035594133+1035761771+1036302083
3518.02+1036461829+1036133484+1035549873+1034851942+1033985138+1032685137
3512.24+1030737916+1028641446+1027419329+1026644887+1024766354+1022036867
3506.45+1019517563+1017547560+1016419177+1015841879+1014406972+1011672065
3500.66+1008523449+1005423485+1001978432+998088655+993617051+988119377
3494.88+981464980+973915302+965629608+956653326+947071063+937341474+928182114
3488.13+919694198+911674886+904474277+898450152+893892156+891587837+891504807
3481.38+892588244+894445437+896992600+899981950+903351246+907185716+911407338
3474.63+915513405+919123282+922403853+925529962+928436830+930870497+932664971
3467.88+934099810+935129723+935372637+935087522+934942528+935061721+935134869
3461.12+935061995+934861008+934512214+934106397+933834869+933780796+933862111
3454.37+933933818+933922771+933826497+933635391+933172551+932289416+931800843
3447.62+932179144+931969579+930277486+928360388+927055721+926143971+924986013
3440.87+923403849+922035434+921123684+920444966+919871923+919446001+919132683
3434.12+918776409+918535554+918852028+919671897+920438791+921014922+921668730
3427.37+922322745+922834785+923313614+923800127+924189476+924558238+925194960
3420.62+925763269+925670495+925234554+925034459+925068975+925225359+925548970
3413.87+926068627+926691007+927289577+928006310+929043291+930216208+931242347
3407.12+932176468+933165483+934160744+935127458+936106593+936998718+937549323
3400.37+937498201+936836295+935989871+935208430+934238970+933004090+931931770
3393.62+931377185+931036420+930243793+929053516+927902420+927018461+926462161
3386.87+926206621+926202778+926322725+926397315+926446927+926584716+926748579
3380.12+926679136+926298228+925805539+925247454+924391972+923208282+921946160
3373.37+920760960+919671485+918694752+917768249+916813680+915863777+914979612
3366.62+914179232+913423317+912741854+912378650+912500382+912894190+913193372
3359.87+913286489+913250395+913125164+913059770+913023813+912710838+912097721
3353.12+911479114+910943332+910268457+909175345+907668593+906078811+904686174
3346.36+903548940+902684674+902138324+901789393+901407387+901068680+901106764
3339.61+901524589+901971921+902263555+902402922+902446221+902511959+902615917
3332.86+902688517+902702447+902585725+902299581+901902890+901542362+901320446
3326.11+901095991+900610232+899896038+899274961+898933235+898827080+898908737
3319.36+899202361+899726067+900448426+901273167+902126041+903047467+904002996
3312.61+904802073+905443942+906138305+906902797+907428424+907451480+907141937
3305.86+906666745+905905409+904789653+903498847+902293954+901307477+900549503
3299.11+900030876+899813557+899855140+899967402+900046589+900180672+900578255
3292.36+901231309+901672122+901646527+901533304+901622441+901728116+901652565
3285.61+901384262+900928764+900305423+899555410+898670352+897641057+896510821
3278.86+895370773+894413871+893730007+893125742+892529643+892104200+891870344
3272.11+891819223+891887705+891837819+891557027+891215026+890978014+890814356
3265.36+890595253+890210365+889598895+888764204+887739438+886538181+885138956
3258.61+883617314+882124904+880601340+878945958+877197871+875366548+873563085
3251.86+871995673+870697731+869630832+868853988+868218089+867422855+866457856
3245.11+865380389+864041962+862517643+861012882+859423237+857580386+855434991
3238.36+853048878+850560109+847969852+845269666+842509026+839534087+836145852
3231.60+832462414+828806424+825378938+822208433+819196576+816209491+813260353
3224.85+810416615+807631889+804786573+801811908+798792778+795779755+792521073
3218.10+788787200+784701994+780477833+776220391+771784127+766892982+761718232
3211.35+756638246+751724182+746759271+741714006+736813941+732119735+727539849
3204.60+723098919+718869680+714830517+710919674+707114299+703467230+700051615
3197.85+696742772+693342116+689900014+686494212+683107623+679725563+676317565
3191.10+672903048+669555435+666265943+662994978+659797299+656775699+654016980
3184.35+651539260+649269320+647177722+645325058+643761352+642562223+641699193
3177.60+640927770+640177482+639620427+639222776+638832947+638430149+638037027
3170.85+637628465+637174752+636677876+636149436+635602811+635086654+634656271
3164.10+634318250+634073346+633943930+633941459+634090913+634438746+634978029
3157.35+635670745+636518610+637542759+638772356+640171031+641509871+642549322
3150.60+643319990+644003237+644684013+645324372+645837853+646158856+646267276
3143.85+646187540+645995542+645780762+645574422+645296856+644825438+644161542
3137.10+643448240+642801706+642252542+641874790+641629132+641276564+640784972
3130.35+640228535+639500205+638518875+637342115+635982690+634353658+632425924
3123.60+630349972+628150916+625615074+622674102+619464758+615994453+612254198
3116.84+608372587+604292801+599806376+594983782+590024910+584954256+579779506
3110.09+574574735+569353941+564080276+558823800+553731908+548865569+544154380
3103.34+539490572+534833421+530031138+524762379+518830788+512231081+504979247
3096.59+497044886+488304965+478825185+468931046+458887761+448783577+438592966
3089.84+428300729+418039028+408052423+398529722+389527021+380915110+372368593
3083.09+363537887+354200871+344256536+333666112+322463155+310757901+298701279
3076.34+286479010+274291891+262362285+250944788+240221019+230184476+220698246
3069.59+211639741+202962760+194655898+186781665+179562562+173178716+167641911
3062.84+162932300+158980439+155566505+152435044+149409138+146409273+143444884
3056.09+140542416+137723441+135036636+132528010+130208269+128055197+126031233
3049.34+124095651+122198582+120308855+118416572+116502039+114525696+112454522
3042.59+110265390+107939259+105477072+102875072+100108771+97169446+94073650
3035.84+90831806+87438004+83884429+80188202+76392725+72570015+68854545+65376066
3028.12+62184537+59273891+56616798+54185854+51939146+49801728+47711936+45666331
3020.41+43676535+41750427+39935487+38291127+36823278+35487306+34243655+33066659
3012.69+31919552+30766430+29580218+28338860+27038366+25697768+24337024+22965468
3004.98+21585314+20209345+18877556+17610847+16382311+15151819+13899747+12648795
2997.26+11450830+10311301+9206567+8149469+7162640+6258869+5467650+4804437
2989.55+4248881+3773000+3386807+3116257+2942352+2810057+2687219+2588716+2528590
2980.87+2487539+2435277+2368510+2318989+2305364+2306514+2299500+2278948+2249604
2972.19+2234254+2233582+2205589+2124620+2027649+1976738+1973272+1969790+1946555
2963.51+1920409+1902508+1889169+1877995+1861555+1838593+1817647+1805113+1801592
2954.83+1798731+1802714+1830188+1869233+1894768+1897435+1880659+1875259+1903570
2946.15+1931197+1926982+1909580+1909515+1926872+1941773+1935520+1906572+1871516
2937.47+1839346+1823700+1820606+1791457+1736092+1700298+1689398+1661980+1613901
2928.79+1572475+1548917+1540387+1539798+1544917+1555227+1566600+1562124+1550294
2920.11+1571247+1620903+1665029+1690261+1706836+1726585+1744319+1758755+1776065
2911.43+1800838+1836324+1872923+1905331+1933323+1944259+1948489+1962756+1970376
2902.75+1965325+1964874+1979788+2007195+2032955+2048161+2059608+2066584+2066314
2894.08+2079175+2111628+2127336+2113869+2122436+2165943+2190074+2183846+2177833
2885.40+2176082+2171646+2167468+2161722+2164436+2189770+2210278+2197012+2171217
2876.72+2166860+2179267+2185349+2181796+2166269+2140405+2130037+2142241+2139671
2868.04+2115688+2110825+2133044+2149570+2144824+2135612+2123776+2107695+2100286
2859.36+2088175+2057924+2027835+2018441+2021040+2019335+2025549+2051164+2075474
2850.68+2083678+2098909+2138937+2190824+2231403+2250161+2261362+2277797+2298156
2842.00+2322842+2349770+2370132+2381401+2384511+2386592+2407373+2449427+2498000
2833.32+2558358+2651044+2779727+2950773+3183495+3502900+3947490+4521332+5204800
2824.64+6011637+6972934+8116698+9457896+10993137+12707031+14594025+16673220
2816.93+18973808+21491618+24198485+27096723+30200112+33506394+37015237+40743402
2809.21+44698904+48883725+53322211+57995089+62828971+67787466+72880614+78090806
2801.50+83360294+88628950+93863734+99100825+104383745+109684558+114965489
2794.75+120272297+125719914+131383725+137273467+143405590+149851186+156683737
2787.99+163921436+171556752+179551635+187834309+196343771+205025761+213809805
2781.24+222621983+231380535+239999480+248409152+256557263+264430346+272017765
2774.49+279278829+286209781+292839337+299160757+305124153+310679777+315806733
2767.74+320509140+324783324+328615427+332023082+335039467+337676900+339982214
2760.99+342109116+344241954+346502391+348946865+351538769+354151499+356616148
2754.24+358762710+360461597+361657947+362361471+362564757+362244783+361414519
2747.49+360067308+358155425+355668990+352620353+348947654+344532833+339280440
2740.74+333146489+326109572+318152121+309301687+299666896+289445818+278958701
2733.99+268700173+259345453+251652686+246273483+243546450+243392673+245394053
2727.24+248950407+253443317+258457051+263827299+269480774+275352272+281380737
2720.49+287533077+293849591+300470844+307633336+315544606+324193161+333336017
2713.74+342658657+351876790+360742045+369041257+376612688+383372725+389305894
2706.99+394414426+398691424+402137987+404797756+406757397+408119362+408999409
2700.24+409509974+409736419+409734978+409521846+409066211+408328892+407297881
2693.49+405968854+404369637+402570806+400662800+398782963+397060094+395539240
2686.74+394206268+393028136+391954924+390927515+389917707+388906527+387836094
2679.99+386650037+385338645+383881506+382264928+380529810+378696703+376792471
2673.23+374924849+373262399+372029611+371511670+371933098+373291837+375382371
2666.48+377898861+380517630+382991920+385217326+387302370+389626588+392724460
2659.73+396903846+401969251+407380499+412638004+417541089+422150961+426579232
2652.98+430834340+434851613+438589226+442050782+445258959+448237878+451022569
2646.23+453633893+456052635+458254333+460219944+461930805+463415187+464745415
2639.48+465988667+467190987+468343867+469426823+470454403+471446541+472430137
2632.73+473416305+474390327+475351106+476331030+477354493+478393567+479400905
2625.98+480372766+481356292+482389739+483497261+484732211+486147046+487732402
2619.23+489438837+491211490+492957347+494583428+496055939+497403115+498712139
2612.48+500060002+501459193+502892418+504344034+505800831+507278144+508831386
2605.73+510561426+512562274+514827857+517316523+520010567+522866794+525841699
2598.98+528944031+532235890+535770594+539525843+543427697+547390760+551329429
2592.23+555199684+559010548+562808684+566677189+570689281+574876250+579252712
2585.48+583869790+588783305+593978641+599415998+605080693+610962432+617029856
2578.73+623226696+629487353+635773811+642079895+648377606+654608620+660703080
2571.98+666598131+672255140+677651669+682756015+687546426+692044174+696302645
2565.22+700384009+704332318+708182296+711983211+715792566+719655856+723575208
2558.47+727533674+731527547+735552230+739572797+743529821+747387485+751131651
2551.72+754724099+758124000+761315709+764247280+766864436+769202310+771329521
2544.97+773288751+775102027+776789454+778366953+779859912+781308680+782735490
2538.22+784168064+785658690+787275165+789073893+791104213+793416423+795996319
2531.47+798770545+801657857+804597663+807564025+810532857+813444322+816224313
2524.72+818831450+821270675+823533411+825595227+827502375+829324846+831102302
2517.97+832898973+834750058+836634287+838563667+840598997+842765939+845040682
2511.22+847412111+849873843+852404333+854971602+857536538+860054470+862481755
2504.47+864801582+867002628+869026635+870808621+872344124+873658123+874771272
2497.72+875716303+876530544+877257982+877961059+878698653+879492446+880350329
2490.97+881283969+882298031+883414337+884653472+885968637+887274127+888526368
2484.22+889703677+890777164+891711902+892452102+892965995+893287067+893472821
2477.47+893556125+893537117+893399192+893138574+892785182+892394942+892032836
2470.72+891754926+891630175+891704559+891968676+892432614+893132124+894059656
2463.97+895178775+896450299+897809998+899177727+900477864+901629235+902552787
2457.22+903189578+903528766+903564585+903267942+902668823+901850259+900872428
2450.46+899788648+898668843+897563585+896513086+895565791+894759783+894113111
2443.71+893631744+893321171+893144201+893029331+892935940+892851469+892758901
2436.96+892628318+892437486+892151205+891727753+891160748+890455818+889591758
2430.21+888536936+887282842+885849170+884273936+882615946+880962760+879407083
2423.46+878028444+876873368+875949747+875283724+874877976+874673832+874619279
2416.71+874661000+874729894+874779575+874792819+874759538+874669921+874495489
2409.96+874202415+873783972+873237415+872560070+871771149+870928842+870102730
2403.21+869352922+868767527+868423193+868331037+868505606+868978396+869786873
2396.46+870948330+872438819+874190063+876104210+878074213+880002770+881808979
2389.71+883426277+884808415+885939748+886831118+887504415+887979812+888288052
2382.96+888501871+888728797+889034429+889457881+890125482+891191421+892659059
2376.21+894430066+896556453+899202430+902440663+906225109+910355329+914402383
2369.46+918045541+921567859+925540598+929892117+933754378+936406393+938095810
2362.71+939711736+941606532+943032381+943026137+941533521+939174306+936273408
2355.96+932844824+929026960+924996924+921155524+918297856+916936097+916219158
2349.21+914579490+911739526+909225574+908936754+911187138+914418920+916381376
2342.46+916050285+913798324+910277103+905563271+899506415+892396246+885130379
2335.70+879504660+877410523+879407769+884217531+889989204+895302497+899205929
2328.95+901457960+902692909+903750339+904806808+905715676+906656795+907832663
2322.20+909037213+909983342+910772400+911630215+912445760+912862900+912765734
2315.45+912322108+911831820+911497779+911300840+911126135+910954036+910837795
2308.70+910777272+910746736+910825786+911208204+912030542+913286489+914868105
2301.95+916701761+918726592+920816474+922821130+924646620+926214375+927457215
2295.20+928374249+929014745+929408623+929517659+929328818+928872428+928209562
2288.45+927406780+926519801+925661506+924993150+924681342+924866272+925667544
2281.70+927148838+929244622+931803657+934633877+937538481+940379062+943058113
2274.95+945492810+947591475+949313898+950691439+951763622+952558170+953059986
2268.20+953281147+953271815+953114607+952848706+952529899+952268732+952127718
2261.45+952129846+952324177+952812132+953607709+954661845+955915664+957313173
2254.70+958810593+960390150+962037092+963696522+965344425+966943470+968159892
2247.95+969092708+969750291+970085498+970075205+969776503+969258699+968612576
2241.20+967921781+967230643+966610321+966136639+965884462+965918223+966277172
2234.45+966971741+967980657+969259797+970731964+972311453+973909332+975446756
2227.70+976849481+978046346+978973604+979554401+979728627+979493055+978908690
2220.94+978046209+976961811+975725284+974424323+973153005+972008360+971095923
2214.19+970506343+970296710+970476219+971023873+971925536+973123979+974484983
2207.44+975894500+977305047+978663992+979899284+980938941+981706933+982138551
2200.69+982180546+981805883+981036862+979956101+978667148+977245622+975785601
2193.94+974422401+973247838+972302121+971646665+971345425+971428180+971902342
2187.19+972743277+973857387+975137007+976536438+977987676+979325486+980400071
2180.44+981162573+981599886+981719147+981601327+981343798+980966115+980434037
2173.69+979779748+979103227+978444409+977838016+977424308+977323368+977548235
2166.94+978087861+978941696+980103977+981541354+983221164+985120352+987165220
2160.19+989248308+991273825+993141105+994748179+996041454+997007551+997625884
2153.44+997880051+997814245+997545736+997196530+996904553+996835110+997094355
2146.69+997726892+998773686+1000246814+1002095703+1004249951+1006635172
2140.90+1009178562+1011830645+1014550525+1017279531+1019981501+1022610665
2135.12+1024979418+1026885193+1028272204+1029147585+1029518543+1029405252
2129.33+1028870979+1028015909+1026962528+1025841625+1024781244+1023908607
2123.54+1023311753+1023042970+1023133479+1023616768+1024521999+1025844369
2117.76+1027524729+1029460766+1031599505+1033861485+1036061022+1038041936
2111.97+1039736019+1041079730+1042006714+1042486984+1042512098+1042103742
2106.18+1041300823+1040154462+1038748307+1037209922+1035704130+1034354724
2100.40+1033260582+1032524087+1032231012+1032404620+1033029197+1034065629
2094.61+1035443856+1037052714+1038756404+1040532351+1042362919+1043956406
2088.83+1045100777+1045902118+1046393710+1046434950+1045988305+1045098101
2083.04+1043815461+1042206054+1040345362+1038330687+1036295976+1034382515
2077.25+1032683971+1031276581+1030283791+1029797483+1029793091+1030192664
2071.47+1030942746+1031979864+1033200815+1034434597+1035489008+1036445429
2065.68+1037503134+1038098890+1037755997+1036927963+1035921243+1034541644
2059.89+1032757325+1030691186+1028453017+1026141767+1023853025+1021713394
2054.11+1019841311+1018313630+1017178042+1016472151+1016213935+1016367987
2048.32+1016852305+1017574047+1018439547+1019333045+1020099252+1020607107
2042.54+1020993504+1021235114+1020783803+1019606906+1018179547+1016479562
2036.75+1014386112+1012017291+1009539158+1007092385+1004819357+1002873920
2030.96+1001421926+1000615645+1000529047+1001152320+1002459251+1004435498
2025.18+1007032137+1010182743+1013809089+1017725422+1021674143+1025513279
2019.39+1029188620+1032851609+1036664189+1039813010+1041697033+1043012267
2013.61+1044173382+1044842630+1044972458+1044765844+1044430362+1044134474
2007.82+1044008351+1044182439+1044794596+1045934918+1047593388+1049699396
2002.03+1052154060+1054872087+1057834538+1060879743+1063660901+1066038093
1996.25+1067975846+1069094690+1069211961+1069584360+1070760502+1070179705
1990.46+1067320870+1065127990+1063960083+1062258657+1060132749+1058461859
1984.67+1057331898+1056558554+1056214564+1056381721+1057100924+1058394475
1978.89+1060209329+1062396445+1064764374+1067132098+1069330330+1071221284
1973.10+1072684050+1073582351+1073741823+1072894713+1071350151+1070184989
1967.32+1068940913+1066285673+1062683687+1059358650+1056364772+1053508133
1961.53+1050849462+1048374555+1046147228+1044290996+1042681726+1041325663
1955.74+1040530704+1040341794+1040715017+1041815197+1043484714+1045094190
1949.96+1046063992+1045945211+1044628193+1042274125+1038325609+1031878513
1944.17+1024530576+1018120534+1010229336+999589574+990028446+983271737
1938.38+978686019+976489090+976848726+979170748+982566258+986196790+989409565
1931.63+992026584+994266400+996336725+998308375+1000084528+1001195481
1925.85+1000903093+999512514+998399365+996713516+991895383+984660326+977704482
1919.10+973170297+969105197+962291396+954962262+950151608+946967447+944172909
1912.35+941899470+940918139+941344199+942165851+942994297+944167282+945533432
1905.60+947190255+949140977+950901004+952322873+953490506+954292053+954592539
1898.85+954254175+953069730+951511651+950380249+949003051+946508587+943702247
1892.09+941485075+941123655+943691611+946503921+947400026+948741816+951820920
1885.34+955558430+959045203+962000655+964628309+967117490+969367050+971221841
1878.59+972520057+973303008+973675819+973574262+972892113+971495153+969063133
1871.84+965608473+962979583+962854970+963341484+962095075+960807769+960849010
1865.09+961856965+963612875+966058344+968965144+971942416+974752325+977530737
1858.34+980075225+981904215+983015511+983535580+983397654+982629800+981357247
1851.59+979629883+977589819+975872679+974845648+972990376+969491869+968321766
1844.84+972512921+976772489+976752041+976679578+979326584+983054487+987027569
1838.09+991455599+995721000+998834277+1001080337+1002947274+1003526287
1832.30+1002772980+1003580154+1007006199+1008090596+1004008821+999173739
1826.52+997847045+998818769+997943593+995210127+993321506+992730210+992584462
1819.77+992776872+993659390+995169161+996596245+997691416+998762432+999862337
1813.02+1001027294+1002550652+1003888119+1003605337+1001774151+999698131
1807.23+997361766+994077833+989780180+984825562+979730685+974541937+969188776
1800.48+964131365+959211400+954300836+950747707+949231829+948644033+948913640
1793.73+951719980+956503323+960017956+961009786+960649052+960028112+959399899
1786.98+958690439+957940632+956508195+953357384+948970114+944752883+940850686
1780.23+936157921+930375063+924522419+919546734+915468459+911911007+909721077
1773.48+910357388+912617653+913420778+912548278+912868389+915556292+918414509
1766.73+919515101+919300458+918611379+918092271+918220247+917697159+914505656
1759.98+909341267+904566845+901150475+898066362+893782364+888446975+883624039
1753.23+880677920+880063979+880519477+880589332+880982180+882361710+883790030
1746.47+884755372+885884647+887713774+889475859+889974176+890143118+891627293
1739.72+892813797+890905002+886467571+882281220+880847273+882376258+882946076
1732.97+878881250+873278244+870235372+869581700+869000491+868028836+867570319
1726.22+867880412+868823246+870192210+871235847+871111028+869963294+869197018
1719.47+870372474+872687017+872709593+869445078+865733987+862234107+857379468
1712.72+851379154+845549909+840091417+834291747+828314832+823506031+820320979
1705.97+817602883+814123795+809579111+805406072+804893071+808951790+812066301
1699.22+808780583+803525480+802444102+804742656+804702377+800084407+794200198
1692.47+789304524+785132514+780764869+775369232+768573204+761052003+755054846
1685.72+752779485+752754576+750082181+743888428+738412300+736116422+735464878
1678.97+734432768+733358046+733988044+736636010+738355003+736701954+733802085
1672.22+731952989+730838399+729670766+727473837+722658449+715649631+708404761
1665.47+701868527+696322476+691541672+686277922+679981857+673866057+668848171
1658.72+664529109+660265835+656257414+654125400+655882819+661034993+664301017
1651.97+661136002+655068852+650939523+649994561+650663192+650757338+648489388
1645.22+643200386+636219359+629144324+621987973+614122438+605460435+596509404
1638.47+587870868+579886347+572401548+564068610+553736574+543296530+534745793
1631.71+527661151+520920979+514174872+507350813+499793380+491128220+482272056
1624.96+474003930+465431543+454898279+442413849+429222086+415871502+402369235
1618.21+388499132+373217830+356172556+339763249+325975626+314308731+303397578
1611.46+292459424+281296626+270106346+259575621+250647356+244044115+240146137
1604.71+239016708+240326178+243501161+248004244+253478296+259756983+266845074
1597.96+274771852+283303427+291871559+299753871+306385898+311661657+315991732
1591.21+319999501+324239342+329129114+334882191+341502758+348810106+356534182
1584.46+364420096+372214370+379627426+386327627+392058746+396863258+401475772
1577.71+407342483+415097781+422844912+428453716+432753359+437333725+442938309
1570.96+450253857+459155858+467588810+474214832+480601784+488526126+497696671
1564.21+506199751+512843203+518765188+526594183+538216064+551973562+562509948
1557.46+566369670+566482755+567730296+570677066+572205193+571258859+569725654
1550.71+568449396+566250889+562358607+557888513+554209673+551308328+548019145
1543.96+544093857+540679134+538297069+537052754+536826446+535196213+530519436
1537.21+524987040+520844674+518439347+516554535+513211005+507568372+500858701
1530.46+494279340+487985883+481342465+473672942+465035950+455533183+445351321
1523.71+435455295+425881918+414638784+400099226+383881780+368325519+353029361
1516.95+336747755+320841156+307831235+298134824+290252271+282292367+273558775
1510.20+264466629+255107174+244821559+232548974+218201998+204057622+192547866
1503.45+183648489+175860769+167882612+159020444+148703298+136845460+124624880
1496.70+113466337+104320238+97789434+93467481+90234420+87108629+83497619
1489.95+79247709+74654468+69914222+64794943+59149830+53067083+46641786+40005908
1482.24+33367225+27020433+21326935+16525389+12599833+9412200+6888415+5058532
1474.52+3874837+3151503+2738250+2541950+2477522+2467221+2458325+2438269+2413674
1465.84+2396407+2382818+2365270+2343691+2319149+2290156+2250113+2203873+2162755
1457.16+2145773+2163120+2203375+2249751+2287791+2316025+2336260+2354422+2376128
1448.48+2405705+2440659+2471451+2498935+2523953+2546709+2570892+2610066+2675727
1439.80+2773663+2928762+3202548+3682062+4412565+5422618+6832865+8828079
1432.09+11572199+15229086+19941335+25568847+31706241+38092614+44714734+51689645
1424.37+59080134+66514652+73346096+79522539+85782767+92687952+99657828
1417.62+105862071+111344727+116317623+120745259+124565953+127779697+130458422
1410.87+132726356+134760879+136726190+138717569+140810221+143056865+145259378
1404.12+147000277+148197725+149070448+149682690+149891603+149288419+147552666
1397.37+144965651+141689489+136921816+129680189+120202554+109169010+96444384
1390.62+82036200+66728316+50975730+35334074+22207375+13503870+8465672+5652811
1382.91+4108887+3256803+2767778+2488979+2352013+2291358+2251620+2233392+2309497
1374.23+2558505+3032943+3757485+4687919+5667726+6434432+6774664+6780893+6955331
1365.55+7941786+10370413+14929730+21694968+29530831+37360617+44687230+51248369
1357.83+56891796+61380880+64670154+66963695+68571437+69947168+71530268+73544390
1350.12+75991146+78645871+81135386+83169291+84545142+85066086+84607080+83286125
1342.40+81652324+80627308+81045974+83147856+86594479+90992248+96036088
1335.65+101249257+106261532+111104669+115836951+120382046+124581899+128231515
1328.90+131179264+133435069+135226352+136828416+138343686+139588910+140246725
1322.15+140114460+139218149+137737791+135799927+133559931+131256624+129042103
1315.40+126993307+125153758+123521192+122100198+120994460+120278447+119881989
1308.65+119698782+119735820+120143481+121073072+122489752+124175610+125994633
1301.90+127980951+130207660+132721990+135537431+138626322+141938081+145447636
1295.15+149102974+152779996+156321699+159676054+163058903+166852047+171358646
1288.40+176587349+182203083+187799261+193172785+198230573+202841715+206933526
1281.65+210487495+213490809+215955355+217922373+219421456+220420474+220907176
1274.90+220931999+220601064+220073395+219488669+218956283+218596013+218488040
1268.15+218629070+219067207+219922638+221295529+223226248+225692166+228696886
1261.40+232351058+236644971+241240793+245751305+249961690+253650755+256520483
1254.65+258302863+259005529+258979985+258633198+258179965+257717708+257395864
1247.90+257441805+258113592+259560525+261729234+264471346+267690160+271353166
1241.14+275419519+279813857+284414792+289033996+293442093+297419120+300764640
1234.39+303384095+305385629+306943982+308100499+308730257+308689771+307979248
1227.64+306751676+305196478+303507027+301949840+300827530+300363112+300601977
1220.89+301427403+302704862+304415346+306585479+309077026+311609746+313996031
1214.14+316237631+318388893+320406690+322126781+323357956+324019381+324148420
1207.39+323832358+323159164+322212075+321050446+319701486+318222628+316731487
1200.64+315383110+314277543+313425389+312866516+312876088+313779398+315534039
1193.89+317736114+319828741+321285297+321792225+321391589+320574912+320050897
1187.14+320260153+321025846+321757744+321944733+321390182+320093613+318011794
1180.39+315062793+311265927+306823315+301927744+296477692+290119766+282596970
1173.64+274051087+265053859+256748729+250978514+249531033+252642491+258635497
1166.89+265524916+272384778+278836987+284140553+287485798+288607971+287730445
1160.14+285262794+281695272+277680144+273962791+271258162+270149250+270919935
1153.39+273530710+277750994+283217909+289376134+295652162+301791088+307963946
1146.64+314544268+321785432+329701025+338047653+346414592+354282048+360977686
1139.89+365882142+368837799+370249616+370752804+370915639+371119474+371658310
1133.14+372842034+374868718+377780458+381567889+386220100+391681612+397878898
1126.38+404724298+412126101+420045880+428373431+436846765+445136130+452977717
1119.63+460202755+466548295+471513308+474576870+475496134+474239021+470976668
1112.88+466246574+460846065+455444801+450386876+445814058+441774244+438390915
1106.13+436025765+435199721+436266963+439136159+443307895+448061251+452605763
1099.38+456185174+458194976+458185816+455931315+451830292+446916880+442030607
1092.63+437289740+432631559+428218900+424133728+420186550+416113799+411771955
1085.88+407175017+402483590+397889740+393623927+390075876+387604880+386236328
1079.13+385702295+385801622+386729327+389016662+392974682+398207449+403730033
1072.38+408425783+411376396+411990268+410139938+406185315+400718931+394269947
1065.63+387329715+380514268+374469351+369719117+366623613+365398339+366103372
1058.88+368619520+372676043+377920820+384095771+391041252+398498637+406185486
1052.13+413924624+421329618+427675740+432310865+434826189+434917316+432376019
1045.38+427253043+419903357+410856396+400750119+390220835+379728606+369542490
1038.63+359939641+351179614+343295963+336315245+330670587+327160003+326412562
1031.88+328811199+335100607+345777870+359316848+372591572+383355604+391052678
1025.13+395793545+397662334+396903092+394525384+392234069+391188099+391129840
1018.38+391084105+390476478+389526644+388886490+389062088+390249106+392584578
1011.62+396486536+402336915+409741497+417726979+425481865+432464367+438281398
1004.87+442822136+446257856+448856245+450800104+452104085+452678981+452522185
998.12+451817220+450719682+449314762+447790752+446353444+445067785+443937000
991.37+443087694+442759658+443134390+444179674+445718162+447651763+449943559
984.62+452389851+454491365+455597171+455161436+452852005+448534247+442262233
977.87+434295450+425040743+414837918+403851901+392399717+381269702+371573976
971.12+364157043+359031699+355549248+353020921+351052633+349567633+349065200
964.37+350898376+356227932+364481305+373780546+382510655+389798584+395293170
957.62+399096864+401624403+403413421+405097795+407257121+409871292+412163773
950.87+413306223+412995959+411523448+409822434+409198681+410484271+413536614
944.12+417683989+422364917+427275482+432300538+437416103+442567042+447666756
937.37+452608714+457313316+461797889+466077975+470036955+473428896+475974654
930.62+477499349+478049405+477791807+476791160+474893550+471825151+467455138
923.87+461763476+454664046+446318962+437794095+431290387+429458137+433952386
917.12+444158676+457410516+470620772+481629810+489263376+492787513+491801379
910.37+486828303+479838939+473239129+467736788+461889736+454030069+444107143
903.61+433617624+423934491+415083096+406387023+397519503+388635891+380015505
896.86+371838094+364277711+357513076+351603752+346504758+342120027+338383272
890.11+335395775+333392285+332498445+332449107+332348511+330968534+327538029
883.36+322020008+314687614+305811689+295930209+286191459+278006499+272142293
876.61+268345512+265883814+264121060+262757483+261945575+262179997+263956098
869.86+267480870+272582746+278678338+284892248+290379835+294563579+297358014
863.11+299451430+301985247+305456307+309263089+312534328+314957393+316842651
856.36+318549841+319864423+320250889+319675890+318945742+319163335+320765503
849.61+323407911+326978469+332127006+339187563+347007672+353985988+360336057
842.86+367849744+376920619+385356829+390362295+390352002+385236024+375996448
836.11+364261482+352026552+340750069+330731556+322089109+315102180+309083031
829.36+302674018+295301618+287317337+279223110+271242431+263331607+255386542
822.61+247596780+240474517+233824031+226077998+215822781+203378733+190297311
815.86+178345832+168907259+162323386+157933525+155108932+153832982+154188433
809.11+155703196+157431881+158944259+161200630+166085290+175018428+188303496
802.36+205523940+225447571+245689512+263558138+277138409+285680585+289999098
795.61+292467075+295252933+298050421+298319651+294127912+286895703+280839361
788.85+278346562+276671417+270791668+258330997+241281862+224644566+213453377
782.10+210114959+213433477+219578184+224722501+226926034+226033378+223233779
775.35+220199209+217024690+211729735+203154604+193309579+184841100+177351086
768.60+169156365+161002370+155149709+152551097+152574205+153974390+155514766
761.85+156600193+157239505+157403747+156822984+155070213+151638747+146112321
755.10+138400160+128899597+118632020+109222894+102307321+98269960+95883178
748.35+93655456+90815440+87232951+83140565+78962757+75201865+72532789+72127984
740.64+75097726+81309954+89316983+97502260+104653018+109765650+112346094
733.89+112574203+110588606+105826732+97877687+87665855+77515661+70460234
727.14+68069308+68793101+69616396+68999075+68190499+69537238+75522559+88124990
719.42+108052018+134266173+164499540+196245491+227764636+258512753+288649589
712.67+318331562+347242626+374559140+399401638+421402800+440409124+455572914
705.92+465602543+469885203+468378280+460189786+443019006+415619634+382487805
699.17+354895954+344693644+356688267+386456323+425465911+468476577+513308102
692.42+556457517+595774350+633509978+671216924+706370530+736684181+763165559
685.67+787445273+809286379+827311955+840186318+846633140+844827000+831919357
678.92+804889228+763893477+716175326+675832080+657337420+666948640+698785238
672.17+738683142+772436494+792394813+800302137+805955441+816823775+830304941
665.42+840931528+848711288+856855625+866969142+878292699+889544754+899911614
658.66+908796907+915443893+919026734+919020421+915366833+908438369+899017843
651.91+888067577+876369357+864519281+853165394+843039663+834849762+829222465
645.16+826604006+827103694+830469903+836257016+844015298+853359862+863824300
638.41+874645835+884844578+893524834+900006721+903810930+904806053+903279127
631.66+899579907+893685473+885216565+873841955+859968009+845780540+833891968
624.91+825055808+818638835+814321145+812439112+813701235+818501321+826741863
618.16+837862374+850469462+863235543+875870148+887805999+897858101+905008001
611.41+908643885+908589195+905023097+898268584+888792956+877327562+864587283
604.66+851237592+838119629+826068292+815900634+808129931+802796258+800244222
597.91+800920195+804518476+810552276+818608299+828241958+839304692+850694810
591.16+860204747+866894415+871155768+872727159+871312495+867487838+861589974
584.41+853119762+842156047+830020650+817593962+804815462+792303343+781721634
577.66+774388725+770441719+769187556+770647510+775261019+782502526+791324414
570.91+801106909+811423815+821380810+829648800+835334972+838775977+840898728
564.16+841632204+840172800+836273827+830087623+821819908+811910740+800997461
557.41+789743141+779162118+770499771+764503986+761417403+761245579+763935541
550.66+769281154+776669919+785580052+795934424+807570475+819564652+830529808
543.90+839416816+845431677+847388918+844276190+836690280+827320190+819066610
537.15+812238949+804914206+796204854+786889522+778047871+771413306+768811452
530.40+770326575+774794542+781601412+791426108+804302735+817951677+831216486
523.65+845142308+859438883+872882308+885223084+895348746+901865973+904767694
516.90+903473870+897721616+889381439+879580965+868588292+857489808+847249139
510.15+837962353+830161389+825246639+823304976+823259549+825561604+831561231
503.40+842111238+855961510+869639684+881905389+893306967+902828227+909045173
496.65+911617109+910863801+907544803+902899317+897234485+889004442+877688776
489.90+864736942+851221191+837787441+824836087+812167241+800429633+791406895
483.15+787470937+789530763+794742636+798854261+800318126+800543885+801518628
476.40+804017209+808552697+817565623+833409160+852344016+866270387+872875995
469.65+873639458+867979979+854611966+833653858+807304436+782049430+767767952
462.90+769103017+779916729+790333957+797651495+806166104+817203585+826624111
456.15+834016101+843099705+854300570+865036399+872671715+876826776+878449495
449.40+877762817+874579617+868166281+857597404+844399637+830725580+816128932
442.65+799975645+783185155+767501707+754446257+744836890+739381142+738214538
435.90+740488321+745950176+754808638+766704621+781246579+797941413+815323611
429.14+831311798+844289845+853719018+859546067+861919348+862224020+860355093
422.39+854562354+847552438+843136828+838794024+829884371+819101057+812482892
415.64+811474182+814595693+820740588+829772315+841816379+856554522+872985581
408.89+889938905+906726650+922890848+937409819+948767823+956275163+960443399
402.14+961463911+958775871+952394237+943998341
##END=
