##TITLE=√ _4_250ÏÍÏ
##JCAMP-DX=4.24
##DATA TYPE=INFRARED SPECTRUM
##DATE=9/3/2017
##SAMPLING PROCEDURE=Instrument type and / or accessory
##ORIGIN=Default
##XUNITS=1/CM
##YUNITS=TRANSMITTANCE
##RESOLUTION=2
##FIRSTX=3998.2792
##LASTX=399.2493
##DELTAX=-0.96437028
##MAXY=0.97692376
##MINY=7.0136907e-006
##XFACTOR=1
##YFACTOR=9.0983116e-010
##NPOINTS=3733
##FIRSTY=0.75553638
##XYDATA=(X++(Y..Y))
3998.28+830413833+833910130+837172223+840140168+842737448+845085979+847375419
3991.53+849583624+851570464+853293096+854893221+856470482+857944563+859244316
3984.78+860394048+861392512+862204203+862865675+863526427+864237557+864848979
3978.03+865242115+865402815+865263668+864793949+864077643+863133684+861909007
3971.28+860484847+859004281+857426954+855729086+854100660+852648723+851298394
3964.53+850032576+848975150+848141513+847375157+846719711+846388615+846379443
3957.78+846524290+846715191+846984772+847430907+848005707+848561771+849147839
3951.03+849847046+850463119+850895955+851324795+851833298+852568274+853758492
3944.27+855279216+856604388+857353515+857874465+858725725+859844535+860879817
3937.52+861795082+862815493+864062248+865429282+866696279+867598638+868077071
3930.77+868405874+868674211+868693274+868546332+868517375+868520192+868128301
3924.02+867265708+866453755+866120365+866074507+865834865+865357939+864919862
3917.27+864377883+863527148+862718077+862268274+862016839+861701204+861269416
3910.52+860801662+860394899+860148247+860115164+860162660+859948305+859170615
3903.77+857912069+856592203+855469004+854567628+853724426+852594348+851246967
3897.02+850174016+849551981+849215579+849007513+848770295+848114981+846712308
3890.27+845086175+844272912+844621107+845606404+846303319+846123685+845617934
3883.52+845758916+846738382+847986381+848714610+848722340+848798334+849671933
3876.77+851308810+853240359+854866296+855848252+856719296+858235107+860056727
3870.02+861009072+860879883+861009269+862339354+864318530+865686743+865947545
3863.27+865741838+865517395+865140833+864756214+864755952+865151970+865693032
3856.52+866394663+867359193+867905037+866947386+864834894+862975997+862136791
3849.77+862195687+862627147+863138990+863793322+864634755+865438650+865845085
3843.02+865918589+866194525+866802408+867347139+867553763+867222077+866402787
3836.26+865738563+865489618+865396591+865480577+865639444+865380082+864784318
3829.51+864534129+864790477+865012889+864747632+864299990+864452305+865612125
3822.76+867359258+868525171+868199447+867204389+867171174+868482261+870020346
3816.01+870385574+869604543+868988601+869158146+869792365+870566059+871516897
3809.26+872775444+874108936+874827010+874713675+874845812+876294342+878845764
3802.51+881283063+882424671+882456314+882881812+884512793+886747400+888520672
3795.76+889457359+890081031+890893508+891840939+892667763+893249966+893603337
3789.01+893849530+894167328+894671244+895280045+895754743+896011025+896365640
3782.26+897227186+898609353+899979859+900656792+900638842+900605234+900950743
3775.51+901540677+902169852+902830014+903624016+904489885+904964977+904593984
3768.76+903808039+903522408+903818848+904004771+903781245+903630437+904019511
3762.01+904968645+906169149+907091882+907497465+907905865+908814055+910185937
3755.26+912095212+914792200+917929427+920530965+922155853+923316591+924220719
3748.51+924990482+926392434+928637522+930610671+930770454+929372040+928607190
3741.76+929295588+930660329+932120717+933685728+935320705+936751613+937613747
3735.01+937835832+938025096+938674055+939385317+939828635+940515002+941842991
3728.26+943543217+945034265+945924898+946412960+947007414+947745535+948077811
3721.50+947721361+947078167+946359241+945324548+944020012+942854820+942119450
3714.75+941934183+942235996+942467056+941953902+940960809+940150560+939601374
3708.00+939427965+939914979+940943842+942181752+943440953+944451800+944652004
3701.25+943796748+942537284+941658051+941351128+941471670+941894483+942596245
3694.50+943664807+945232569+947253935+949315262+950987974+952254841+953004426
3687.75+953157265+953516401+954772130+956641967+958555566+960349081+962155830
3681.00+964015840+965766577+967412429+969384792+971754025+973353232+972870280
3674.25+971236285+970700006+971908108+973626023+974324313+973779190+972940115
3667.50+972672041+973232822+974361917+975689775+977066308+978505929+980014010
3660.75+981502503+982884604+984173221+985241390+985560891+984815629+983820637
3654.00+983747656+984877014+986511860+987409830+986636070+984441819+981689866
3647.25+978793198+976150978+974575878+974507484+975622363+977296713+979113289
3640.50+980952662+982757446+984389803+985804071+987198751+988774047+990379281
3633.75+991724303+992990449+994714850+996832190+998260543+997906911+996341180
3627.00+995221977+995171991+995814530+996819088+998170596+999880518+1001759658
3620.25+1003447306+1004737560+1005844578+1007185080+1009043387+1011347042
3614.46+1013668452+1015628826+1017223775+1018855477+1020937506+1023200545
3608.67+1025022754+1026290800+1027250547+1028125850+1029102958+1030188160
3602.89+1031246241+1032165895+1032872636+1033360699+1033742043+1034192502
3597.10+1034882865+1035773497+1036598487+1037261400+1037890444+1038651494
3591.31+1039798671+1041448388+1043239283+1044560262+1045146331+1045180855
3585.53+1045077281+1045189831+1045436417+1045513655+1045329698+1044930404
3579.74+1044388360+1043875992+1043538213+1043317963+1043116645+1042916376
3573.96+1042723837+1042648564+1042890564+1043559439+1044596687+1045691258
3568.17+1046275557+1046056682+1045443492+1045112723+1045433927+1046122456
3562.38+1046667186+1046820484+1046487160+1045797911+1045109120+1044519776
3556.60+1043874158+1043231225+1042823349+1042662190+1042450653+1041927017
3550.81+1041367612+1041288146+1041793504+1042581873+1043356549+1044014418
3545.03+1044503398+1044845108+1045149475+1045404971+1045537960+1045572550
3539.24+1045567768+1045578119+1045433338+1044695020+1043315670+1041859999
3533.45+1040708564+1039786355+1038929526+1038109319+1037365695+1036668388
3527.67+1035956209+1035334634+1035137116+1035484787+1035822369+1035552657
3521.88+1034969340+1034743062+1034870941+1034903304+1034629924+1034150640
3516.09+1033610233+1033050042+1032329019+1031238445+1029821819+1028383639
3510.31+1027014902+1025472689+1023819762+1022529835+1021759351+1021354161
3504.52+1021185272+1020988540+1020436865+1019722984+1019347143+1019474628
3498.74+1019899996+1020312262+1020391924+1020034689+1019419599+1018677612
3492.95+1017745314+1016541012+1015076955+1013484298+1011816172+1009932316
3487.16+1007791129+1005491666+1003106907+1000830635+998840584+997007172
3481.38+995240713+993650153+992146003+990636743+989328211+988402595+987698278
3474.63+986973652+986283879+985808526+985553554+985398946+985160549+984693450
3467.88+983980354+982956602+981599526+980155450+978849604+977639208+976487250
3461.12+975490619+974633005+973838740+973205372+972875651+972814398+972891309
3454.37+973060198+973346550+973748072+974251857+974869830+975667959+976699311
3447.62+977645825+978060318+978164351+978456009+978875743+979108048+979070903
3440.87+979021572+979241037+979758318+980466107+981293389+982284582+983364413
3434.12+984310927+985214989+986429708+987938903+989321528+990390484+991241809
3427.37+991877797+992299890+992562723+992640289+992466748+992042560+991368706
3420.62+990260246+988627038+986816883+985147970+983603400+982140915+980807619
3413.87+979625656+978503309+977413258+976568091+976094834+975766293+975356123
3407.12+974930100+974596646+974319727+974019225+973643777+973106777+972251521
3400.37+970954453+969219178+967220741+965058329+962858968+960746017+958766252
3393.62+956946335+955239753+953530355+951800582+950197116+948934705+948079383
3386.87+947489056+946992870+946493016+945936362+945296705+944600184+943796944
3380.12+942652323+941054687+939201884+937190869+934873259+932240014+929488192
3373.37+926777184+924198838+921815061+919576852+917373757+915204007+913169736
3366.62+911314443+909628170+908185208+907097450+906365029+905852596+905398206
3359.87+904917612+904411140+903929236+903485132+903010892+902466162+901921759
3353.12+901495539+901209646+900886869+900305584+899507454+898750662+898200363
3346.36+897860947+897720751+897797204+897991839+898120177+898227354+898572208
3339.61+899197911+899835340+900259332+900476635+900646507+900941703+901377159
3332.86+901829322+902202346+902460003+902616052+902731943+902873776+903058781
3326.11+903162421+902998117+902615987+902275522+902133820+902230712+902603147
3319.36+903247717+904125181+905212087+906457662+907750930+908989496+910105423
3312.61+911058292+911901559+912722094+913453860+913919256+914091879+914094238
3305.86+913936616+913503977+912751247+911794251+910806071+909879538+909055990
3299.11+908398121+907948252+907660065+907460058+907346395+907385899+907627637
3292.36+907926633+908022542+907913334+907800588+907708544+907516791+907168137
3285.61+906620066+905794683+904654975+903250599+901677793+900004622+898261420
3278.86+896517366+894888481+893397761+891962398+890540334+889152075+887856383
3272.11+886690929+885540738+884235941+882775421+881315557+880007811+878887167
3265.36+877882544+876919652+875993840+875119389+874226202+873195898+871990678
3258.61+870654697+869238136+867756587+866138578+864294815+862338830+860529722
3251.86+858979780+857644257+856509003+855608217+854848935+853999051+852900943
3245.11+851522510+849928740+848264806+846550298+844643447+842454830+840013272
3238.36+837394767+834635149+831751321+828837030+825918285+822798483+819323346
3231.60+815677289+812144109+808798030+805593194+802468611+799385496+796369072
3224.85+793429952+790500463+787491769+784376292+781171849+777824853+774203887
3218.10+770244291+765976396+761460473+756704253+751584181+746063964+740323954
3211.35+734478863+728488271+722384212+716334528+710425695+704600781+698861885
3204.60+693303016+687944808+682715266+677567941+672507944+667544379+662624511
3197.85+657659571+652648380+647619828+642546400+637427180+632281755+627090471
3191.10+621879338+616731948+611665333+606658662+601763951+597050576+592550572
3184.35+588325064+584438382+580899633+577713009+574888011+572387755+570106766
3177.60+567972458+566026628+564278053+562629581+561021529+559494515+558121782
3170.85+556949776+555968803+555130383+554399272+553772521+553274173+552944452
3164.10+552832886+552976029+553347022+553908785+554704098+555795852+557160462
3157.35+558735758+560520102+562536554+564790290+567262835+569856839+572456935
3150.60+575053494+577691915+580376980+583064534+585673671+588128266+590402376
3143.85+592507269+594470264+596320512+598070790+599715922+601273267+602831596
3137.10+604513545+606384757+608432066+610585437+612717583+614717068+616577995
3130.35+618279008+619699827+620759807+621435365+621670355+621421869+620693378
3123.60+619446428+617559623+614946162+611646924+607775834+603528903+599193596
3116.84+594922033+590602318+586076569+581304037+576281381+571005653+565555729
3110.09+560087855+554740850+549622875+544871569+540611273+536749092+532843707
3103.34+528209896+522102725+513768679+502467834+487616546+468870322+446056898
3096.59+419318533+390027470+361442525+337566533+321250205+313057107+311564782
3089.84+314876500+321818454+331883322+344441927+358284465+371928436+384158500
3083.09+394198243+401578668+406031470+407390773+405356338+399290244+388245222
3076.34+371484725+350011835+328169558+312149933+305266809+305427738+307856784
3069.59+309195844+308626645+306719139+304418988+302566807+301577546+301396046
3062.84+301657635+301867207+301615805+300771752+299519691+298169985+296842094
3056.09+295379184+293544854+291147648+288021950+284036706+279110123+273160901
3049.34+266053415+257645078+247820803+236407229+223198157+208078369+191076511
3042.59+172487711+153123678+134422821+118124706+105576377+97125589+92066132
3035.84+89112059+87026238+85035606+82886492+80700569+78823059+77652028+77427233
3028.12+78150188+79646059+81655714+83906355+86140568+88142190+89754009+90899678
3020.41+91574859+91796502+91587421+90987284+90039656+88733155+86998748+84778300
3012.69+82066883+78920459+75405786+71558959+67410767+63023751+58482656+53858209
3004.98+49230650+44708025+40364173+36216046+32264342+28485158+24847685+21376067
2997.26+18136349+15167468+12476727+10057785+7917609+6081201+4563032+3334512
2989.55+2355040+1600383+1048576+671586+428216+270491+166533+101598+56262+27278
2979.90+20181+32933+51503+66220+66742+59638+52961+62003+91640+124239+138379
2969.30+122309+92340+77377+77191+76433+74094+75384+78674+79048+69539+53248
2958.69+43907+53143+67504+70231+69806+75317+82693+76892+54304+36224+40104+63197
2947.12+81253+75362+58601+46568+30085+15900+23992+38221+39125+42200+54092+65268
2935.54+64480+44959+25932+29701+57517+85970+89314+76320+70804+71107+59227+34934
2923.97+13866+8935+23245+40318+44940+42930+39713+40542+41570+43404+58240+73721
2912.40+68601+48098+30920+32474+43750+43359+37528+31772+32180+43743+55025+58131
2900.83+64713+76776+77959+74840+80820+69723+28429+11077+10969+18334+33637+47484
2889.25+50397+42899+39297+37565+36614+43350+47281+45366+48827+50322+33059+8023
2877.68+10866+24248+50830+59415+64477+67834+61913+66798+88949+107566+111619
2867.07+103588+83999+62448+58303+73373+89047+88447+80088+84623+95568+96900
2856.46+103209+122878+133015+130779+136887+152516+166834+165271+143605+133215
2846.82+159702+195914+203794+193532+181820+169508+148200+108603+77084+83810
2837.18+105831+113213+107695+114225+140606+204833+335259+527767+763118+1076080
2827.53+1525551+2143771+2925023+3847182+4908208+6122773+7475799+8966085
2819.82+10630729+12477247+14486540+16673811+19059043+21628869+24361297+27221451
2812.10+30184234+33289234+36617261+40222463+44105259+48239003+52568429+56975087
2804.39+61290371+65352121+69038640+72293993+75144361+77660439+79919808+82039957
2796.67+84246533+86845794+90095210+94101926+98844462+104356245+110913457
2789.92+118971552+128852994+140493567+153459721+167181045+181152002+194966222
2783.17+208321025+221006019+232852659+243739879+253627832+262573905+270742698
2776.42+278371805+285689699+292883153+300059377+307201830+314244803+321127207
2769.67+327749464+333922834+339398897+343993728+347664811+350509266+352811841
2762.92+355059288+357761320+361206912+365353675+369952896+374797622+379789324
2756.17+384771985+389438879+393444531+396532231+398633062+399892854+400543615
2749.42+400758133+400563530+399867402+398609544+396857300+394695478+392060889
2742.67+388768858+384688392+379816577+374148597+367584122+359998056+351332716
2735.92+341684373+331397814+321096220+311498255+303067906+295789975+289188125
2729.17+282547361+275268611+267165330+258601190+250517775+244213562+240852349
2722.42+241017128+244642402+251331890+260629991+272009597+284776563+298115610
2715.67+311255403+323578362+334678938+344469180+353198950+361257552+368948470
2708.92+376405379+383588253+390326400+396358199+401369587+405098091+407469650
2702.17+408722202+409421573+410256258+411757427+414130067+417191301+420473178
2695.41+423486195+425954613+427886391+429506268+431145143+433169162+435842664
2688.66+439051561+442240641+444690224+445804055+445262273+443093244+439651976
2681.91+435414086+430666678+425324783+418988387+411191668+401668026+390408617
2675.16+377579645+363613552+349270701+335476445+323353002+314243001+308989351
2668.41+306972178+306184235+304342929+299903754+292448416+282961101+274117848
2661.66+269706302+272740938+283527450+299540458+317204363+333927158+348920147
2654.91+362537456+375090460+386320159+395712679+402981864+408230339+411792705
2648.16+414013194+415139276+415272789+414406166+412558440+409963879+407269904
2641.41+405566566+406069303+409560425+416009436+424633961+434290330+443889310
2634.66+452645121+460180940+466447959+471504321+475387793+478124612+479728635
2627.91+480221840+479730305+478622960+477570645+477306468+478229300+480216599
2621.16+482735003+485140300+486947835+487866015+487753662+486739737+485262414
2614.41+483881917+483022828+482729893+482658092+482285297+481100386+478844652
2607.66+475772772+472580843+469993619+468381146+467663562+467464177+467374000
2600.91+467273571+467560283+469062173+472606130+478493214+486273195+495017443
2594.16+503863202+512330335+520329060+528066949+535865896+543969897+552507358
2587.41+561560363+571221121+581609453+592766172+604527237+616549759+628437393
2580.65+639887801+650726854+660846849+670195902+678807293+686801825+694352973
2573.90+701602177+708570205+715194689+721403173+727133553+732353530+737092520
2567.15+741455211+745575246+749566354+753483564+757282329+760830512+763973373
2560.40+766616773+768791567+770680599+772490951+774318795+776194331+778172131
2553.65+780378567+782977550+786052541+789504815+793094925+796620179+800062429
2546.90+803547065+807146085+810739667+814051025+816823942+818906561+820243197
2540.15+820925043+821155972+821198686+821380023+822050798+823454256+825617651
2533.40+828359974+831337680+834144597+836522084+838515083+840302703+841919926
2526.65+843276544+844362795+845323197+846355793+847616567+849187998+851047287
2519.90+853053847+855004329+856736460+858192852+859425915+860507841+861487111
2513.15+862413579+863313645+864228582+865249452+866475963+867998719+869903997
2506.40+872265565+875133146+878466909+882053023+885556920+888671873+891201872
2499.65+893084680+894407035+895338809+895989013+896391452+896574492+896554052
2492.90+896326333+895917147+895400456+894831158+894219213+893550927+892760200
2486.15+891735990+890398567+888731555+886792996+884753484+882843947+881278871
2479.40+880295605+880145190+880898051+882308322+883949327+885422752+886481553
2472.65+887071486+887232907+887002306+886460851+885719979+884859940+883970880
2465.89+883149428+882472102+882076542+882146770+882766512+883879688+885332346
2459.14+886903776+888359120+889498566+890164690+890228367+889650947+888567972
2452.39+887226094+885862336+884666877+883726587+882973725+882297906+881627852
2445.64+880909646+880126191+879294388+878401201+877366180+876141504+874814432
2438.89+873547762+872427511+871354690+870093785+868407381+866169041+863380139
2432.14+860112347+856424952+852311599+847753094+842835257+837828193+833108070
2425.39+828977422+825549322+822796191+820690184+819241653+818435858+818171912
2418.64+818312172+818750511+819387220+820094223+820745607+821312546+821873850
2411.89+822546853+823406302+824433985+825531372+826573140+827484999+828247293
2405.14+828810105+829022101+828691267+827708394+826035027+823690164+820948497
2398.39+818487154+817033317+817115207+818900271+822191517+826594628+831711294
2391.64+837216247+842814293+848188944+853028756+857112367+860369284+862854735
2384.89+864668952+865892909+866582420+866790878+866581699+866059964+865418669
2378.14+864944953+864953273+865681830+867192727+869335683+871827881+874372882
2371.39+876736416+878765250+880381687+881600926+882538662+883369679+884232600
2364.64+885145178+886004627+886678743+887145580+887504388+887852321+888204905
2357.89+888463939+888393907+887764339+886556498+884955260+883169606+881378121
2351.13+879838201+878934139+879054484+880226686+881882693+883176157+883599625
2344.38+883188408+882235408+880993305+879637735+878328679+877210262+876339742
2337.63+875594022+874748658+873792645+873043190+872838269+873249749+874022329
2330.88+874686553+874797923+874135795+872795032+871141253+869696129+868996135
2324.13+869434081+871099718+873666010+876484327+878847926+880237168+880403306
2317.38+879317186+877118808+874095833+870685487+867453792+865018392+863826667
2310.63+863869119+864679696+865651301+866389815+866921574+867645741+869062171
2303.88+871455054+874720750+878415351+881971330+884925386+887046330+888349948
2297.13+889029568+889365643+889633586+890018009+890544724+891095940+891499427
2290.38+891605687+891358445+890809981+890100292+889448450+889120891+889374749
2283.63+890386971+892206233+894744290+897839590+901326912+905026492+908738520
2276.88+912272683+915478763+918256200+920579378+922510207+924152783+925633218
2270.13+927057182+928440332+929673132+930585907+931038332+930957687+930396251
2263.38+929518524+928550195+927720881+927230853+927187878+927500172+927905231
2256.63+928126137+928064818+927890819+928016339+928889873+930641592+933039847
2249.88+935668048+937780802+939504024+940972732+942288864+943433813+944328965
2243.13+944898197+945136988+945037541+944584658+943827145+942857178+941762804
2236.37+940575993+939331728+938056017+936744210+935400105+934061503+932833223
2229.62+931900663+931548144+932025332+933336026+935132489+936858724+938037085
2222.87+938453608+938155530+937240724+935781514+933868440+931624007+929204133
2216.12+926752159+924415682+922347803+920639584+919438884+919290827+920826816
2209.37+923822080+927237405+930327201+933160913+936135671+939371952+942556807
2202.62+945184746+946894799+947596627+947408674+946557086+945311511+943898291
2195.87+942422704+940921830+939442901+938040819+936719708+935456183+934352310
2189.12+933667384+933590998+934070544+934960259+936221164+937784995+939289473
2182.37+940158421+939976364+938687027+936530707+934030188+931954907+931058116
2175.62+931658663+933415033+935636995+937820830+939826080+941690479+943430734
2168.87+944992141+946338277+947530722+948746882+950266624+952311115+954908722
2162.12+957914533+961070497+964090196+966752398+968997683+970919274+972622580
2155.37+974061808+974994826+975163650+974485800+973092430+971271989+969450303
2148.62+968114715+967602085+967955521+968976129+970372381+971868474+973259092
2141.87+974360541+975027713+975356582+975817130+977018943+979211491+982081758
2135.12+985026119+987541901+989351467+990332113+990478335+989832324+988468631
2128.37+986535313+984328615+982298995+980866908+980241467+980369280+980999110
2121.61+981833075+982730848+983750146+985029132+986671709+988672896+990935083
2114.86+993295210+995567748+997580138+999211315+1000432324+1001263668
2109.08+1001770598+1002070511+1002282704+1002435280+1002431743+1002134581
2103.29+1001508879+1000723851+1000045215+999705012+999846059+1000436713
2097.51+1001382441+1002575279+1003948144+1005462579+1007030210+1008464394
2091.72+1009572918+1010258892+1010543934+1010571187+1010463420+1010278414
2085.93+1010135206+1010147325+1010242973+1010195870+1009785504+1008898213
2080.15+1007563476+1005919524+1004126139+1002318080+1000658077+999332512
2074.36+998442338+998017298+998121658+998884084+1000428197+1002739976
2068.57+1005601464+1008674555+1011627891+1014143019+1015936797+1016891631
2062.79+1017035363+1016441892+1015353283+1014199294+1013280491+1012549773
2057.00+1011770117+1010821048+1009792514+1008855302+1008160616+1007834039
2051.22+1007960412+1008555914+1009583793+1010976180+1012652299+1014533142
2045.43+1016547563+1018593954+1020531399+1022201032+1023352335+1023770824
2039.64+1023486765+1022618079+1021194509+1019265253+1017001494+1014655780
2033.86+1012495595+1010740993+1009520967+1008874235+1008743867+1009001918
2028.07+1009558768+1010383495+1011395390+1012484130+1013563633+1014543623
2022.28+1015354659+1015982262+1016426235+1016630042+1016493516+1015844294
2016.50+1014490493+1012522323+1010186501+1007641762+1005013168+1002372848
2010.71+999626136+996651640+993547168+990711885+988712531+987973689+988503024
2003.96+989927971+991864630+994267798+997370959+1001232878+1005462448
1998.18+1009507472+1012997022+1015702527+1017458504+1018297841+1018376651
1992.39+1017564371+1015811800+1013804782+1012255953+1011272621+1010784624
1986.60+1010738962+1010948534+1011189945+1011358769+1011531130+1011964229
1980.82+1013032922+1014997620+1017729854+1020771434+1023667512+1026158597
1975.03+1028115827+1029479061+1030248300+1030434681+1030051306+1029123398
1969.24+1027678798+1025557003+1022391147+1018157580+1013198339+1007631739
1963.46+1001302844+994057964+985752054+976190416+964853867+951031409+934661067
1956.71+916543985+898473023+883857545+876622753+878484597+887983214+901923462
1949.96+917200609+931661218+944044841+953620434+959848637+962520469+961827158
1943.21+957256074+947949932+934952529+920001696+904635911+892115696+886245449
1936.46+888420636+896880694+908352459+920050174+930507162+939604257+948192456
1929.70+957229608+966889645+976421738+984802003+991417250+996270885+999600914
1922.95+1001400719+1001795755+1001494073+1001101330+1000520503+999113703
1917.17+997021126+995280610+994145225+993264813+992608581+992390558+992725192
1910.42+993408218+994185646+995030813+995907492+996719969+997401487+997741952
1903.67+997481805+996492315+994728149+992187013+988960166+985246042+981341016
1896.92+977484535+973535945+969181181+964608132+960339975+956856256+954496981
1890.17+952938653+951675324+951183461+952079859+954216918+957131733+960325235
1883.42+963339562+965902907+967850441+969025329+969367955+969029128+968259758
1876.66+967139376+965496013+963026023+959429558+954578674+948768894+942620419
1869.91+936691276+932139781+930944257+933716649+939053500+945195686+951027019
1863.16+956041355+960109701+963214959+965195576+965593102+963711080+958853972
1856.41+950602700+939276305+926612095+915673071+909510314+909543594+914995221
1849.66+923717654+933451785+942496798+950045391+956271302+961304374+964781411
1842.91+967311999+970214040+973888594+978132774+982723052+987330167+991484006
1836.16+994862317+997432999+999218784+1000254263+1000803251+1000994284
1830.37+1000074367+997199253+993177354+989416062+985931360+981725505+976641923
1823.62+971667746+967218973+962960970+958647217+954131949+949139756+943339476
1816.87+936617838+929015852+920277762+909778716+896863857+881326825+864209387
1810.12+848664887+838803597+836753669+841693387+850972473+861527860+870829286
1803.37+877252845+880077188+879401107+876085032+871775144+868930362+869784045
1796.62+875047195+883856300+894633116+906007728+916759780+925596531+932061953
1789.87+936808280+940685529+944142519+947179906+949573051+951098427+951746273
1783.12+951694388+950943164+949216405+946456329+943254114+940503471+938817723
1776.37+938375584+939184916+941315424+944619183+948437143+952120083+955769875
1769.62+959769564+963994418+967907305+971205495+973957120+976208235+977843867
1762.87+978512349+977700986+975339156+971975520+967986443+963251515+957640170
1756.12+951694257+946529964+942902381+940860707+939960182+939673765+939903384
1749.37+940748682+941989409+943471810+945433821+948119280+951378817+954681135
1742.62+957519432+959702939+960967709+960796592+959181858+956825662+954101355
1735.87+950340784+944014574+934500104+924116555+915828203+910299010+906874186
1729.12+905230299+905364599+906955421+909414274+912257419+915220516+918232354
1722.37+921435028+925079250+929241803+933508911+936799960+937930759+936779259
1715.61+933882001+929495005+924093429+918509927+913202099+908152910+903408352
1708.86+899340464+896189676+893717982+891647745+890147133+889716262+890852039
1702.11+893499304+896544619+898444787+899169741+900103283+901369691+901729220
1695.36+900331985+897960852+895612714+893322750+890633623+887152393+882832679
1688.61+878185667+874121186+871239848+868914311+865471799+860323164+855461732
1681.86+852637193+851670828+851688582+852381893+853962561+856476051+859435217
1675.11+862050447+864063034+865887340+867575447+868569523+868199447+866116500
1668.36+862785489+859414581+856847896+855162540+853973436+852641516+850717960
1661.61+848487808+846582006+845276684+844603223+844745318+846166661+849423840
1654.86+854670809+861041042+866663720+870504020+873698897+877394613+881560047
1648.11+885226937+887134181+886648346+884401030+881609640+878874392+876165677
1641.36+873466134+871046785+869324677+868533164+868456122+868375215+867498274
1634.61+866037296+865177782+865329311+865964709+866492865+866498892+865493811
1627.86+863003905+859144345+854394284+848452760+840145933+828970150+816067608
1621.11+802475948+787691449+769715218+745370653+713050227+678623270+653680780
1614.36+643028501+642390023+643742710+639623462+625627332+601488277+571050921
1607.61+541279100+520748564+517062250+533396692+566920667+610069729+653888845
1600.85+691703742+720604978+740675752+753429779+760472490+763099446+762730746
1594.10+761438265+761576625+764553677+770094138+776732510+782972899+788118651
1587.35+792442231+796799157+802028765+808480298+815830652+823299517+830048343
1580.60+835540391+839642606+842418995+843698112+842803221+839336732+834227928
1573.85+828697359+823127484+817328055+810627380+802167977+792516587+784080834
1567.10+778734026+776833791+777958170+781482637+786836521+793670512+801726166
1560.35+810275517+817321372+820486966+820001459+818020841+815482588+811762699
1553.60+806617209+800905041+795150160+789020224+782279064+775525980+769456577
1546.85+764062535+758835744+753619435+749021492+745395351+742263823+738759991
1540.10+733754106+726701110+719264935+713310571+708829631+704696625+699588149
1533.35+692819735+684973326+676888584+668434160+658587611+646116791+630460331
1526.60+612063121+592196678+573244714+556604726+539937190+519358077+494436354
1519.85+469569070+448973449+434283877+426728831+427021865+432917695+439868984
1513.10+443767786+442696308+437061772+428286602+417203846+403400386+385684760
1506.35+364745759+344353290+326532648+308947194+287674509+259968109+224563979
1499.60+182279427+139367600+105629114+86175887+80415151+85336116+96349823
1492.85+108050323+116048892+118548878+115995024+109777549+100908435+89823992
1486.09+77219405+63873979+50378293+37546643+26384208+17672165+11585356+7627821
1478.38+5036845+3229872+1917938+1001718+426339+134645+37358+15079+10342+9744
1468.74+10309+11495+13675+16288+16178+15765+20360+34594+65524+109017+152383
1458.13+169801+141604+87905+46375+26197+16960+14126+11689+10086+9419+8487+7709
1446.56+8522+9401+9775+11356+20006+63064+242147+738212+1663671+3153516+5647891
1435.95+9498334+14505683+20524740+27813153+36570821+46830471+58555988+71236691
1428.23+84000143+96440737+108697071+121097204+133903476+146808590+159005930
1421.48+170299209+181570590+193671055+205810025+216356305+225027721+232338162
1414.73+238590474+243877142+248232643+251727352+254490310+256725801+258682326
1407.98+260572734+262494980+264357479+265879858+266738161+266745694+265758907
1401.23+263417861+258949254+251516584+241283253+228931927+213533698+193080319
1394.48+168267509+143539454+121545804+101038721+80695918+60804704+41883387
1387.73+25001040+12798143+6172715+3170342+1865020+1256254+888201+585152+333206
1379.05+151397+46635+13124+9048+12331+35324+148244+412789+746454+1113647
1369.41+1465615+1625875+1432139+1026150+750050+837109+1706917+4415709+10182644
1360.73+19463095+31927720+46746043+62765655+78375942+92233989+103736332
1353.98+112719846+119889994+127114680+136169487+147144845+158312898+167772649
1347.23+175218765+181672198+188177910+195185736+202697872+210575137+219051639
1340.47+228814432+240072088+252536209+266410700+281976787+298235365+313537407
1333.72+327027983+338150177+346310028+351594207+355206558+358623848+362297617
1326.97+365781565+368831400+372200146+377174913+384446686+393296343+401901084
1320.22+408541586+412287974+413137138+411729487+408888405+405094979+400189720
1313.47+393916150+386699046+379748019+374043549+369678041+366142503+362948247
1306.72+360083057+357790080+356231260+355411151+355358152+356084449+357407491
1299.97+358825854+359327477+358005352+355415737+354014244+356235846+362143271
1293.22+369555895+376084011+380708487+384064785+388266055+395816384+407612301
1286.47+422027314+436273305+448234050+456989403+462742155+466484514+469326644
1279.72+471663809+472923764+472357120+469872357+466153975+462003575+457624409
1272.97+452514000+445988209+437736871+427727001+415920733+402239682+386669795
1266.22+369586816+352465710+338030978+328908498+326265360+329970182+339070290
1259.47+351261047+363145863+371837506+375430302+372516044+362855188+349012421
1252.72+335711633+326394615+321469277+320218264+322950530+330858718+344820290
1245.97+364507886+388126384+413000185+436740634+458181848+477220779+494006859
1239.22+508513685+520644925+530412565+537958767+543567524+547708949+550919353
1232.47+553490296+555260031+555584249+553639729+549108182+542793994+536324904
1225.71+530845205+526214342+521522455+515849038+508434744+499170299+489756390
1218.96+483683351+483833569+490041890+499566809+509457415+517863164+523858768
1212.21+527350938+529358121+531463832+534414646+537559440+539863489+540903750
1205.46+540847410+540071128+538963030+537889456+537107474+536659145+536330833
1198.71+535721475+534304030+531488039+527020202+521333650+515415677+510108897
1191.96+505792884+502965232+502587327+505206521+509876428+514492355+516998376
1185.21+516258650+511972445+504016598+491890730+474471348+450466135+419887503
1178.46+385560812+351848982+321971031+298125994+282388626+274801087+272160225
1171.71+271106616+272221446+279950737+297253213+321549922+347355071+370682042
1164.96+389854060+404439075+414952993+422532442+427899035+430889254+431162110
1158.21+429351136+427043615+425677367+426015670+428108017+430899179+432457376
1151.46+431832361+431251894+436016172+450486148+473823142+500973183+527175793
1144.71+550316841+570038961+586330951+598799412+606664231+609784228+609808533
1137.96+609450053+610041755+610695825+609798117+606441491+600666956+593229143
1131.21+585464230+578781113+573928460+570936538+569797878+570747143+573806608
1124.46+578413265+583453216+587717966+590711657+593472782+598034824+605180455
1117.71+613204532+619209799+620877860+617058589+607946492+595034582+580249625
1110.95+564750917+548598402+531872855+515879861+502753170+494115149+490392378
1104.20+490811522+493706291+497027147+498675292+496882956+490943004+481812400
1097.45+471992875+464538520+461827545+464655295+471685100+480111125+487610945
1090.70+493419578+497753345+500885037+502526467+501583294+496499417+486146659
1083.95+470837738+453123914+437641650+429126955+429924495+439815297+457454471
1077.20+480657952+506317469+531348401+553556070+571716062+585262520+593850195
1070.45+597338631+596374363+592352858+586465971+579052987+569892477+558886173
1063.70+546403823+533308283+520804741+509936372+501390919+496276743+495440616
1056.95+497105729+497880569+496508524+494601214+494467210+497114245+501210368
1050.20+503948891+503375565+499003048+490529003+477604743+460972289+442609014
1043.45+424248981+406262137+388093137+369663138+352479827+339141894+331409475
1036.70+328847736+329133793+329125997+325616335+316016274+302232435+295360054
1029.95+307894224+338598703+374152921+403874364+424967416+438334240+445679976
1023.20+449496593+452576858+455977705+458734833+459865173+459518321+458466169
1016.45+457491518+457083740+457127207+457046169+456278535+454460813+451286145
1009.70+446390844+439333458+429424640+415725966+398253815+380322917+368578689
1002.95+368214902+378280031+393152905+407477773+418557516+425665706+428873555
996.19+428872900+426917931+423772875+418913572+411639899+403073679+395959462
989.44+391720392+388750776+384621406+378871013+373067522+369234527+368320867
982.69+369698383+371969578+373925497+374601840+372712219+366353025+353338064
975.94+332492876+305446376+276390173+249516002+227538082+211632677+201030450
969.19+193665519+188082967+183967256+181338088+181584445+189326380+208797934
962.44+238025566+271177156+304273945+334244726+356386294+366365963+363490160
955.69+352471147+343179057+345430696+360332723+378771402+390383559+392113397
948.94+388492398+386471196+390664932+401879105+417812025+434909088+450842827
942.19+465520902+479605768+492587251+503074538+510677474+516282496+520506236
935.44+523382334+525833260+529476009+534008702+536666875+535085225+529521671
928.69+522268568+515338603+508627185+500950385+492818737+486680612+484132368
921.94+484292545+485388851+486911902+489909720+495803977+504829533+515021067
915.19+522682603+524165625+517286137+501689587+479625225+457608489+445387499
908.44+448602718+461562124+471648283+472288628+469253861+474051516+492151074
901.69+518649142+544876613+565612462+579804210+588462900+593098447+594546061
894.94+592806134+589195977+587675777+590796757+595603290+597386192+595843128
888.19+594440849+594932515+594974573+592343752+589579024+591003643+596255394
881.43+600445133+599675894+593139392+581236953+564727726+545712510+527902580
874.68+514054900+503174051+493761320+490270330+500447091+524914949+555445102
867.93+583685258+605752241+619496872+623028021+616834867+605480761+595645021
861.18+591514897+592041022+592718872+590611686+588102127+589615056+594177492
854.43+595194889+587752360+571637841+548314179+520248579+492994407+473423848
847.68+465015380+466889115+473817443+476642572+474449697+481823636+508762696
840.93+546730105+583920708+617229116+645965524+665170626+670741943+670391783
834.18+678434858+697233197+716560478+728699284+733244949+732614267+730005851
827.43+729511761+735038989+748183335+767350963+788514277+807144644+820348409
820.68+827571998+830311766+831004422+830892921+829180836+825037938+819498132
813.93+814382515+810103155+805331999+798236616+787308140+771254285+748625670
807.18+719820278+692820325+682047308+693614327+718105639+743214922+763400276
800.43+775888457+776784068+760705843+721079480+656480228+584716610+541924161
793.68+550697333+596840872+648163510+684369242+702287889+705796306+699240805
786.93+686562117+671813846+658163881+646770074+637921990+632621892+631762508
780.18+634529594+638821794+642715944+644915240+644567307+640959443+632525982
773.42+615979021+586363510+537435918+463794634+369755378+281877569+240521302
766.67+266091592+341530912+430491532+506336500+560825911+596313765+619108190
759.92+636706812+654493387+672876447+689179967+701348057+708954890+712936891
753.17+715325975+717618362+719193265+717912772+711523737+698420402+677765459
746.42+648801267+609448743+555477858+483582921+402762957+342317151+329678556
739.67+358161368+395283642+417611690+421381400+409736946+383758354+341731541
732.92+281842226+206743551+127602661+62150741+22045552+6721899+8056401+27686605
725.21+76405094+156250063+256662779+356340632+442191344+511351950+564040835
718.46+602149618+629711073+650715783+668136671+684194325+700303799+716931078
711.71+733615287+749085628+761878766+771220481+776484810+775754092+766545758
704.95+748263980+722472325+690616575+651981666+603757670+543778931+472908664
698.20+392708637+303151270+211235987+138362092+101728012+101274916+130749519
691.45+184365338+258096913+346549473+434478021+505291358+555298749+588073695
684.70+603879522+600239819+575552562+528939599+458873227+363614305+247335754
677.95+132003185+51827774+16733165+7048419+7081625+16354087+47608562+113882868
670.24+205852918+310121558+429809718+548743281+634106454+687389989+729007189
663.49+769839690+810589056+848966372+883288313+912896486+937509387+956848591
656.74+970746454+979314934+982921029+982132202+977786086+971011776+963034933
649.99+954969517+947691815+941851835+937985461+936564970+937926828+942169763
643.23+949148469+958508856+969694990+981901928+994089409+1005252483+1014895094
636.48+1023307853+1031108601+1038212041+1043366769+1044950975+1042139734
630.70+1035198500+1024915839+1011922760+996267348+978324527+959330111+942326860
623.95+931737408+929952867+935369511+944784665+956274970+969448272+984384431
617.20+1000307917+1016119312+1031577141+1046366160+1059309057+1068846718
611.41+1073741823+1073463988+1068089075+1058282684+1045551521+1031861724
605.62+1018536107+1005718534+993167528+981246352+970681597+962047605+956076928
598.87+953589119+954404609+957338750+961755095+968668617+979961142+996000584
592.12+1014451055+1031354990+1043906979+1051708841+1054755989+1052946227
586.34+1047169989+1038843509+1029021003+1018262530+1006673695+994227639
580.55+981332303+968748803+957337637+948371107+943251297+942635486+946074264
573.80+952619807+961656631+972817870+985437729+998540409+1010998192+1021432710
567.05+1028616468+1031846853+1030807640+1025227282+1014929160+1000209584
561.26+981575352+959178059+932847963+902850519+871058708+841669802+820060157
554.51+810419773+813604693+826516080+843980992+861741756+877432151+889775288
547.76+898321494+903521818+907016085+912187976+922739170+938690892+954706422
541.01+963959828+963955701+958482062+953203386+949689400+945522393+938902626
534.26+930351048+921217987+912832285+906328670+902263796+900523410+900877567
527.51+903347950+908144263+915374207+924734266+935783087+948062415+961855524
520.76+978557552+997428740+1013461762+1021558885+1020521768+1012858661
514.97+1002702830+992733905+983210394+973453727+963372777+953753816+945748736
508.22+940175126+937350980+937734879+942158888+950944606+963497511+978775051
501.47+994865986+1009719730+1022852350+1034197480+1042858594+1047749637
495.69+1048354245+1044664099+1036815789+1024797852+1008739936+989544006
489.90+968108360+944453176+917884159+885707728+843449495+791654321+745894812
483.15+732319202+761586125+816476336+870262085+909592990+936739559+957679674
476.40+974964953+988021447+995840277+997361132+990796722+976055265+954520762
469.65+923885888+877399526+805410023+696643329+553051499+416730000+347242358
462.90+370727933+473856291+606662069+713073746+781640848+831116512+872155309
456.15+904571841+930967448+954600228+975367916+991656695+1002566369+1008449916
449.40+1009448577+1005049920+995193020+981366566+966364437+951587669+936350943
442.65+920359455+904463222+889498239+875833926+863966404+854458354+846897707
435.90+840400053+834419288+827692474+820036049+818327764+834730338+873248242
429.14+922763082+967237119+997989128+1015114427+1022227236+1022599147
423.36+1017938116+1009539114+999496619+987784622+971841483+952905766+937946678
416.61+930759383+930103020+933843742+940648842+949814528+961006557+974270593
409.86+989701759+1006225529+1021575722+1034382944+1044717294+1052576479
404.07+1057720659+1060089171+1059282983+1054703646+1046930937+1037910425
##END=
