##TITLE=Íåôòü_2_250ìêì
##JCAMP-DX=4.24
##DATA TYPE=INFRARED SPECTRUM
##DATE=9/3/2017
##SAMPLING PROCEDURE=Instrument type and / or accessory
##ORIGIN=Default
##XUNITS=1/CM
##YUNITS=TRANSMITTANCE
##RESOLUTION=2
##FIRSTX=3998.2792
##LASTX=399.2493
##DELTAX=-0.96437028
##MAXY=0.9476853
##MINY=8.5171941e-006
##XFACTOR=1
##YFACTOR=8.8260072e-010
##NPOINTS=3733
##FIRSTY=0.73886114
##XYDATA=(X++(Y..Y))
3998.28+837140884+838372551+839525338+840752750+842060188+843238301+844315317
3991.53+845573929+847150958+848894119+850659228+852531040+854598089+856838765
3984.78+859174798+861510561+863861586+866253874+868596390+870820588+872871699
3978.03+874635863+876144414+877581853+878909484+879893980+880546956+881064934
3971.28+881448994+881701027+882049227+882525604+882918106+883224908+883595867
3964.53+884020176+884451172+885135956+886211148+887236164+887916829+888512807
3957.78+889242973+890025005+890666501+891093917+891417738+891633438+891537811
3951.03+891292261+891332106+891567188+891754997+891891549+891686249+890967360
3944.27+890336332+890693311+891951248+892856460+892891172+892791561+893110857
3937.52+893685292+894166397+894386419+894385001+894522701+895290821+896438746
3930.77+897150409+897279059+897079161+896441312+895439258+894806002+895115910
3924.02+895820955+895894565+895206337+894567678+894574296+894861649+895171490
3917.27+896037600+897371579+898214728+898300360+898184136+898277061+898558741
3910.52+898834208+898899647+898598315+897949121+897270617+897036615+897482873
3903.77+898235258+898697454+898768701+898645116+898765459+899458010+900035079
3897.02+899732667+898842042+898038129+897633539+897797172+898978188+901170376
3890.27+902971142+903037865+901742313+900658476+901290652+903474533+905037786
3883.52+904608952+903037055+902105302+902910836+904561679+905116395+904127442
3876.77+902632262+901843950+902516038+904130954+904983152+904656022+905017729
3870.02+907612548+910897352+912129423+911249063+910534024+911666620+913813628
3863.27+915204469+915734400+916042081+915905664+915045632+913815451+912397461
3856.52+910433738+908510264+909000081+912968520+917454600+919466002+918862190
3849.77+917112140+915598322+914747136+914339845+914215719+914566823+915540446
3843.02+916546349+916923588+916996997+917274287+917931586+919354370+921031484
3836.26+921568033+920966314+919970001+918796818+918031399+918162953+918324290
3829.51+917661454+916760564+916686750+917522336+918198949+917805096+916718423
3822.76+916531897+918892039+923211110+926258806+926217678+924690150+924670768
3816.01+927355676+930505751+931613967+930962882+930005535+929340200+928747868
3809.26+928146284+928321127+930226570+932912153+933918867+932730625+931301357
3802.51+931989315+935404458+939203457+940663317+940083074+939674432+940742939
3795.76+942523783+943558050+943579526+943273736+943105512+943063236+942998067
3789.01+942821063+942530671+942256555+942292415+942845172+943627069+944053877
3782.26+944037332+944257354+945623208+948190339+950696217+952107926+952742669
3775.51+953331286+954092315+954796076+955245238+955753221+957077542+959191594
3768.76+960577776+960296636+959469628+959511836+960115175+960049263+959019588
3762.01+957716945+957149195+958039077+959842612+961220757+961932487+962347342
3755.26+962126510+961273973+961293085+963621622+967253207+970428945+973142420
3748.51+974719585+973522293+970417194+969106177+972358294+977429075+979417853
3741.76+978273439+976450049+974968308+973757848+973152820+973873667+976172084
3735.01+979045881+980874201+981668862+982756413+984081477+984460337+983903393
3728.26+983521831+984237816+985942416+987524375+988167492+988318833+988800681
3721.50+989350534+989203920+988598892+988097865+987478048+986359432+984869114
3714.75+983342531+982386400+983122036+985751297+988534398+990301331+991336476
3708.00+991697710+991426363+991053310+990850982+990702612+990867865+991917395
3701.25+993505973+994327376+993890776+992869339+991963317+991297915+990553499
3694.50+989396187+987894591+986658468+986380299+986912932+987756351+989243157
3687.75+990986993+991402794+990420391+989394971+989082158+989260310+989602162
3681.00+990139117+990914530+991351739+990810665+990328682+992274712+996654157
3674.25+999443944+998023185+994358306+992220010+993278522+995810873+997375544
3667.50+997194758+995967820+994837588+994439346+994743784+995501099+996471683
3660.75+997384188+997901086+997874748+997849896+998868023+1000817159+1001793483
3654.00+1000589506+998078292+996132465+996147525+997883865+999772897+1000850588
3647.25+1001186767+1000629080+998948725+996828122+995354688+994938685+995169918
3640.50+995492793+995762857+996100184+996424275+996456015+996211208+996059124
3633.75+995929123+994865681+992226831+989083441+987575228+988288713+988774140
3627.00+986764359+982789571+978476579+974702499+971557353+968981511+967268267
3620.25+967055808+968488520+970659097+972411848+973368655+974177092+975762226
3613.50+978404453+981522721+984022858+985699770+987790320+990985170+994456094
3606.74+997314089+999221693+1000340579+1001317173+1002771023+1004963143
3600.96+1007816816+1010854584+1013513627+1015673669+1017716069+1020279755
3595.17+1023571987+1027048584+1030146389+1032470266+1033658509+1034116922
3589.39+1035194613+1037904306+1041755171+1045243586+1046974321+1046805016
3583.60+1045927628+1045268574+1044797801+1044377071+1044062772+1043755700
3577.81+1043384134+1043069227+1042848935+1042723999+1042717178+1042702726
3572.03+1042538486+1042109989+1041261843+1040432538+1040781818+1042565904
3566.24+1044421372+1044889646+1043807565+1042146997+1040561593+1038962413
3560.46+1037309611+1035620206+1033731714+1031644946+1029490104+1027256653
3554.67+1025086617+1023440230+1022671705+1022443241+1021869143+1020692787
3548.88+1019589568+1019381769+1020318992+1021856582+1023308811+1024367120
3543.10+1024987141+1025263756+1025386193+1025568734+1025841230+1026101502
3537.31+1026488939+1027093359+1027404483+1027033795+1026355223+1025827858
3531.52+1025533752+1025372484+1025346754+1025593519+1026101570+1026668846
3525.74+1027166767+1027730667+1028584824+1029540551+1030012269+1029874231
3519.95+1029669201+1029755036+1029902460+1029775566+1029340113+1028737516
3514.17+1027949542+1026771497+1025119032+1023207782+1021524995+1020355054
3508.38+1019172957+1017406362+1015311760+1013353979+1011795521+1010738765
3502.59+1009695786+1007902110+1005339032+1002517504+999525794+996048859
3496.81+991908075+987055629+981375161+974790899+967400294+959394531+950972022
3490.06+942364878+933947501+926179522+919241793+913085420+907856680+903836307
3483.31+901364060+900752955+901755954+903654914+905908084+908364190+911154720
3476.55+914364157+917870941+921411289+924657126+927514243+930148232+932618790
3469.80+934705289+936168458+937112907+937713275+937852393+937496764+936973383
3463.05+936630248+936523141+936450813+936167648+935633732+935069832+934694889
3456.30+934539765+934505931+934480877+934401593+934243431+934010172+933688783
3449.55+933164929+932495745+932075825+931762067+930787904+929131050+927461162
3442.80+926126711+924931378+923590173+922250116+921227194+920500404+919890649
3436.05+919388879+918990975+918574769+918252165+918380815+919013666+919734378
3429.30+920244049+920663429+921090305+921476121+921816352+922094453+922288880
3422.55+922429214+922574274+922685028+922530918+922031985+921470448+921083484
3415.80+920875550+920851914+921043032+921351455+921633540+921995314+922650384
3409.05+923478271+924200603+924826499+925501896+926204171+926882472+927536664
3402.30+928045255+928222124+927947062+927161654+925990024+924795366+923721052
3395.55+922549827+921203895+920021056+919219507+918389729+917117341+915666665
3388.80+914512054+913753388+913235275+912875730+912679006+912554881+912400433
3382.05+912256047+912122332+911787571+911142902+910384304+909577150+908495339
3375.30+907079240+905560491+904131426+902841074+901679507+900568995+899413236
3368.55+898223237+897087535+896040437+895103822+894341172+893798882+893535099
3361.79+893547120+893626268+893534153+893240182+892865037+892497320+892088745
3355.04+891513162+890742543+889904932+889101087+888182503+886869662+885169385
3348.29+883404208+881820020+880464836+879356890+878528328+877882780+877237165
3341.54+876656719+876437710+876594521+876755385+876712367+876565955+876373081
3334.79+876171292+876010294+875799186+875452944+874973528+874365663+873663321
3328.04+872978806+872429223+871886191+871073364+870040852+869101806+868409999
3321.29+867966982+867766207+867775054+867968603+868339562+868836334+869376598
3314.54+869923615+870470362+870951332+871328706+871679810+872022202+872203933
3307.79+872052794+871543934+870757985+869705416+868385889+866966887+865654046
3301.04+864519965+863567615+862832451+862395445+862231475+862163402+862087968
3294.29+862089318+862307720+862667941+862850482+862740944+862573394+862494786
3287.54+862406791+862210405+861859098+861295873+860537140+859652931+858667355
3280.79+857590204+856457812+855316167+854258263+853440101+852840746+852249495
3274.04+851715647+851467058+851445852+851427078+851271212+850945771+850568464
3267.29+850287595+850101406+849901036+849565735+849030198+848288416+847339578
3260.54+846203538+844906028+843495601+842110973+840775103+839264256+837517718
3253.79+835800693+834278094+832914874+831714138+830751253+830093752+829635406
3247.03+829051988+828170413+827130540+826035358+824860285+823595797+822177740
3240.28+820522237+818609231+816468098+814187104+811848168+809474992+807010443
3233.53+804285218+801179917+797834469+794535956+791442136+788534977+785755793
3226.78+783062578+780434870+777875101+775348490+772779874+770110701+767343740
3220.03+764519376+761524829+758157163+754451697+750580504+746574854+742362147
3213.28+737882956+733161321+728330418+723536725+718841023+714242568+709740753
3206.53+705326528+701000569+696833852+692892223+689143131+685532278+682058180
3199.78+678717256+675486614+672357001+669276080+666149304+662968298+659804784
3193.03+656669566+653516384+650376709+647317601+644300430+641278127+638329368
3186.28+635562542+633037687+630771551+628735162+626921429+625366550+624078629
3179.53+623041863+622255104+621658720+621144592+620715555+620423002+620210611
3172.78+619991601+619735584+619446273+619131501+618786475+618411060+618025176
3166.03+617647464+617295213+617012925+616857396+616850913+616976457+617225046
3159.28+617624301+618202585+618963750+619893814+620984268+622266314+623708211
3152.53+625081291+626157361+626984100+627754516+628532428+629245711+629817243
3145.78+630207583+630390125+630373782+630250669+630124450+630005119+629805289
3139.03+629411572+628817687+628166332+627603917+627161441+626812836+626542502
3132.27+626282162+625933017+625435906+624727621+623800461+622722162+621479353
3125.52+619975393+618180975+616184768+614060316+611702132+608950231+605833720
3118.77+602481654+598921181+595143184+591156510+586900110+582335962+577552332
3112.02+572631947+567620596+562587465+557535898+552427637+547343688+542444070
3105.27+537793986+533319083+528871699+524322307+519578184+514476777+508788914
3098.52+502377132+495247440+487428440+478900073+469703129+460029369+450147507
3091.77+440234613+430300885+420305297+410335574+400626562+391372519+382599885
3085.02+374158265+365755104+357078097+347925219+338205536+327863605+316903545
3078.27+305429053+293595420+281576915+269583702+257857835+246629922+236059780
3071.52+226151580+216781515+207849842+199310720+191130874+183374105+176226449
3064.77+169854579+164343112+159674626+155716654+152275731+149135043+146123562
3058.02+143160418+140220117+137315001+134497449+131834354+129361339+127062433
3051.27+124900449+122862186+120936838+119077158+117216700+115309367+113361387
3044.52+111386444+109343724+107171273+104840111+102350246+99713607+96947778
3037.77+94052606+91007215+87799028+84443103+80963003+77366670+73659617+69897385
3030.05+66218011+62762303+59592339+56706394+54079083+51679527+49461554+47348895
3022.34+45260544+43181951+41165720+39266613+37512529+35902011+34422041+33060411
3014.62+31814017+30654389+29503106+28314967+27102822+25868218+24586024+23245913
3006.91+21876701+20513567+19164718+17833422+16533303+15270170+14040757+12824039
2999.19+11594067+10363574+9170185+8015758+6892537+5817301+4815588+3908738
2991.48+3120830+2466888+1929611+1467624+1070356+769500+577874+452044+340342
2982.80+245931+189758+175721+182053+179997+167362+165766+180263+195919+202567
2973.15+196820+185681+176456+167259+164689+176539+192017+181703+143006+111712
2963.51+104563+114192+127882+138753+150318+155512+143603+127268+115613+100984
2953.87+87224+75137+61923+69738+109005+136957+129230+121332+125016+126791
2944.22+122312+106938+92217+97359+119590+130386+110977+91117+99986+112568+97769
2933.61+76438+79431+96316+98739+84593+70664+64984+68911+81456+96885+109936
2923.01+113298+101035+79964+57185+45954+63777+90788+102359+107889+94584+59387
2912.40+45097+60089+86204+111733+115384+92340+63861+56350+72483+85682+79404
2901.79+66257+70347+96251+128510+141921+120112+87450+77071+82717+76225+57694
2891.18+56426+81052+104084+116930+138229+152463+145425+141629+151610+159297
2881.54+152724+136920+125907+122121+119268+109869+92540+91249+114227+128064
2871.89+118504+101397+90023+85475+91300+108691+119754+118226+116945+123774
2862.25+132448+132297+126841+121116+116647+115903+118728+124780+132422+141412
2852.61+154171+162877+162114+163455+173043+180635+177136+175415+175303+158977
2842.96+153473+179926+200207+195151+182013+169144+162358+171327+193699+218331
2833.32+244279+299975+407037+562965+785804+1107029+1534679+2070301+2722857
2824.64+3520243+4500848+5672347+7013943+8517088+10195708+12071982+14153106
2816.93+16443625+18956168+21684401+24599265+27683905+30955554+34438563+38157245
2809.21+42125495+46325264+50730186+55326429+60108426+65051392+70122333+75292783
2801.50+80521473+85782206+91070240+96364158+101625508+106863111+112143945
2794.75+117530298+123055904+128743185+134629139+140780767+147274408+154139421
2787.99+161379141+168998160+176956734+185197664+193685899+202381866+211188857
2781.24+219976618+228667250+237219811+245579987+253691507+261524183+269059089
2774.49+276285842+283215755+289827891+296079080+301962754+307477902+312595111
2767.74+317291758+321555858+325364379+328718742+331664766+334260936+336573130
2760.99+338719597+340859717+343111232+345520167+348073589+350671751+353123501
2754.24+355257509+356981693+358234666+358977934+359189886+358870050+358054927
2747.49+356742998+354867945+352396036+349329938+345631360+341228447+336047284
2740.74+329999808+323012442+315099334+306339026+296822820+286718774+276343414
2733.99+266183417+256888466+249201966+243781077+240972499+240722189+242648094
2727.24+246159909+250641650+255670307+261045880+266684444+272540245+278551860
2720.49+284668507+290933169+297510778+304632873+312474666+321033422+330117552
2713.74+339423797+348618917+357420151+365627264+373112584+379808376+385683137
2706.99+390721873+394922795+398304305+400916278+402844716+404181463+405013368
2700.24+405455236+405630079+405590133+405323952+404816172+404025968+402917752
2693.49+401509589+399841086+397975690+396027566+394133672+392372885+390770260
2686.74+389354229+388121887+387016035+385973529+384962492+383947810+382869477
2679.99+381680863+380381461+378984002+377468899+375822378+374084316+372327041
2673.23+370625210+369117469+368047983+367688471+368224480+369656314+371806463
2666.48+374396420+377114757+379703734+382047398+384250526+386676175+389830471
2659.73+394003435+399012861+404365153+409588220+414457178+419012952+423380849
2652.98+427592171+431588705+435305381+438726534+441900786+444882974+447685390
2646.23+450300266+452724396+454939714+456932105+458709134+460267862+461641246
2639.48+462930552+464206081+465453178+466645675+467766723+468803860+469785891
2632.73+470751410+471718279+472691699+473680990+474714075+475797237+476884754
2625.98+477955354+479058910+480230101+481471390+482819956+484322396+485969052
2619.23+487702455+489465909+491197218+492818111+494262641+495554816+496827104
2612.48+498174690+499588088+501038325+502506660+503968749+505442318+507001384
2605.73+508732491+510709012+512962587+515477346+518194805+521039698+523991260
2598.98+527101559+530423438+533975503+537745767+541664266+545630444+549565927
2592.23+553434756+557259891+561092961+564985932+569000362+573190445+577576711
2585.48+582178880+587035176+592170585+597571939+603198246+609006351+614959923
2578.73+621040929+627233229+633485769+639727841+645915279+652039438+658070402
2571.98+663941988+669587002+674946215+679994912+684768750+689298929+693575792
2565.22+697635604+701565009+705433703+709284703+713144212+717028978+720938732
2558.47+724879078+728863658+732880249+736884211+740818546+744648544+748354348
2551.72+751912389+755296939+758465856+761361872+763976951+766349249+768504632
2544.97+770476797+772302280+774003571+775595593+777100633+778570690+780037709
2538.22+781499257+782997206+784630761+786466645+788523226+790823602+793394379
2531.47+796205506+799143123+802114506+805102164+808097049+811052562+813886515
2524.72+816531714+818986740+821271920+823371790+825305259+827155190+828984455
2517.97+830807845+832640623+834527156+836497768+838569477+840765109+843077978
2511.22+845484245+847967432+850497419+853046721+855623509+858193004+860673760
2504.47+863028904+865243243+867285642+869120378+870703891+872030711+873165130
2497.72+874154893+875005944+875764069+876496531+877249726+878048574+878903811
2490.97+879838197+880878340+882028562+883266914+884558617+885876388+887192740
2484.22+888452703+889586581+890544334+891305835+891867845+892230024+892418779
2477.47+892482192+892439781+892286752+892016215+891642892+891237695+890888887
2470.72+890636111+890514687+890567768+890811697+891273555+891979274+892898803
2463.97+893989258+895232472+896576986+897936897+899247172+900431970+901384455
2457.22+902029800+902363481+902391507+902099089+901515875+900720404+899770553
2450.46+898715958+897626854+896554700+895538397+894611101+893804893+893166571
2443.71+892707685+892404934+892229079+892147026+892130480+892144662+892144460
2436.96+892081789+891922074+891642960+891221959+890633342+889871435+888948867
2430.21+887856724+886570626+885103945+883508412+881836768+880170122+878620240
2423.46+877260059+876108487+875181934+874517275+874109443+873902793+873839244
2416.71+873863488+873933790+874021380+874093978+874116669+874061022+873891920
2409.96+873582889+873148517+872605687+871943459+871169126+870338132+869518080
2403.21+868776568+868192205+867831579+867738248+867953746+868468955+869292114
2396.46+870442268+871908679+873634214+875529256+877491697+879421384+881228701
2389.71+882844360+884226827+885357397+886228504+886837787+887194226+887331723
2382.96+887329697+887303021+887324092+887433833+887755087+888442640+889500342
2376.21+890827567+892474764+894600971+897274534+900455607+903964282+907404884
2369.46+910481754+913466643+916898466+920711107+924096940+926384687+927802271
2362.71+929181970+930882653+932232231+932306990+931047028+929101673+926832498
2355.96+924210801+921290000+918214684+915387956+913615013+913411334+913852864
2349.21+913179898+910896069+908482103+908036385+910202775+913701726+916423574
2342.46+917378626+916979506+915996901+914647322+912781521+910370595+907514085
2335.70+904786766+902957096+902312696+902428920+902940820+903711439+904362119
2328.95+904574713+904618542+904982072+905635588+906323614+907127526+908147207
2322.20+909091723+909655961+910022260+910536996+911148507+911469356+911311194
2315.45+910786192+910163201+909650693+909285340+909017234+908850563+908813487
2308.70+908864812+908953348+909151760+909648262+910568331+911897988+913526545
2301.95+915383432+917425156+919548392+921610106+923501705+925133571+926444791
2295.20+927445495+928186331+928686481+928893402+928785416+928402504+927827326
2288.45+927131129+926351798+925584624+924990199+924735937+924954811+925754402
2281.70+927190423+929205134+931675017+934441978+937310035+940116098+942758392
2274.95+945173844+947286275+949044091+950452626+951539164+952335715+952832420
2268.20+953030967+952964582+952726528+952398453+952056601+951793763+951659778
2261.45+951686926+951921333+952440526+953257067+954328681+955583578+956966856
2254.70+958461293+960055746+961712060+963364524+965056090+966845781+968082309
2247.95+969008119+969637053+969957295+969959658+969684597+969192619+968571046
2241.20+967902064+967243347+966663644+966234337+966039167+966128851+966518314
2234.45+967207082+968182056+969413182+970829821+972357079+973915605+975423616
2227.70+976793387+977953536+978860031+979435277+979591885+979338772+978774534
2220.94+977946107+976878343+975658698+974387660+973149983+972033393+971145267
2214.19+970580894+970388358+970572115+971126898+972034811+973216571+974561422
2207.44+975977656+977394903+978758731+980012548+981066198+981823040+982223780
2200.69+982240123+981863627+981101450+980025109+978752383+977353438+975898305
2193.94+974515297+973319153+972362346+971684315+971345232+971401555+971874353
2187.19+972718650+973834025+975133291+976559723+978012965+979341000+980432468
2180.44+981236718+981710057+981855996+981761179+981510700+981126437+980599410
2173.69+979949675+979245171+978548704+977930102+977515652+977409355+977635388
2166.94+978185714+979056957+980244051+981703709+983384334+985262899+987275111
2160.19+989312648+991298523+993154058+994749660+995999898+996915847+997511083
2153.44+997771963+997720232+997439565+997065703+996778215+996726350+996981287
2146.69+997592595+998628483+1000113466+1001983589+1004161459+1006571171
2140.90+1009135397+1011813282+1014570315+1017342746+1020085733+1022745249
2135.12+1025141723+1027086740+1028515400+1029426285+1029831888+1029751524
2129.33+1029243001+1028396137+1027337220+1026215633+1025164482+1024299520
2123.54+1023694289+1023403155+1023475415+1023948078+1024836204+1026119871
2117.76+1027737421+1029614634+1031717679+1033957680+1036149867+1038134729
2111.97+1039826294+1041169255+1042106477+1042592580+1042604736+1042162867
2106.18+1041330524+1040188406+1038805331+1037282463+1035786270+1034440135
2100.40+1033332054+1032570215+1032246529+1032393278+1032997766+1034017919
2094.61+1035376210+1036972216+1038703626+1040484471+1042238910+1043825664
2088.83+1045062868+1045890012+1046330732+1046347075+1045899534+1045004925
2083.04+1043700526+1042051506+1040149169+1038104947+1036064168+1034168855
2077.25+1032488095+1031086853+1030087568+1029571751+1029531096+1029915089
2071.47+1030669027+1031713897+1032939282+1034208767+1035359867+1036292227
2065.68+1037022663+1037486074+1037438801+1036784069+1035657012+1034169733
2059.89+1032366333+1030294016+1028045033+1025726154+1023424428+1021252567
2054.11+1019334158+1017757129+1016572735+1015821026+1015518006+1015632339
2048.32+1016095345+1016809574+1017665621+1018552599+1019363670+1019957960
2042.54+1020248285+1020255781+1019868412+1018921194+1017479028+1015677383
2036.75+1013568059+1011223044+1008773286+1006356146+1004118036+1002221305
2030.96+1000814120+1000008722+999867983+1000413717+1001647477+1003551839
2025.18+1006075749+1009163221+1012734094+1016609811+1020581695+1024518529
2019.39+1028331711+1031931420+1035357435+1038511563+1040927082+1042474937
2013.61+1043474155+1044068648+1044252540+1044118960+1043831472+1043559990
2007.82+1043465511+1043684183+1044327502+1045479682+1047151730+1049286785
2002.03+1051795432+1054571510+1057512503+1060493543+1063311559+1065768543
1996.25+1067763062+1069173893+1069825451+1069891566+1069865093+1069466784
1990.46+1067958367+1065768746+1063785505+1062029581+1060234757+1058570947
1984.67+1057290927+1056458516+1056108155+1056287387+1057015798+1058303922
1978.89+1060111442+1062299510+1064676333+1067062610+1069286336+1071190495
1973.10+1072641846+1073519167+1073741823+1073243362+1072016221+1070336541
1967.32+1068479182+1066187518+1063213974+1059882167+1056595608+1053529409
1961.53+1050774604+1048355235+1046223355+1044344925+1042714207+1041368612
1955.74+1040471099+1040225414+1040730426+1041940009+1043595647+1045209550
1949.96+1046250908+1046321548+1045189357+1042758441+1038933036+1033516689
1944.17+1026592669+1018712518+1010262928+1001336555+992559768+985156399
1938.38+980113780+977803140+978078202+980293215+983532231+986985935+990137901
1931.63+992778778+995005137+997050035+999026388+1000799938+1002026134
1925.85+1002277627+1001296913+999318738+996573320+992631286+987200420+980815988
1919.10+974387120+968525123+962961150+957290474+952089152+948052504+945174519
1912.35+943219980+942142492+942023364+942675732+943716888+945005349+946488171
1905.60+948113014+949866980+951596229+953084048+954245683+955027106+955323103
1898.85+955042639+954124528+952638060+950890307+949076574+947056461+944952741
1892.09+943252936+942464692+943242401+945491384+947888399+949973277+952409529
1885.34+955432777+958680370+961746231+964477670+966913651+969045330+970797810
1878.59+972108287+972950694+973323408+973196716+972517132+971256899+969413789
1871.84+967035413+964529805+962822707+962329311+962213492+961942752+961969428
1865.09+962692166+964174987+966342390+969020477+971978421+974953654+977750059
1858.34+980216565+982134029+983344355+983828499+983621037+982827998+981617132
1851.59+980123708+978422012+976666155+975164424+973972805+972679684+971590782
1844.84+972304808+975075416+977628297+979285353+981326132+984306429+987912622
1838.09+991883561+995934188+999490744+1002189632+1004154233+1005411022
1832.30+1005807440+1005894760+1006699011+1007614487+1006674901+1003826023
1826.52+1000889892+999203121+998272382+996938944+995322339+994184814+993752063
1819.77+993885305+994508297+995621578+997088799+998638613+1000092598+1001390312
1813.02+1002504538+1003463776+1004183880+1004182800+1003044126+1001006387
1807.23+998436555+995277430+991358559+986703715+981526030+976120421+970703264
1800.48+965459329+960614311+956409979+953246870+951595554+951446644+952340713
1793.73+954219480+957193091+960364642+962380366+962905097+962437229+961480422
1786.98+960228766+958718458+956851307+954239469+950583910+946115186+941268953
1780.23+936206952+930923443+925648578+920843877+916879692+913863602+911868543
1773.48+911256830+912156706+913641621+914615177+915266194+916476250+918290928
1766.73+919768347+920286933+919926577+918990840+917818130+916436473+914210722
1759.98+910637687+906141748+901552748+897328223+893355461+889388507+885595450
1753.23+882532020+880803784+880602063+881353097+882413297+883675556+885049244
1746.47+886308801+887458010+888720403+890109421+891161112+891579411+891802405
1739.72+892034111+891417873+889258574+886017734+882837539+880748812+879587380
1732.97+877798297+874749183+871465798+869035557+867566107+866668121+866213286
1726.22+866256642+866777389+867674902+868708292+869462567+869629644+869330473
1719.47+869118217+869387201+869408068+867782347+864269282+859521039+853937684
1712.72+847713981+841231289+834871034+828801171+823098012+817960914+813646435
1705.97+810152077+807152600+804296699+801555806+799515635+799116245+800155375
1699.22+800425506+798818289+796485296+794688919+793032875+790147056+785804687
1692.47+780739714+775546226+770346728+765030668+759509646+753887391+748547559
1685.72+744085184+740836240+738158153+735069397+731799721+729242383+727788668
1678.97+727085177+726735289+726848677+727785967+729205307+729827556+729065582
1672.22+727476598+725560621+723229855+720154539+715928596+710447013+704160166
1665.47+697662482+691335183+685310230+679558784+673997850+668689151+663868783
1658.72+659735225+656305766+653516789+651518624+650848494+651955900+653922730
1651.97+654444557+652891637+650464164+648387323+646952788+645517712+643049112
1645.22+638874967+633074020+626129335+618498785+610481541+602307959+594159296
1638.47+586042779+577743788+568897104+559335787+549672765+540809806+532840308
1631.71+525407629+518222527+511072103+503730492+496006511+487937064+479617442
1624.96+470819213+461033551+450017742+438078893+425515499+412405594+398681241
1618.21+383843674+367293032+349981800+334295344+321026939+309301596+298162573
1611.46+287076158+275841695+264675170+254272712+245498052+239038693+235275604
1604.71+234219996+235541009+238736550+243292071+248818142+255119153+262171402
1597.96+269976254+278296822+286588706+294186131+300606591+305756115+309969024
1591.21+313835590+317941459+322723941+328382596+334898380+342087230+349690497
1584.46+357459557+365146328+372482940+379202099+385143683+390330350+395096557
1577.71+400250673+406677583+414021219+420619291+425967835+430875928+436154744
1570.96+442446621+450168374+458613642+466376793+473415484+480846710+489328581
1564.21+498213893+506293402+513286171+520360925+529408890+540843977+551843443
1557.46+558924781+561827989+562884239+563947512+564864474+564647288+563210862
1550.71+561096472+558570233+555566806+552139643+548626443+545348392+542385586
1543.96+539639527+537069560+534764626+532706289+530682022+528233107+525054499
1537.21+521419673+517764012+514293628+510828748+506925173+502212486+496729856
1530.46+490721178+484285219+477316087+469667168+461314657+452348339+443094735
1523.71+433628200+423143775+410675872+396410782+381692850+366846808+350812489
1516.95+333734787+318047216+305662919+296242408+288262713+280353032+272023043
1510.20+263263798+253780194+242788697+229478372+214631114+200989066+190216359
1503.45+181641715+173854016+165900338+157144520+146931797+135213324+123073033
1496.70+111864696+102765354+96453132+92310897+89099375+85846894+82060211
1489.95+77738270+73161738+68368299+63140450+57441199+51345652+44887926+38180442
1482.24+31448469+25032690+19322959+14532045+10593168+7342900+4730692+2818438
1474.52+1556620+781878+373519+201873+143570+127461+120426+113494+106147+105995
1464.88+111913+118528+121626+117462+108139+96163+85880+72173+57527+52224+61127
1454.27+83722+107364+119772+117642+110733+107530+110587+118332+124707+131200
1444.63+141086+159479+188866+234854+305462+407902+562073+818046+1274336+2009861
1434.98+3040786+4444317+6407851+9120965+12745063+17416767+23018726+29152827
1427.27+35533315+42123262+49022476+56324571+63760744+70696616+76897274+82942766
1419.55+89555003+96479631+102808829+108325521+113229942+117560426+121268248
1412.80+124362085+126946242+129173598+131221155+133255366+135359390+137508761
1406.05+139652646+141726474+143552481+144982913+146030721+146677991+146767894
1399.30+146120033+144696776+142548890+139372545+134371585+127032929+117781968
1392.55+106953420+94220856+79747773+64369149+48461197+32668068+19541483
1385.80+10943886+6022059+3312352+1835887+970303+393917+93437+18909+10327+9650
1376.16+10138+18667+103245+511241+1339169+2324510+3304929+4083241+4443342
1367.48+4464865+4636684+5577853+7910044+12352475+19030501+26786609+34492488
1359.76+41684994+48106585+53597830+57958025+61136582+63339655+64902634+66248929
1352.05+67800499+69809461+72281083+74977911+77516517+79573115+80939966+81462333
1344.33+81050188+79831294+78309168+77308820+77663165+79754045+83288163+87721880
1336.62+92694340+97844286+102844630+107677264+112398257+116920340+121066113
1329.87+124660260+127599784+129917110+131800166+133418323+134800250+135817449
1323.12+136268105+136000024+135005770+133420341+131396918+129129161+126831175
1316.37+124651042+122634693+120759598+119037102+117551765+116430684+115705135
1309.61+115283670+115085149+115140450+115573826+116482592+117838215+119486542
1302.86+121315259+123332933+125595076+128160055+131046177+134206458+137580211
1296.11+141156512+144887135+148634353+152257261+155727746+159225734+163060931
1289.36+167466174+172450242+177817324+183265107+188537507+193492873+198030194
1282.61+202086089+205616391+208599407+211056307+213025163+214531874+215562680
1275.86+216112601+216217936+215962391+215472068+214914887+214453300+214167314
1269.11+214077175+214193939+214588028+215360098+216569698+218261298+220464949
1262.36+223202989+226571348+230663997+235265322+239918445+244282206+248128563
1255.61+251182572+253163145+254041597+254137410+253874842+253505419+253124078
1248.86+252867891+252968566+253658095+255054727+257141664+259821018+262992704
1242.11+266603844+270620620+274980785+279550487+284142864+288554827+292562165
1235.36+295942899+298597519+300636272+302248790+303482280+304171994+304141064
1228.61+303412451+302174099+300630498+298982626+297488729+296418973+295968494
1221.86+296175821+296935533+298139814+299773741+301839777+304204916+306623778
1215.11+308915273+311071837+313165258+315154711+316843340+318042286+318705730
1208.36+318858084+318558035+317916945+317040907+315975811+314725641+313332267
1201.61+311927075+310687440+309696191+308937762+308483602+308612118+309601138
1194.85+311411359+313653184+315773010+317277273+317852654+317500672+316688250
1188.10+316129516+316278224+316961083+317615849+317778502+317259174+316032505
1181.35+314042173+311204573+307542699+303249190+298490175+293180902+287025070
1174.60+279789233+271575722+262864898+254704265+248893458+247248304+250090176
1167.85+255832977+262522219+269204808+275484074+280645771+283913151+284991146
1161.10+284065167+281581592+278036972+274025700+270286230+267577652+266519292
1154.35+267375475+270037236+274265020+279754774+285999649+292434292+298740655
1147.60+305011226+311604774+318771068+326502208+334579658+342661969+350274826
1140.85+356765959+361521327+364365917+365706885+366183094+366316607+366446202
1134.10+366882296+367945603+369793237+372452145+375943499+380281783+385417293
1127.35+391265108+397760733+404848351+412464956+420482030+428651628+436635004
1120.60+444194746+451226278+457451704+462315360+465285224+466106897+464738612
1113.85+461367366+456568136+451171914+445794366+440691743+436012485+431874774
1107.10+428418302+425944333+424956630+425845465+428500118+432400012+436876840
1100.35+441203846+444639417+446557353+446488604+444200723+440096981+435227246
1093.60+430437403+425813015+421267743+416978791+413000965+409094351+405030656
1086.85+400742549+396246846+391649100+387102578+382841924+379296139+376848339
1080.09+375493628+374957112+375100518+376099027+378363745+382219979+387371832
1073.34+392803306+397343716+400112230+400573953+398648251+394674341+389124144
1066.59+382465596+375251556+368165997+361881784+356899708+353537242+352024807
1059.84+352443140+354612975+358216770+362955457+368616712+375037206+381995330
1053.09+389225275+396443907+403176066+408745611+412577769+414313670+413691523
1046.34+410537261+404944721+397276116+388006372+377733494+367087124+356483840
1039.59+346134953+336311608+327301832+319178866+311979548+306067881+302132802
1032.84+300763943+302367243+307636604+317017034+329114654+341009742+350559038
1026.09+357260436+361257847+362626133+361635052+359287843+357162783+356318182
1019.34+356490796+356737832+356535773+356104136+356023603+356739284+358422914
1012.59+361215707+365501450+371588331+379126800+387278873+395318200+402758375
1005.84+409201155+414446812+418623219+422034917+424876097+427096716+428573256
999.09+429347961+429593308+429412387+428917134+428314875+427767791+427342569
992.34+427078144+427092258+427608514+428781562+430528066+432683178+435194222
985.59+438037833+441028632+443663768+445287801+445410474+443717625+440000982
978.84+434296371+426955538+418424470+409006255+398856894+388284236+378022433
972.09+369101970+362324058+357716486+354649746+352461813+350792567+349569376
965.33+349264431+351189323+356490999+364655836+373889112+382613831+389990524
958.58+395702665+399793374+402523596+404304880+405762815+407561927+409821411
951.83+411896767+412948931+412578175+411063039+409333722+408616589+409700561
945.08+412488254+416376296+420849410+425618655+430552074+435606241+440710619
938.33+445769007+450715223+455489297+460023798+464294009+468280142+471780612
931.58+474435401+476049574+476746480+476710755+475965866+474348688+471589359
924.83+467552272+462215412+455515500+447646829+439592408+433385149+431603629
918.08+435932661+445827254+458732669+471686505+482591864+490219712+493773736
911.33+492940649+488321732+481699145+475173333+469372150+463033371+454699566
904.58+444408116+433619894+423640919+414473318+405441156+396256436+387111290
897.83+378250864+369829131+362030289+355054708+348993759+343790749+339335599
891.08+335584717+332624848+330665109+329819563+329782183+329656403+328253473
884.33+324784575+319196188+311796668+302849023+292869238+283052477+274825780
877.58+268914146+265050602+262507108+260667628+259286917+258556159+258909222
870.83+260753665+264317312+269467326+275604857+281821773+287243168+291367136
864.08+294236071+296474688+299065590+302534725+306349155+309595229+311965332
857.33+313794327+315433690+316704492+317078793+316473293+315684980+315789015
850.57+317157604+319538952+322997146+328151363+335198361+343057645+350320073
843.82+357161567+365139507+374560423+383360678+388835474+389297332+384470143
837.07+375271039+363426094+351059964+339751467+329840599+321296666+314255746
830.32+308074555+301475605+293873284+285602049+277196997+268925948+260767746
823.57+252579053+244531689+237180017+230323530+222437874+212189088+199860253
816.82+186946801+175163278+165814385+159248121+154840278+151949361+150542599
810.07+150627707+151676258+152856025+153818015+155549813+160069542+168847764
803.32+182099471+199308627+219173736+239360471+257340262+271290091+280294802
796.57+284915813+287503507+290404521+293514684+294379410+290999858+284566431
789.82+278956906+276432507+274472700+268415550+256086614+239364337+223012158
783.07+211912405+208422116+211450615+217358838+222364229+224416523+223349502
776.32+220436940+217325443+214093838+208885071+200588680+191021758+182586502
769.57+174909692+166544316+158390655+152746115+150536909+150990477+152703535
762.82+154463461+155776826+156648879+157049248+156736098+155238672+152016691
756.07+146687597+139164670+129816157+119663884+110343068+103491967+99489786
749.32+97104581+94869265+92025249+88385357+84110444+79664749+75649323+72770722
741.60+72193408+74996187+81053523+88979090+97122924+104183868+109146629
734.85+111508189+111385321+108905376+103591249+95130626+84539220+74190037
728.10+67050963+64634139+65401280+66264609+65601608+64632789+65651861+71076649
720.38+82929040+102140328+127917772+158000315+189712850+221223091+252004516
713.63+282244901+312099689+341234728+368779770+393788950+415918659+435178453
706.88+450856637+461630981+466757983+466074212+458688232+442461850+416250448
700.13+384331059+357543703+347417911+358676940+387028596+424293422+465672323
693.38+509259518+551581550+590426006+628006211+665781249+701044465+731397427
686.63+757890543+782224156+804140360+822185641+834976520+841216161+839020665
679.88+825449780+797469386+755381220+706673811+665678531+647060300+657223674
673.13+690260666+731605699+766362013+786361834+793593601+799018119+811115840
666.38+826653487+838897957+847497200+856100562+866756184+878815613+890777863
659.63+901490212+910159216+916071457+918628391+917596419+913144173+905724259
652.88+896051917+884967056+873186133+861306814+849989031+839957212+831888508
646.13+826373361+823840469+824398021+827781491+833520442+841163756+850352696
639.38+860638102+871263807+881272800+889806739+896222843+900057770+901166662
632.63+899815800+896311244+890554869+882124594+870752042+856968361+842736261
625.88+830600722+821702038+815473270+811264953+809351811+810541472+815348131
619.13+823748287+835006843+847408799+859836553+872450496+884568882+894716318
612.38+901939306+905693261+905749584+902312088+895763889+886497353+875081716
605.62+862247210+848810108+835744978+823967364+813982817+806031215+800592043
598.87+798247433+799017647+802441028+808239814+816385370+826415028+837395078
592.12+848424968+858253378+865570575+869962514+871503819+870319966+866641445
585.37+860568813+852143400+841684975+829751495+816917395+803894810+791699302
578.62+781343594+773678062+769311313+768345321+770437425+775284874+782564117
571.87+791508183+801307960+811536908+821511257+829850903+835675149+839327669
565.12+841347851+841647292+839900957+836038004+830065185+821997157+812145583
558.37+801197814+789973767+779426603+770673655+764610681+761641324+761716826
551.62+764527615+769797888+777218410+786307672+796743001+808365425+820486039
544.87+831702860+840746807+846790400+848822805+845762278+837988828+828302237
538.12+819867775+813138385+806303779+798325839+789604429+781033888+774354202
531.37+771554083+773025626+777765968+784958431+794414465+806347202+820245487
524.62+834613328+848990827+863414990+877047263+889124115+899046059+905695490
517.87+908298818+906849763+901702266+893683131+883769156+872820442+861614291
511.12+850857235+841348121+833865941+828842298+826422052+826703057+829896285
504.37+836288753+846118312+859236726+873777857+887127166+898428673+907484978
497.62+913657492+916531357+916165328+913081773+908163347+901744406+893273476
490.86+882523848+870043081+856520820+842750308+829295174+816055539+803365149
484.11+793623451+790217156+793460562+799685818+804809544+807341152+808320178
477.36+809613502+812791063+818881118+828653881+843005177+860710970+875810869
470.61+883131645+882627512+875519937+861796563+840839597+813913798+787890983
463.86+773313316+774648443+785881809+797767071+806317218+813602809+822830986
457.11+833616947+843584475+852947380+862687052+872364662+880635829+886217024
450.36+888621062+887866854+883970270+876832575+866666230+854426487+840676033
443.61+825156282+808382241+791824575+776672946+763523805+753093271+746504214
436.86+744521379+747135175+753769816+763557504+775599172+789699178+806124141
430.11+823864106+840388477+853399919+862118898+867297461+870237913+871484167
423.36+870367847+866405755+860853532+854732074+846883258+836847859+827832208
416.61+822720097+821704266+824284904+830351458+839782707+852060808+866312965
409.86+881822721+898282869+915250392+931761729+946479797+958120589+966295320
403.11+971305388+972789762+969932105+962913741+953521729
##END=
