##TITLE=26
##JCAMP-DX=4.24
##DATA TYPE=INFRARED SPECTRUM
##DATE=16/11/2015
##SAMPLING PROCEDURE=Instrument type and / or accessory
##ORIGIN=Default
##XUNITS=1/CM
##YUNITS=TRANSMITTANCE
##RESOLUTION=4
##FIRSTX=3996.3359
##LASTX=399.24785
##DELTAX=-1.9287336
##MAXY=1.2307243
##MINY=0.083445579
##XFACTOR=1
##YFACTOR=1.1462014e-009
##NPOINTS=1866
##FIRSTY=0.50448138
##XYDATA=(X++(Y..Y))
3996+440133291+440286072+440541818+440841089+441112903+441390905+441712848
3983+442062613+442437703+442835101+443221475+443620278+444083875+444588033
3969+445073471+445493854+445811846+446072115+446393695+446801754+447203157
3956+447512204+447721616+447927179+448238826+448581051+448794727+449001694
3942+449364200+449708816+449845581+449818332+449880370+450268408+450755302
3929+450975374+451095655+451414270+451747082+451915361+452191179+452690449
3915+453058258+453115460+453075367+452986860+452844894+453024405+453706722
3902+454519044+455123878+455272395+454890597+454553989+454798450+455130378
3888+455125490+455364438+455864801+456110302+456316853+456423665+456230166
3875+456147899+456397196+456968333+457488456+457437442+457334166+457645190
3861+457769942+457173948+456297664+456572286+458588452+460133844+459643206
3848+458397397+457712740+457661622+457839209+458280965+459160681+459884235
3834+459973575+459837798+459751058+459631662+459435303+459192922+459422926
3821+460233220+460757711+461149805+461711166+461577261+460760987+460385638
3807+460839562+461242889+461412467+462028793+462568573+462565713+462523852
3794+462449801+462203676+462027961+462053182+462226401+462376686+462461189
3780+462761656+463205076+463288175+462971536+462736227+462944287+463346886
3767+463530608+463468830+463269299+463255622+463548133+463523900+462985160
3753+462888541+463861444+464709543+464469711+464461078+465217498+465023895
3740+463741944+463034302+463606843+464647869+465116926+464719944+464033415
3726+463791762+463961184+464075380+463937003+463418492+462467949+461533163
3713+461376170+461829314+461734151+460670088+459211019+457947633+456734116
3699+454987269+452588785+449813444+446974036+444529271+442858814+441572807
3686+439932823+437929554+436136555+435040797+434850626+435397894+435657436
3672+435147245+434857204+434888873+434476732+433829257+433353855+432879104
3659+432344941+432002560+431617954+430886782+430376851+430399810+430063383
3645+428778833+427081959+425557367+424237663+422933247+421520382+419917657
3632+418355962+417387037+416680279+415137929+412829123+410655886+409041071
3618+407551502+405542045+403128273+400768713+398568851+396377595+393960963
3605+391248102+388457914+385734860+382965291+380102483+377206237+374190933
3591+371047237+368011262+365108464+362008527+358612023+355145083+351749047
3578+348413359+345088384+341704178+338196156+334651057+331208922+327802017
3564+324277563+320627030+316945425+313244320+309486169+305712183+301953460
3551+298191773+294419920+290637978+286834689+283014448+279181284+275321235
3537+271461472+267673238+263975435+260272692+256499174+252666739+248799305
3524+244978674+241284719+237684342+234080377+230459406+226879726+223389905
3510+219976864+216559117+213109299+209653695+206252784+202955382+199730095
3497+196532602+193346966+190197016+187085599+183970517+180851261+177803157
3483+174819873+171808963+168828357+165972699+163189675+160360069+157422599
3470+154444412+151592927+148989595+146539889+144055291+141508641+139004957
3456+136578861+134218144+131927824+129663389+127407039+125207567+123115089
3443+121092059+119024555+116868712+114754458+112869337+111182149+109529047
3429+107874854+106277720+104722076+103146263+101564996+100004113+98458077
3416+96902792+95389355+94020210+92771241+91567989+90339717+88988734+87548502
3400+86293852+85361296+84493027+83446722+82331711+81409763+80699014+80004021
3385+79266777+78530847+77799602+77084479+76440884+75907708+75392012+74761775
3369+74139345+73772524+73641849+73539191+73365193+73209213+73165681+73155749
3354+73040499+72851927+72801850+72959071+73163666+73344424+73540907+73733295
3339+73984275+74420441+74956438+75458555+75941737+76398047+76823026+77344274
3323+78030530+78766214+79460133+80151031+80898662+81680101+82403207+83038091
3308+83688603+84548961+85699497+86953626+88076308+89048009+90002855+91044609
3292+92232521+93579481+94981601+96334873+97646159+98956730+100295903+101669370
3277+103080149+104527784+105981894+107520227+109270806+111148360+113001045
3263+114851571+116760938+118683435+120563720+122484917+124559936+126723397
3250+128864718+131040932+133373321+135837639+138309146+140768043+143284285
3236+145860446+148484006+151222205+154075887+156951787+159846317+162816743
3223+165864925+168967111+172110691+175286577+178504519+181761944+185033461
3209+188360296+191786688+195274052+198779552+202294997+205837899+209439421
3196+213104618+216782687+220433701+224093360+227810404+231571441+235337964
3182+239128019+242977459+246861611+250728654+254591875+258505512+262467614
3169+266419524+270303988+274141104+277998397+281887280+285769586+289600020
3155+293361707+297096873+300871847+304699733+308519870+312272093+315947275
3142+319570585+323191555+326838656+330464800+334039047+337583080+341076411
3128+344514179+347931172+351290104+354551663+357776795+361015993+364254801
3115+367478711+370658627+373756484+376785256+379784595+382750862+385675162
3101+388587191+391473556+394278434+397002684+399687385+402315405+404843894
3088+407303765+409734542+412120233+414428831+416648792+418818857+420961595
3074+423014786+424933266+426756765+428530836+430241776+431853055+433374266
3061+434822935+436195369+437489098+438669905+439712075+440646133+441462823
3047+442107283+442600365+443004992+443314403+443471865+443437023+443197919
3034+442735258+442038588+441137083+440027571+438631008+436882964+434787392
3020+432354067+429536656+426246912+422405246+417938595+412765759+406802441
3007+399945549+392107563+383208244+373115664+361711700+348908391+334497912
2993+318107044+299450921+278555285+255565480+230524045+203681810+176100108
2980+149840320+127306208+109934896+97674493+89651459+84472245+80669035+77913038
2964+77253797+80210904+87665812+99011014+112147694+124382492+133616937
2951+138847769+139752836+136360310+129247829+119915061+110924141+105011038
2937+103515853+105941456+110845462+116924211+123597094+130849422+138761745
2924+147270074+156207809+165380112+174482901+182969584+190134731+195482164
2910+198936299+200795340+201612186+201907024+201947598+201803774+201306558
2897+199927325+197056027+192373217+185854649+177463623+167018366+154792395
2883+142134146+131497561+125855355+127062410+134491219+145847653+159065235
2870+173101028+187543151+202029852+216081389+229365755+241836069+253671467
2856+265279097+277170656+289682573+302761492+315988486+328827625+340864348
2843+351886774+361868304+370908158+379204202+387008907+394528823+401910909
2829+409222817+416439849+423528279+430443361+437097836+443444408+449502993
2816+455290388+460835662+466212450+471511651+476841742+482252903+487661360
2802+492959938+498088313+502980807+507617920+512019829+516108426+519766084
2789+523016878+525990295+528733447+531208425+533456155+535563844+537550368
2775+539383695+541009846+542413950+543648891+544761523+545789341+546784969
2762+547786266+548809507+549878042+550998579+552088851+552993736+553637467
2748+554067523+554322280+554434708+554528832+554771056+555362890+556561222
2735+558490856+560970255+563605451+566016415+567988275+569540791+570963615
2721+572685138+574978526+577865567+581202373+584674851+587940882+590864793
2708+593454019+595762436+597917342+600018323+602056537+603957415+605624855
2694+607037175+608282152+609401701+610305234+610929985+611306531+611414383
2681+611239292+610986147+611063890+611826446+613346929+615420193+617735577
2667+620060842+622280543+624371279+626392541+628379845+630307140+632163347
2654+633955593+635711333+637450900+639147462+640784118+642384060+643956182
2640+645474013+646923982+648307856+649615548+650879402+652135716+653332280
2627+654388750+655313396+656179332+656981825+657656705+658199137+658627009
2613+658959353+659278801+659658882+660064965+660448947+660830069+661185554
2600+661434799+661593457+661726062+661829858+661915037+662006352+662097407
2586+662183159+662276918+662412227+662619870+662931102+663377434+663971452
2573+664676649+665414868+666147211+666877422+667588548+668274453+668949177
2559+669572108+670111576+670592125+671001120+671320412+671581409+671841471
2546+672159670+672588686+673153635+673835068+674628721+675515665+676437398
2532+677388617+678405826+679487154+680599890+681734676+682893018+684049904
2519+685201694+686404134+687664660+688898457+690097777+691363139+692724757
2505+694101923+695445860+696766448+698043043+699267947+700427070+701464559
2492+702400022+703305999+704193983+705033814+705828871+706616179+707417321
2478+708257411+709163960+710100254+711020740+711961974+712943094+713925670
2465+714899561+715881513+716912607+718018323+719154409+720254769+721284094
2451+722261990+723238950+724237178+725247107+726246011+727204926+728116104
2438+729011836+729911729+730787077+731606211+732384003+733157635+733927160
2424+734639898+735236567+735738490+736199174+736603333+736947378+737273326
2411+737613782+738034269+738612634+739313360+740019182+740662549+741206333
2397+741720112+742289533+742936956+743608873+744189630+744535859+744622754
2384+744597949+744612821+744663939+744727173+744851614+745005384+745078342
2370+745209283+745544695+745753691+745896852+746294667+747388943+749743536
2357+752774623+754630051+753066250+748177395+744373405+745617706+750270056
2343+753572540+754054390+753665156+753673788+754294482+755253761+756507943
2330+757885109+758807935+759246259+760009283+761463360+762750563+763083323
2316+762985508+763401159+764433188+765609003+766617996+767484192+768331303
2303+769251632+770192294+771029421+771830510+772673513+773458950+774146051
2289+774775638+775318745+775705483+775991754+776324774+776753426+777176357
2276+777461848+777588368+777642398+777707921+777790292+777880047+777998455
2262+778179838+778441615+778767355+779130120+779516287+779926269+780352061
2249+780768908+781162511+781479514+781825899+782245398+782697399+783160007
2235+783665622+784270976+784948561+785615225+786244708+786845122+787405546
2222+787916673+788397430+788858375+789284687+789659256+789946307+790108553
2208+790168043+790157539+790111101+790146618+790411880+790977869+791832208
2195+792899235+794055185+795198759+796281386+797267030+798159227+799028126
2181+799926043+800810127+801599516+802287033+802938201+803571740+804169866
2168+804782552+805432836+806069547+806685614+807296428+807919931+808608436
2154+809337450+810022887+810677435+811323091+811924285+812474205+812993860
2141+813503582+814003320+814497079+815017461+815580382+816192756+816840284
2127+817472107+818073873+818673975+819286557+819906888+820545263+821211407
2114+821889200+822557269+823211088+823876297+824601723+825395844+826200625
2100+827006395+827872954+828791932+829658752+830428380+831136229+831795197
2087+832353126+832756349+832993789+833082192+833049691+832917034+832688278
2073+832369818+831980844+831544236+831131601+830918706+831075543+831595822
2060+832355830+833281724+834341366+835468975+836602617+837709945+838731939
2046+839595222+840265578+840719711+840953304+841053355+841197244+841499531
2033+841952780+842577635+843438994+844515121+845729782+847043038+848394827
2019+849731068+851048068+852289197+853399802+854434119+855426523+856318096
2006+857078416+857783301+858494687+859165512+859731345+860210126+860716572
1992+861320002+861884691+862284066+862601485+862973559+863431123+863887908
1979+864271006+864625399+865026698+865453477+865818167+866162003+866567046
1965+866920815+867116030+867260127+867414053+867431993+867223154+866849676
1952+866341930+865627736+864613959+863332164+861984119+860743873+859653654
1938+858822507+858401864+858404100+858737016+859261767+859917095+860832017
1925+862266437+864240949+866441669+868798187+871227716+873295415+874965612
1911+876524421+878022388+879370901+880516399+881498195+882407708+883272291
1898+884078737+884857933+885596256+886311386+887125424+887919181+888485065
1884+888957555+889491094+890024426+890507627+890992389+891480167+891934871
1871+892559830+893509593+894429506+895037096+895539955+896126848+896808593
1857+897534123+898183835+898669637+899026058+899324029+899640408+900159283
1844+900767497+900961256+900899582+901185177+901841233+902580596+903479708
1830+904646215+905670236+906366854+907077096+907823219+908482395+909160084
1817+909905583+910651290+911404693+912202403+912936877+913507650+913953306
1803+914434116+915122309+915882993+916391051+916759745+917436809+918322818
1790+918797179+918832436+918934568+919290573+919758070+920175853+920390829
1776+920517298+920985211+921788432+922240953+922133933+921922701+921925613
1763+922245425+922645423+922853431+923026805+923235749+923515623+924078076
1749+924711355+924965436+924907506+924898042+925099809+925314681+925359714
1736+925671622+926410465+926719876+926369383+925975313+925715407+925422533
1722+925083168+924942555+925141827+925145155+924357638+923095032+921941630
1709+921065606+920311058+919448971+918606124+918029423+917219234+915635048
1695+913494442+911028408+908465754+906061395+903969982+902169573+900038015
1682+896992160+893578859+890598318+888074770+885571503+883085812+880855763
1668+878716821+876573407+874757293+873319232+871909929+870531670+869718777
1655+869896779+870343892+869687524+868469067+867902611+867739845+867423881
1641+867333866+868031887+869817996+872351321+874458594+875947616+877856502
1628+880550616+883619144+886763387+889587298+892009442+894904492+898474734
1614+901561254+903912988+906208768+908530237+910633297+912587009+914498078
1601+916273319+917857817+919341847+920771587+922058010+923154626+924110941
1587+924970324+925725808+926320293+926740053+927197669+928002867+928799120
1574+928840305+928487837+928406610+928274837+927711760+927021279+926800063
1560+927443846+928022836+927051232+925082336+923271734+921864355+920655311
1547+919545278+918666134+918141331+917612056+916195108+913755387+911228095
1533+908987957+906631959+904061194+901503948+899009625+896452900+893519473
1520+890046994+886246072+882306512+878318279+874407944+870656683+866543905
1506+861032224+854146601+846867011+839225073+830286622+819341107+806857480
1493+793008335+776026803+754684133+730388690+705261686+680564789+657285412
1479+636768115+619476185+603507858+585167517+563280075+542092110+525779999
1466+514224397+504236757+493112147+482366995+478624991+488811954+511019781
1452+537720258+563700926+585825809+601669227+610507418+614222173+615887430
1439+618234847+622391463+627145060+630848428+633299901+634898803+636031613
1425+637190839+638676013+640571222+642915468+645510206+648124082+650843365
1412+653778508+656841732+659960493+663130425+666224174+669058277+671375326
1398+672218433+670025617+664129954+655258742+643773655+629212916+613343497
1385+601328979+598179432+606343938+624538465+647543065+669409654+686564612
1371+698748188+708099689+716348854+723592095+729256661+732751761+734016031
1358+733706255+732498199+730652808+728135604+724987357+722059547+721339268
1344+724360215+730241785+736664123+742369251+747660809+753267497+759593164
1331+766713055+774542617+782912322+791658781+800652717+809784511+818879798
1317+827634214+835782391+843190477+849696746+855030633+858917307+861214439
1304+862109339+862152813+861932377+861837681+862130504+863053174+864705274
1290+866947128+869520962+872094743+874186312+875222398+874846008+873131089
1277+870725638+868943429+869262928+872368637+877721297+884166204+890692962
1263+896678588+901813256+905848811+908517132+909596275+908771109+905576945
1250+899743060+891307936+880324928+867061116+852735321+839341505+828627710
1236+822217332+821956283+828802280+841843368+858729424+876869090+894200074
1223+909403140+922205591+933029786+942152583+949734044+956095540+961586940
1209+966541889+971151025+975348618+979109603+982608187+985925596+988953562
1196+991520688+993701023+995675535+997523267+999096012+1000280199+1001238594
1182+1002165684+1003050860+1003766719+1004292458+1004698280+1004914816
1171+1004758499+1004147164+1003160688+1001857417+1000129290+997963411+995621037
1157+993264831+990745756+987798704+984150043+979506066+973510975+965918074
1144+956880040+946896196+936627485+926818888+918171908+911005631+905044653
1130+899908842+895613069+892155879+889022037+885430994+880779008+874497595
1117+865417544+851610364+830947411+801584695+762190086+712750583+656648129
1103+601956070+558484876+531830160+520579757+519614550+524992534+535308619
1090+549958957+567213862+583682811+594908097+595644443+579974556+542549363
1076+481912759+405922959+333486423+285709810+271414800+280140355+289145055
1063+279729384+249709755+211505768+180596725+166807317+173845201+202805786
1049+253642398+324253200+409154487+499707704+586703965+662984560+724590115
1036+770560260+801700296+819178705+823112909+811270101+777719257+714258222
1022+621060630+519670556+447416260+431270998+468818421+535858435+608762338
1009+677113631+739514711+795617634+843792971+882230797+910103710+928128503
995+937995447+941079680+937872203+928397249+912668652+890385111+860092186
982+818543658+760663935+680999109+578674924+464517448+362151688+297828202
968+287134610+330351124+415155168+521912254+631568706+731413700+815211845
955+881299027+931210240+968259927+995894255+1016629804+1032083831+1043613380
941+1052511633+1059495071+1064744247+1068544129+1071277869+1073059142
930+1073741823+1073189355+1071481925+1068789786+1064963071+1059500064
918+1051986725+1042290348+1030447332+1016782897+1002183885+988346596+977949961
905+973671349+975735200+980447196+981866432+975005197+957273071+928216387
891+890600191+852626533+825791526+816851152+824152531+844559999+877677927
878+919622657+960654962+992459530+1012801424+1023127649+1025059623+1018763754
864+1003689444+981963363+961837901+954889096+966003045+988461416+1011580212
851+1029530538+1041608603+1048857355+1052776634+1054836429+1055710477
839+1055496021+1054372780+1052681679+1050747520+1048669004+1046214515
827+1043308233+1040316460+1037394473+1034139258+1030247956+1025948336
816+1021564784+1016999953+1011774491+1005746535+999478018+993721512+989095111
802+985993302+984234806+982990193+981373142+978878091+975490895+971690180
789+967895602+963995668+959628548+954679424+949337165+943819764+937902052
775+931009825+923347449+916107017+910492684+906738459+903682828+899574782
762+893070281+883571926+872179039+862785624+859896399+863957071+870880291
748+876596704+879741986+880597834+879868559+878211571+876057132+873634780
735+871038169+868313010+865488319+862666540+859838468+856890221+853744938
721+850955348+847971376+844848194+842114142+839544104+836776043+833901014
708+831117769+828457560+825782530+823026326+820288218+817697483+815343149
694+813251633+811272701+809166988+806922794+804775168+802907780+801309657
681+799795882+798224281+796362405+793510413+790635904+792078125+796921321
667+795368753+788371794+785811844+787639971+788914797+788741683+788305439
654+788118076+788293479+788699977+788939082+789054890+789521243+790440117
640+791511408+792556958+793591224+794697148+795939474+797303223+798788762
627+800423649+802272785+804088379+805773812+807651601+809894443+812257929
613+814494374+816580014+818713028+821116036+823677857+826211182+828843778
600+831714387+834590871+837287066+840117997+843290893+846383030+849180576
586+852004487+854933181+857749916+860475284+863418019+866602459+869695428
573+872534732+875247567+878171945+881389407+884361939+886804988+889252717
559+892103981+895214527+898445717+901655378+904608462+907308296+910043596
546+912890492+915614455+918128331+920529778+923038246+925652589+927984770
532+930073582+932381843+934849853+936909648+938423423+939905893+941716911
519+943542178+945007279+946280806+947413719+948181475+948789897+949448241
505+949769509+949225673+947765772+945805092+943389292+939986392+935475643
492+930311855+924660185+918451574+912242548+907275951+904761659+904831030
478+905922653+906034042+904091251+899607647+892921243+885604264+880207819
465+879900384+886077378+897021385+910157688+923169187+933712363+941250974
451+946614554+950284640+952494824+953640530+954573340+955418683+954925081
438+953320614+952669863+953540790+955398818+958578630+962747622+966388795
424+968876670+971213947+974687154+978554847+980346416+980071638+979554115
411+979689944+980733414+982192276+983191752+983554309+983266843+982776049
##END=
