##TITLE=26
##JCAMP-DX=4.24
##DATA TYPE=INFRARED SPECTRUM
##DATE=16/11/2015
##SAMPLING PROCEDURE=Instrument type and / or accessory
##ORIGIN=Default
##XUNITS=1/CM
##YUNITS=TRANSMITTANCE
##RESOLUTION=4
##FIRSTX=3996.3359
##LASTX=399.24785
##DELTAX=-1.9287336
##MAXY=1.2432415
##MINY=0.090614475
##XFACTOR=1
##YFACTOR=1.1578589e-009
##NPOINTS=1866
##FIRSTY=0.49413839
##XYDATA=(X++(Y..Y))
3996+426769083+426992576+427214576+427407260+427606764+427848249+428157428
3983+428526913+428918664+429272500+429578616+429913302+430287575+430694254
3969+431163479+431638907+432007235+432280533+432631976+433026763+433295480
3956+433511483+433724294+433913014+434151101+434514229+434856972+435002090
3942+435262621+435676507+435908263+435999431+435999997+436173273+436743447
3929+437228836+437341111+437465379+437769513+437861042+437872521+438261903
3915+438859052+439101206+439055390+439069495+439029651+439001904+439470512
3902+440290613+440892652+441226541+441112722+440639791+440504197+440973113
3888+441142219+441046521+441623490+441998252+441996862+442349180+442390517
3875+442126073+442153305+442363645+443064008+443574930+443417149+443571842
3861+443860481+443679637+442938144+442318190+443465385+445692955+446050935
3848+444918309+444013680+443846221+444104848+444342009+444841297+445692543
3834+445992919+445782991+445800648+445857119+445792051+445664745+445487814
3821+446182359+447140834+447129406+447355808+447670341+447196894+446623529
3807+446777603+447528312+447618965+447701691+448508974+448696716+448498987
3794+448474329+448280925+448135911+448191404+448343265+448582073+448732853
3780+448833082+449248872+449570303+449407837+449119713+449117757+449530201
3767+449776371+449783989+449727466+449532209+449717068+450115973+449979247
3753+449559853+450000147+451183067+451406072+450643678+451108269+451901293
3740+451005107+449813950+449890035+450849848+451513610+451531473+450874095
3726+450260010+450253111+450396067+450476991+450360135+449851169+448949989
3713+448300744+448508923+448712983+448034086+446689884+445250602+444073807
3699+442760029+440819501+438548535+436178061+433842849+432032408+431021296
3686+429984934+428202034+426436121+425501995+425207308+425392707+426134123
3672+425980229+425185841+425310882+425342747+424758828+424290298+423963694
3659+423399800+422919662+422971475+422644819+421784513+421615124+421743640
3645+420974141+419374324+417780323+416521189+415384959+414200134+412954204
3632+411530390+410169844+409700233+409034695+407142249+404890097+403055281
3618+401777717+400345899+398216472+395958478+393807585+391648403+389580596
3605+387316039+384752083+382224214+379785016+377203661+374540481+371957298
3591+369196207+366119012+363275993+360765266+357932928+354713138+351514635
3578+348454918+345406294+342305831+339121510+335746334+332364593+329365260
3564+326429322+323103410+319609987+316172084+312762185+309316638+305832842
3551+302354296+298729836+294971145+291357881+287886311+284361333+280736332
3537+277079079+273487951+269949897+266385820+262803623+259196923+255510148
3524+251819332+248302332+244915830+241477309+237950529+234438342+231034904
3510+227704256+224396773+221040618+217573012+214195583+211043075+207952496
3497+204821366+201692127+198596464+195504534+192401961+189328511+186279553
3483+183198266+180139642+177206780+174343787+171487357+168642832+165725272
3470+162724999+159853679+157264641+154806860+152284331+149700441+147151491
3456+144679656+142259789+139879521+137556934+135299120+133093634+130930309
3443+128784499+126611457+124393951+122245052+120309789+118526541+116743434
3429+114968539+113300061+111721967+110105419+108419813+106793303+105302587
3416+103828383+102277727+100741221+99306488+97992658+96743929+95371787+93853839
3400+92539031+91578020+90671365+89582971+88446774+87534224+86828520+86099259
3385+85301480+84498450+83700858+82942434+82268171+81667670+81060412+80370338
3369+79705200+79292279+79164574+79115464+78990507+78837307+78694532+78539125
3354+78381479+78260377+78282873+78453317+78631239+78807167+79047352+79309248
3339+79572090+79924156+80403973+80965466+81542873+82051910+82512815+83078066
3323+83798718+84574702+85331884+86073899+86848281+87646652+88378842+89047133
3308+89795094+90768543+91969828+93223853+94349202+95351318+96383542+97539134
3292+98821247+100222120+101644016+103009138+104403300+105869132+107332301
3279+108747614+110162933+111658868+113228635+114877139+116688018+118631994
3265+120599097+122563343+124527691+126473186+128422529+130456103+132620664
3252+134850306+137062073+139321380+141754722+144327506+146897690+149440745
3238+152021084+154638603+157304447+160132962+163137817+166158192+169136587
3225+172140553+175192896+178310630+181530368+184827118+188162180+191520587
3211+194837607+198146634+201582735+205120326+208640839+212149448+215716175
3198+219344355+223012701+226721046+230453096+234176292+237905202+241661061
3184+245426263+249200886+252999344+256839292+260714916+264578931+268417181
3171+272243900+276056642+279845293+283628153+287438888+291263573+295053923
3157+298787183+302472362+306131236+309802542+313500076+317193852+320854733
3144+324445579+327932644+331369466+334850559+338350571+341798229+345197910
3130+348527554+351787265+355033179+358253432+361422309+364549232+367627147
3117+370656081+373658039+376631634+379555963+382431646+385261332+388057429
3103+390827118+393565611+396283255+398931995+401460817+403904956+406299523
3090+408661065+411003818+413314449+415540140+417642850+419666334+421685881
3076+423713123+425662556+427439588+429084707+430696210+432276672+433772839
3063+435171453+436501036+437774918+438947286+439984214+440909794+441755069
3049+442523949+443162486+443639381+443998649+444258305+444384788+444354518
3036+444143920+443721901+443077289+442232118+441187520+439879198+438227259
3022+436224854+433919912+431286847+428238377+424691263+420519073+415607422
3009+409948976+403510735+396160737+387769305+378217552+367372020+355105712
2995+341268569+325571204+307685083+287510648+265066328+240325430+213554536
2982+185812297+159132365+135959098+117853024+104946415+96503351+91082773
2968+87044549+84006723+83180733+86256686+94123958+106071918+119855248+132622839
2953+142193472+147588594+148515899+144974228+137536317+127815947+118511522
2939+112372679+110742850+113208778+118332158+124700800+131679653+139261510
2926+147489331+156265112+165447469+174854632+184148221+192774947+200079156
2912+205559102+209098610+211020039+211885943+212198391+212264025+212197245
2899+211774518+210381257+207405784+202580154+195929320+187398035+176742085
2885+164222491+151178178+140093246+134116277+135311385+143060006+154840269
2872+168405993+182734189+197421948+212067906+226246879+239662595+252199525
2858+263995553+275491333+287236243+299555291+312393652+325366655+337922065
2845+349619821+360278384+369911447+378635402+386629858+394124588+401320950
2831+408340716+415251733+422082933+428802091+435325579+441579219+447531040
2818+453199268+458623797+463849671+468915757+473864986+478810870+483827330
2804+488807138+493624275+498293925+502847390+507216304+511314340+515090121
2791+518485220+521487745+524196071+526695550+528983813+531081607+533035724
2777+534859396+536561887+538104281+539411676+540511150+541514205+542495280
2764+543453188+544387366+545359328+546390593+547428242+548428672+549323674
2750+550004784+550426443+550655264+550789983+550918473+551165826+551724727
2737+552825076+554586716+556852432+559258529+561459948+563253916+564668490
2723+566006669+567635392+569765565+572442078+575517857+578673530+581630960
2710+584295839+586668629+588800296+590801310+592721812+594536475+596220640
2696+597742288+599096477+600303489+601337534+602154135+602752056+603132275
2683+603265037+603176907+603040026+603164449+603847154+605184973+607054872
2669+609203732+611352541+613344340+615216144+617076725+618948014+620753719
2656+622433560+624022130+625593866+627170184+628726168+630256156+631766221
2642+633234847+634630167+635938540+637178241+638389732+639601738+640800051
2629+641932317+642939336+643811482+644601880+645331070+645971100+646505651
2615+646916860+647241174+647588756+647980094+648360004+648727765+649090790
2602+649407279+649635431+649815451+650002008+650181204+650343104+650473395
2588+650572903+650685795+650824529+651004343+651258697+651599226+652033034
2575+652564085+653186767+653882651+654616577+655353129+656069244+656767702
2561+657450305+658071957+658592043+659000215+659319792+659637928+659985458
2548+660319141+660659361+661086322+661658556+662364993+663140256+663934001
2534+664764604+665674432+666651284+667659076+668690032+669746779+670817735
2521+671888793+672964330+674058759+675175581+676314230+677474707+678668026
2507+679926311+681218777+682465685+683663174+684851500+686039723+687165296
2494+688156048+689035813+689857562+690654961+691449838+692224638+692978641
2480+693745926+694549812+695407904+696308002+697212631+698110979+698993987
2467+699860728+700761908+701728207+702733322+703768345+704831064+705864903
2453+706808913+707697017+708628775+709620402+710583973+711469555+712315138
2440+713157066+714002289+714860278+715698654+716478088+717252167+718042617
2426+718754820+719364684+719942013+720503642+721010188+721411616+721705455
2413+721973039+722310119+722775329+723384112+724066817+724722600+725326286
2399+725857954+726366921+726932410+727594679+728310176+728988558+729534640
2386+729864101+729951202+729872955+729760475+729684081+729628124+729578293
2372+729560945+729630492+729802121+730033671+730376413+731020098+732154526
2359+733706289+735205081+736252768+736766161+736446223+735288785+734243723
2345+734473574+736020755+737759178+738961455+739712678+740264834+740823580
2332+741613670+742596700+743445063+744070936+744740258+745639327+746620504
2318+747379809+747835186+748234504+748845243+749690774+750644771+751624352
2305+752584989+753487610+754336230+755141557+755901017+756633863+757358266
2291+758061254+758719250+759298021+759763539+760126770+760453400+760814624
2278+761198549+761511229+761709060+761839918+761957494+762084285+762235168
2264+762425278+762663931+762959057+763323163+763745697+764176004+764581860
2251+764970624+765353829+765796182+766164149+766520019+766956761+767458417
2237+767967486+768501059+769115453+769777671+770392270+770966099+771555011
2224+772127656+772669414+773205201+773717462+774179222+774567935+774867333
2210+775077674+775222173+775327343+775406260+775515548+775788744+776337915
2197+777146999+778121999+779177253+780258092+781305213+782254885+783103918
2183+783909605+784740620+785597065+786391066+787088958+787748396+788397074
2170+789021969+789631113+790234336+790856142+791518154+792184077+792843927
2156+793517778+794196829+794881748+795565174+796206543+796794013+797360069
2143+797915108+798448527+798961045+799453127+799967961+800563926+801202000
2129+801807282+802382038+802954734+803531497+804130087+804762035+805416582
2116+806090588+806788171+807474429+808121151+808792737+809533974+810278453
2102+810979949+811699307+812517658+813427280+814311986+815075359+815734642
2089+816374466+816965180+817392244+817618594+817686340+817655967+817580603
2075+817480890+817323006+817073747+816747272+816409265+816236041+816453742
2062+816992360+817694422+818562089+819561850+820630797+821706952+822740122
2048+823700090+824556638+825255044+825720511+825994067+826168887+826335729
2035+826635744+827100748+827732799+828577507+829607486+830736508+831927305
2021+833160057+834370106+835564764+836787323+837872074+838791838+839707277
2008+840585703+841345060+842021434+842688593+843328571+843899106+844438650
1994+844902367+845345698+845978676+846472044+846757286+847117891+847562973
1981+848020306+848426573+848820486+849254294+849705810+850114445+850408129
1967+850726368+851224730+851602581+851797838+851980998+852040713+851887359
1954+851606544+851201050+850591289+849762694+848777604+847558340+846447695
1940+845753561+845118164+844709786+844742990+845075334+845590117+846260726
1927+847201235+848450871+850242266+852483735+854416644+856579969+858865401
1913+860428232+861663763+862954273+864279583+865414371+866357145+867279534
1900+868176287+868962361+869680072+870560454+871313170+871765974+872557401
1886+873329165+873743668+874266894+874852614+875365133+875884755+876536059
1873+877233281+877545240+878022341+879262969+880247235+880656796+881107746
1859+881786231+882545536+883208062+883711108+884151248+884653780+885230028
1846+885212320+885329896+886332282+886750389+886758523+887383058+888396048
1832+889146603+889850620+891166921+891980793+892432876+893443293+894209187
1819+894649739+895349124+896293236+896993959+897557029+898377800+899195790
1805+899778834+900100985+900506532+901462793+902563091+903083434+903021248
1792+903547563+904851921+905327271+905042287+905262100+905813536+906267884
1778+906926703+907454665+907449723+907648738+908592645+908941771+909017547
1765+909143772+908906354+909312312+909958468+910189400+910800962+911020981
1751+910846263+911558621+912431796+912718942+912708441+912660772+913123974
1738+914090943+913595309+913096484+914466220+915010140+914505652+914102680
1724+913922711+914191531+914013107+913110692+913096793+913428828+912919193
1711+911959946+910971459+910114859+910012314+909765733+908177421+907709689
1697+906822305+904543051+903153445+901219713+899103747+897362235+894469153
1684+892031139+891036887+888925246+885701467+882535035+880713319+879079294
1670+876365871+874591722+873575540+871501890+869446360+868703940+868536944
1657+867914468+865828051+865030034+867264605+866908272+864342181+863795275
1643+864421251+864611824+864993073+865442067+866805625+869783749+871955311
1630+873048402+875027126+877776172+880341131+883403165+886250329+887863042
1616+890460947+894451445+897140878+898752974+900620608+902711452+904679262
1603+906500669+908252785+909845113+911229056+912533311+913810695+914952587
1589+915952811+916869434+917662509+918401738+919321038+920096508+919939499
1576+920303039+921900411+921862523+920682846+920827088+921229031+921452962
1562+921209778+919437894+919302609+920784876+919714641+917603000+916033426
1549+915112067+914488046+913799060+913011854+911417879+910438040+910169529
1535+907697952+904464701+902814820+900992590+898432676+896318049+893916070
1522+890652756+888032920+885011760+881271139+877912589+874771382+871275488
1508+865885398+859975686+855575936+850137507+842401241+833125154+822784599
1495+812106500+799626506+783065515+762839215+740489949+717159249+693727651
1481+671513258+652069327+635506379+619855886+601715488+580788929+560966168
1468+544938184+532906926+523128720+512820441+502053131+497431972+507501751
1454+530293577+556716014+581707508+602917919+618404351+627251675+631039811
1441+632848965+634753303+638248682+643466474+647611921+649654684+651064778
1427+652428388+653685180+655324353+656994258+658624989+661453826+664677708
1414+667303515+669917224+672847371+675841556+678690367+681760895+684761825
1400+686758463+687454759+685423579+679786547+671731732+660848029+646258247
1387+630724557+619394640+616362463+624098266+641670498+663875264+684746793
1373+701314836+713333482+722299566+730228053+737175259+742278718+745654513
1360+747295282+747152120+745897696+744118605+741793689+738823544+736042736
1346+735402346+738388449+743999330+749899364+755305361+760554092+765970179
1333+771916132+778605175+786005957+793920493+802189200+810709018+819301730
1319+827791690+836008970+843654481+850584751+856787787+861882134+865511768
1306+867677256+868588319+868742342+868665228+868668625+868976054+869849950
1292+871421275+873551036+875977725+878404722+880368929+881365653+881105790
1279+879599740+877406969+875767178+876050206+878938449+883986209+890088656
1265+896279646+901953279+906774739+910574973+913138696+914196370+913471452
1252+910585680+905269719+897490313+887298530+875000254+861703092+849186342
1238+839105855+833055762+832778705+839158775+851320943+867045308+883915169
1225+900022738+914138303+925978113+935957187+944404678+951456695+957358789
1211+962434140+967027655+971353585+975317828+978839255+982099789+985210213
1198+988058303+990483859+992575012+994503905+996308015+997818286+998956987
1184+999920352+1000888556+1001822785+1002563867+1003062795+1003427262
1173+1003659326+1003602597+1003147837+1002317183+1001193720+999735545+997851541
1159+995720338+993590473+991372787+988748936+985456382+981261104+975820462
1146+968886228+960583700+951362696+941878019+932866943+924935368+918312578
1132+912766714+908006616+904054933+900872543+897937248+894542767+890202938
1119+884399271+875974945+863052803+843578499+815781435+778319779+730981232
1105+676770534+623409075+580655806+554331074+543213093+542205045+547418924
1092+557606486+572195548+589350805+605694094+616934388+617929618+602710513
1078+565757514+505178740+428308851+354204198+304920079+290083278+299115331
1065+308434968+298548143+267102862+227002812+194474131+180001204+187632841
1051+218300323+271420350+344240207+430621953+521484193+607655212+682429341
1038+742332410+786705547+816565090+833338223+837383905+826493150+794657869
1024+733505421+642460021+542121444+469888697+453645379+491357890+558393127
1011+630655422+697615604+758010754+811764221+857586731+893971975+920242500
997+937138924+946342941+949219241+946261605+937453456+922723241+901756426
984+873171847+833791335+778416610+701144237+600341634+486085994+382113793
970+316029335+304919050+349322122+435814418+543298650+651905471+749095067
957+829525275+892408475+939587439+974354668+1000146857+1019503636+1034067267
943+1045066951+1053541417+1060113244+1065001420+1068500711+1071062376
932+1072875340+1073741823+1073430379+1071972204+1069564253+1066129619
920+1061216939+1054444450+1045647009+1034754297+1022058196+1008527941+995798379
907+986228763+982283155+984280823+988754599+990079137+983662774+967117536
893+939883028+904405192+868292834+842471303+833636283+840384783+859702181
880+891164965+930997662+969885732+999981817+1019242332+1029086224+1031078641
866+1025413863+1011546733+991366404+972547264+965946404+976241246+997184793
853+1018686675+1035356697+1046666280+1053519899+1057197820+1059133611
841+1060108714+1060119627+1059161101+1057613765+1055823657+1053860789
829+1051610774+1049066200+1046434216+1043760946+1040773864+1037248216
818+1033358205+1029394167+1025213406+1020326568+1014619578+1008659828
806+1003281063+999152501+996468833+994866209+993668206+992254199+990185800
793+987221780+983620253+979960144+976283973+972090343+967329935+962419623
779+957414900+951847313+945256336+937963092+931105972+925827075+922311826
766+919475267+915694390+909577220+900488308+889575417+880564547+877721399
752+881541091+888120536+893516186+896487001+897378914+896842407+895424591
739+893430114+891092380+888610301+886001894+883271689+880586580+877901779
725+875055748+872047869+869089203+866176765+863403525+860781270+858180688
712+855544740+852888458+850280823+847790198+845384307+842988094+840555331
698+838100072+835730473+833578473+831617817+829648823+827594940+825574467
685+823754708+822225647+820813494+819285926+817712594+816285614+815043751
671+813839621+812448728+811131501+810509848+810432168+810307539+809913626
658+809496858+809208579+808994481+808982075+809264845+809613147+809914244
644+810346971+810983552+811730709+812524762+813365094+814326864+815518536
631+816935786+818446572+819995812+821691971+823435594+825029312+826798982
617+829015639+831402689+833626039+835711735+837849115+840125950+842451947
604+844772950+847279430+850074910+852796106+855227427+857807676+860802788
590+863767579+866302475+868730296+871376180+874109473+876917101+879819038
577+882596809+885386213+888187870+890888320+893773269+896822228+899468523
563+901735422+904343521+907455695+910581459+913486072+916301216+919012683
550+921620369+924277578+926947656+929458151+931753879+934023661+936497916
536+938997292+941165044+943222736+945518464+947665419+949340421+951024483
523+952761259+954324553+955742884+957097588+958607241+960050796+960992335
509+961317781+961374407+961271965+960432251+959149411+957727168+955657018
496+952542270+948138814+942887921+937447279+931769528+925842313+920731132
482+918105223+918181205+919252160+919496064+917672187+913354802+907081447
469+899751962+894050325+893418068+899175817+909697988+921997911+934560168
455+945182413+952168949+957123327+960662668+962523404+962990621+962691532
442+962694312+962759483+962460188+963019861+964377550+965457977+967111564
428+969878936+972869107+975833641+978660831+980229273+982676244+986886965
415+989571766+990069562+989121228+988449538+989405285+990761636+991137119
401+989823598+987289732
##END=
