##TITLE=26
##JCAMP-DX=4.24
##DATA TYPE=INFRARED SPECTRUM
##DATE=16/11/2015
##SAMPLING PROCEDURE=Instrument type and / or accessory
##ORIGIN=Default
##XUNITS=1/CM
##YUNITS=TRANSMITTANCE
##RESOLUTION=4
##FIRSTX=3996.3359
##LASTX=399.24785
##DELTAX=-1.9287336
##MAXY=1.2078147
##MINY=0.075960822
##XFACTOR=1
##YFACTOR=1.1248651e-009
##NPOINTS=1866
##FIRSTY=0.52265888
##XYDATA=(X++(Y..Y))
3996+464641395+464782237+464971564+465229882+465522589+465811110+466149228
3983+466577056+467044518+467471021+467860484+468334994+468892643+469412034
3969+469868580+470300912+470680626+470975982+471335560+471779708+472117667
3956+472359824+472588733+472835075+473132021+473486778+473770318+473899768
3942+474214572+474651831+474851385+474950791+475032657+475314237+475927523
3929+476338182+476381897+476566456+476985434+477174708+477311629+477803943
3915+478366944+478448175+478255986+478214867+478174013+478230446+478874889
3902+479808542+480423312+480747494+480527805+479881242+479718409+480295239
3888+480491720+480385637+481001361+481357389+481333438+481661595+481593770
3875+481271283+481352938+481652587+482429660+482883451+482616125+482766453
3861+483026360+482665298+481640664+480928767+482467122+485144301+485422543
3848+483905754+482714525+482436124+482685646+483009987+483715791+484761832
3834+485098360+484807349+484707254+484659936+484565457+484429013+484213509
3821+484924294+485912949+485992749+486460477+486822016+486060521+485228341
3807+485398910+486229607+486254299+486363614+487321748+487531369+487276867
3794+487186098+486909128+486719324+486770935+486924389+487123413+487177567
3780+487212221+487637028+487944095+487691818+487300288+487309349+487873568
3767+488204744+488124573+487899320+487593525+487808021+488214388+487902552
3753+487312157+487866043+489272511+489471217+488611270+489206487+490019645
3740+488836099+487411934+487487654+488511758+489124514+488968093+488123036
3726+487483309+487602639+487822434+487809982+487415643+486549709+485369713
3713+484648543+484964512+485181287+484239845+482472686+480638497+479124411
3699+477367320+474735022+471572259+468265209+465119667+462743143+461361262
3686+459964704+457779892+455704447+454587561+454133240+454211503+454941363
3672+454693537+453768256+453851448+453780391+452977354+452265880+451710828
3659+450928721+450288358+450219103+449633900+448404520+447979289+447933931
3645+446909244+444974166+443017866+441368156+439814460+438214851+436586415
3632+434822065+433177575+432463823+431446210+429066533+426337294+424075384
3618+422345582+420398157+417766707+415063538+412442791+409777747+407207525
3605+404371328+401134593+397911450+394826950+391678202+388476863+385306629
3591+381911485+378157400+374574757+371326418+367853806+364095083+360344468
3578+356617751+352862208+349136948+345389406+341417539+337342821+333585609
3564+329908992+325854012+321650294+317573616+313563835+309503742+305424732
3551+301398075+297207075+292808837+288537692+284481043+280451021+276322281
3537+272119783+267995521+263983991+259963825+255886988+251776185+247642041
3524+243567641+239701565+235979881+232207647+228351347+224507022+220765309
3510+217114537+213519946+209911498+206212878+202602032+199199484+195835538
3497+192448409+189138351+185917089+182688474+179419801+176215733+173137698
3483+170051529+166896383+163829184+160908537+158042866+155144488+152140398
3470+149072656+146165640+143553955+141031925+138428096+135858456+133408345
3456+130986040+128554515+126200260+123924944+121651694+119416385+117325243
3443+115331215+113301486+111181439+109046661+107082406+105320262+103608099
3429+101926165+100353765+98834260+97288977+95763405+94277581+92772609+91206726
3414+89650209+88223030+86951087+85814449+84696237+83378870+81891350+80621539
3398+79751181+78960265+77936147+76819248+75956711+75370164+74784942+74068196
3383+73271067+72462804+71729632+71145940+70661866+70127930+69462920+68816265
3368+68439207+68338960+68293171+68183684+68079655+68008518+67913617+67747372
3352+67550269+67528829+67749300+67974447+68084179+68209900+68415879+68681655
3337+69063488+69564810+70082863+70534939+70911646+71290605+71794119+72458731
3321+73189678+73914193+74643199+75397016+76143091+76779718+77290459+77854473
3306+78691137+79827358+81049618+82132705+83063583+83976034+84973525+86096936
3290+87343438+88655931+89984585+91328771+92686092+94033749+95367795+96717677
3275+98104427+99542700+101111954+102857666+104656432+106417073+108220925
3261+110097995+111957148+113779069+115670737+117705049+119819466+121935579
3248+124097010+126408941+128866377+131356878+133849671+136371687+138885570
3234+141418462+144115233+146998139+149925449+152832424+155759761+158757505
3221+161851079+165023473+168239437+171491459+174786574+178101890+181462061
3207+184906298+188406345+191944914+195532988+199171692+202838811+206513189
3194+210207106+213958834+217785209+221676362+225601839+229518334+233433106
3180+237394509+241419126+245470979+249514514+253560353+257611835+261663159
3167+265724497+269794764+273848048+277859391+281859237+285889974+289907942
3153+293861369+297807829+301805396+305818170+309791760+313702479+317567416
3140+321440779+325342410+329198499+332952955+336660676+340363417+344064726
3126+347761108+351391095+354925147+358420041+361896124+365337579+368779352
3113+372214872+375583919+378911475+382224090+385458043+388591291+391694046
3099+394777989+397778873+400714820+403614603+406444043+409215435+411946689
3086+414617085+417195626+419660905+422055577+424448659+426826773+429106804
3072+431230574+433214799+435119117+436985841+438808187+440556746+442177578
3059+443634357+444975861+446242334+447390483+448399274+449290324+450051819
3045+450689585+451208394+451542590+451642791+451551122+451292274+450807696
3032+450061992+449068569+447797698+446218171+444310408+442025025+439348720
3018+436258763+432661972+428464746+423583043+417927500+411429921+404015300
3005+395592180+386051591+375238912+363013937+349295939+333918322+316480601
2991+296666329+274603528+250542539+224538338+196912444+168861890+142485248
2978+120059384+102842213+90721142+82874223+77919675+74315135+71675121+71031360
2963+73867053+81058514+92072614+104908411+116919405+126013436+131182719
2949+132072869+128687661+121629876+112444534+103670572+97919226+96430766
2936+98731907+103480569+109440245+116029918+123223114+131075233+139502380
2922+148383954+157564170+166695226+175190119+182364398+187740640+191236673
2909+193129705+193942082+194182012+194157704+194015974+193575032+192193946
2895+189225053+184418223+177819105+169399323+158945415+146729647+134134854
2882+123608326+118035113+119211598+126552764+137807484+150948652+165004649
2868+179553808+194174130+208418819+221989497+234785791+246958969+258941788
2855+271253001+284216896+297804676+311623935+325099433+337766011+349387635
2841+359944275+369557802+378398099+386702949+394728763+402628465+410446035
2828+418174214+425766901+433160963+440320392+447209634+453793108+460048107
2814+465993708+471772661+477552514+483382124+489255925+495135927+500900573
2801+506455597+511796390+516900537+521694809+526111062+530103675+533671480
2787+536893961+539846785+542534774+544983520+547264347+549423883+551420534
2774+553169306+554672901+555991725+557165945+558244256+559286482+560358912
2760+561511089+562715671+563901230+565011016+565992200+566767577+567262911
2747+567501729+567594618+567653382+567847213+568459121+569761043+571833202
2733+574485264+577312612+579878515+581943998+583593787+585179355+587094775
2720+589590151+592740727+596402534+600212231+603812942+607048352+609887039
2706+612376852+614689418+616965423+619159561+621148157+622912931+624516674
2693+625944178+627125604+628036578+628673762+629000594+629010926+628820275
2679+628632643+628761246+629555434+631140790+633364760+635923351+638513629
2666+640963965+643242884+645403481+647501021+649562052+651603001+653592287
2652+655499652+657354400+659173911+660932114+662634044+664327496+666000230
2639+667587281+669072171+670478586+671864335+673250401+674536850+675644040
2625+676616375+677517228+678345859+679058816+679620915+680036343+680361532
2612+680685608+681049055+681416952+681765032+682092553+682370635+682579144
2598+682737261+682851291+682934960+683023609+683082638+683081260+683097263
2585+683192059+683332001+683492237+683736831+684139118+684718545+685450207
2571+686252873+687048757+687834572+688620123+689374358+690062623+690648673
2558+691130283+691558269+691944713+692283573+692591858+692881916+693177591
2544+693542733+694059315+694743818+695556075+696473566+697463281+698495652
2530+699580321+700704838+701853677+703052271+704290395+705513788+706724252
2517+707978219+709290049+710613537+711926321+713284357+714734275+716217522
2503+717661770+719040154+720345626+721622908+722875550+724026190+725050030
2490+725981616+726863818+727732772+728589115+729420024+730246800+731135413
2476+732118240+733114843+734055914+734993966+735982197+736998617+738020443
2463+739077135+740224225+741456361+742689239+743857842+744960369+746020664
2449+747070891+748126046+749165676+750159365+751093548+751998534+752922861
2436+753868914+754801348+755689485+756527441+757333180+758109193+758829569
2422+759463838+759997324+760429496+760789075+761128571+761455773+761791454
2409+762226805+762816459+763514897+764236491+764908700+765456811+765954794
2395+766516099+767177022+767886005+768555299+769063351+769322940+769367397
2382+769280232+769108285+768925740+768827765+768772392+768621641+768441533
2368+768407409+768440050+768686445+769379532+770643249+772527723+774755138
2355+776440429+776235259+773698075+770942261+770662801+772904629+775368424
2341+776573907+777000780+777364121+777968770+778843288+780087293+781545053
2328+782692885+783435675+784327361+785677131+786975608+787628053+787849332
2314+788245896+789032083+790047815+791114203+792155741+793132579+794055635
2301+794926179+795721374+796482020+797254112+797974011+798616281+799215897
2287+799755476+800171434+800476010+800757749+801068313+801364306+801558508
2274+801629618+801632797+801620769+801604607+801609005+801676512+801819687
2260+802027401+802305642+802652238+803029939+803412991+803796202+804163252
2247+804540581+804861001+805183117+805547305+805934384+806335028+806817857
2233+807452445+808168528+808833849+809417355+809961863+810489944+811005626
2220+811507530+811980292+812397786+812719160+812910977+812974034+812955700
2206+812902128+812829588+812809505+813008635+813555315+814435662+815524570
2193+816682205+817846463+818982584+820024916+820951045+821816767+822688848
2179+823568241+824380975+825092767+825760949+826401948+826996158+827590580
2166+828201800+828809098+829446282+830117114+830783865+831454802+832128230
2152+832779350+833431582+834086888+834687298+835221049+835736784+836250240
2139+836733069+837186807+837662854+838217376+838841313+839462070+840054055
2125+840650968+841267857+841912406+842575131+843220846+843856652+844516620
2112+845185809+845844612+846522226+847241383+847998585+848796641+849649275
2098+850566396+851527815+852445095+853264293+854001307+854689625+855271542
2085+855662966+855862202+855899983+855796549+855572992+855256599+854844138
2071+854335345+853789831+853285489+852986476+853142103+853682848+854402958
2058+855287650+856346568+857539386+858781431+859993538+861087692+861990029
2044+862671034+863076130+863254276+863349761+863476509+863734032+864143949
2031+864754745+865642139+866767186+868037844+869432707+870907106+872326078
2017+873666364+874995574+876175146+877212868+878265162+879233045+880020557
2004+880727420+881454737+882150261+882747810+883276632+883703188+884132499
1990+884787858+885290292+885545537+885851438+886245247+886674770+887065770
1977+887432078+887817726+888214449+888580015+888840135+889103381+889498779
1963+889734153+889802402+889894601+889857086+889565120+889084093+888419090
1950+887511083+886326266+884897861+883181571+881623558+880579689+879631199
1936+878933132+878775651+879044513+879549756+880224668+881226093+882646443
1923+884740592+887352860+889634853+892116717+894670327+896470974+897949983
1909+899442556+900916795+902171133+903203133+904193060+905148650+905963079
1896+906672274+907538632+908285873+908750686+909572004+910344997+910720895
1882+911179244+911681466+912129005+912609927+913220775+913870518+914147010
1869+914651141+915961328+916933133+917244174+917593791+918206123+918940964
1855+919600032+920078516+920447632+920840381+921288132+921149197+921207484
1842+922139230+922376935+922220408+922790243+923782184+924502930+925228445
1828+926621613+927460947+927867791+928802291+929500995+929930094+930640878
1815+931559695+932195448+932710812+933530328+934347301+934895835+935163002
1801+935519295+936435992+937457394+937831279+937647304+938163728+939432584
1788+939734829+939270440+939384259+939837945+940171771+940681306+941000295
1774+940762590+940836455+941778799+942054126+941931935+941851710+941490436
1761+941831681+942351814+942392403+942846936+942964994+942743291+943416242
1747+944165178+944263842+944047438+943784510+944047968+944827849+944151189
1734+943586122+944936369+945295418+944497626+943801784+943332096+943312491
1720+942845876+941688189+941472950+941534311+940611149+939164570+937692344
1707+936389892+935867216+935150285+933034994+932111620+930741662+927837269
1693+925762249+923116757+920280295+917792921+914101864+910893213+909165796
1680+906259390+902195190+898196908+895607901+893288393+889961049+887664325
1666+886180177+883669540+881269702+880287406+879929099+879143654+876962869
1653+876234705+878616845+878311420+875840313+875561966+876512204+876983747
1639+877619394+878412893+880374359+884106164+886942837+888636024+891244424
1626+894612782+897776711+901432689+904771479+906796479+909859730+914279375
1612+917271622+919181001+921375563+923715630+925819370+927734154+929591605
1599+931285003+932743558+934110232+935437693+936593685+937559237+938390835
1585+939078835+939729743+940546716+941148344+940787070+941043428+942582842
1572+942362305+940925158+940856379+941048726+941014284+940466385+938424748
1558+938184181+939586462+938284011+935886292+934030643+932775033+931752042
1545+930620955+929364391+927305479+925937004+925305702+922388486+918667651
1531+916541444+914201376+911047515+908278136+905176840+901178769+897834468
1518+894125184+889722177+885683995+881825178+877563703+871210040+864061446
1504+858397054+851801870+842831329+832044562+819908819+807316424+792813537
1491+773785294+750450429+724679430+698059134+671655084+646841052+625280924
1477+607084543+589989205+570194646+547377265+525934558+508893269+496260391
1464+485961486+475123267+463922344+459053888+469228588+492755535+520516085
1450+547052182+569644310+586127686+595509311+599452379+601269346+603283642
1437+606983230+612354014+616632127+618780483+620177836+621461795+622677717
1423+624320935+626046127+627759980+630611437+633834501+636511574+639251650
1410+642400318+645693168+648871880+652271713+655633235+657959102+658687267
1396+656203760+649742583+640764994+628954123+613260696+596460291+584131141
1383+580805280+589137048+608126822+632201350+654887161+672875404+685946230
1369+695797489+704534141+712228672+717930368+721556514+723105731+722748272
1356+721255222+719141309+716358842+712907823+709742940+708970000+712219293
1342+718425596+725014527+731005804+736738074+742667566+749226559+756634689
1329+764878444+773762085+783093741+792726689+802464448+812119810+821473880
1315+830176195+838037746+845007663+850718102+854803655+857203229+858136564
1302+858177895+857921856+857769302+858026137+858955710+860650592+862988646
1288+865730577+868506579+870716560+871742201+871272407+869373149+866698407
1275+864662280+864848375+868050509+873753635+880659489+887645567+894054392
1261+899513242+903783460+906602648+907686787+906714877+903237681+896978390
1248+887939652+876131271+861831541+846415985+832075719+820606092+813674220
1234+813302190+820565980+834514026+852650795+872155933+890779081+907150970
1221+920978787+932652101+942478668+950682416+957610631+963594489+968942913
1207+973871669+978345256+982333258+986036608+989569865+992793141+995506564
1194+997817806+999921757+1001888576+1003560779+1004793074+1005756401+1006719303
1180+1007683902+1008431990+1008889703+1009195975+1009368505+1009212295
1169+1008559056+1007425955+1005913034+1003983096+1001609222+999013115+996371862
1155+993571114+990339572+986377216+981365480+974889573+966623722+956730602
1142+945820107+934640326+924004204+914682934+906974201+900534432+894982110
1128+890351890+886616324+883224227+879379505+874442748+867738302+857982156
1115+843192762+821168403+789995992+748377158+696416816+637788485+580983586
1101+536061569+508613332+497012718+495853070+501087992+511385943+526192823
1088+543731514+560542145+572066668+572861439+556883306+518892419+457749052
1074+381748573+309959918+262965981+248877462+257272127+266100369+257186869
1061+228394400+191824538+162359197+149133645+155429750+182447431+230723578
1047+298967477+382475837+473052698+561389746+639836481+703887949+752153313
1034+785135485+803837480+808208163+795829682+760726019+694792938+598747105
1020+495114625+421663491+404921638+442110389+509304405+583248463+653539457
1007+718555576+777621909+828731206+869772839+899716187+919185558+929941963
993+933462291+930281088+920438730+903906711+880356131+848370351+804674164
980+744084896+661307324+556217402+440631433+338384861+274636645+263589971
966+305327102+388675225+495383064+606905867+710046880+797770748+867766280
953+921079888+960761313+990315198+1012488241+1029123800+1041661458+1051295784
939+1058714352+1064247598+1068270573+1071145504+1073003167+1073741823
928+1073220313+1071437893+1068499906+1064306415+1058386567+1050260499
916+1039739786+1026836721+1011922221+996078731+981192209+970027052+965401389
903+967583340+972568899+973975420+966530251+947480018+916368278+876297655
889+836028219+807601130+798067429+805617991+826898130+861656044+906040124
876+949753532+983819473+1005723548+1016853202+1018873327+1012059036+995912136
862+972701688+951186652+943673977+955467150+979515342+1004310881+1023487862
849+1036337410+1044072848+1048298238+1050544304+1051554366+1051341990
837+1049990683+1048038277+1045968132+1043733617+1040951310+1037600544
825+1034169978+1030844647+1027268363+1023188797+1018714892+1014018542
814+1009040083+1003415697+996937882+990073783+983748257+978744045+975377065
800+973407809+972041772+970390976+967933274+964547112+960510679+956273737
787+951907293+947064802+941712669+936145617+930380706+924013212+916598141
773+908483519+900824384+894779377+890666110+887418195+883188990+876374488
760+866256697+854101985+844124507+841072384+845387536+852722118+858701260
746+861913726+862783899+862101517+860503179+858304219+855696614+852866299
733+849912309+846878254+843878589+840908279+837870250+834683748+831625689
719+828395366+825121433+822163046+819349051+816406136+813425811+810569267
706+807784045+804995008+802290116+799714622+797191586+794693560+792300717
692+790056982+787884251+785714064+783607092+781684836+780017243+778497699
679+776902540+775049540+772750009+770671544+770900560+772656856+771137682
665+767240925+765771190+766458183+766874671+766708976+766441280+766204952
652+766227896+766597224+766978740+767245059+767706639+768517731+769479626
638+770431402+771395947+772447870+773684351+775178567+776885266+778664559
625+780494773+782230616+783887188+785902596+788293585+790687595+793023900
611+795405988+797888700+800520944+803138988+805642525+808415189+811625376
598+814679567+817346254+820235386+823602048+826959384+829935788+832865827
584+836027954+839124747+842059025+845086350+848229773+851454850+854518526
571+857428217+860619647+864020592+867056767+869712750+872575123+875807195
557+879083936+882248872+885334908+888289693+891193873+894270584+897390321
544+900179517+902656930+905248374+908161562+911025154+913401783+915595285
530+918116891+920682476+922821718+924800618+926716462+928486587+930176277
517+931825696+933494508+934940876+936032752+936795571+937260808+937221596
503+936227748+934882800+933390439+931022500+927635808+923200267+917797266
490+911693548+905032288+898349726+893054397+890694512+891133785+892443125
476+892560653+890028873+884828659+878145355+870815224+865199104+864911643
463+871509105+883255066+897080869+911316695+923294586+931102618+936662146
449+941078188+944042351+945513835+945969852+946003871+945329966+944432769
436+945135287+947104437+948759684+950978408+954417771+957945305+961580830
422+965714550+968597429+971145635+974420309+976066230+975890203+975013672
409+974801295+976398043+979266403+981547760+981357638+979194233
##END=
