##TITLE=26
##JCAMP-DX=4.24
##DATA TYPE=INFRARED SPECTRUM
##DATE=16/11/2015
##SAMPLING PROCEDURE=Instrument type and / or accessory
##ORIGIN=Default
##XUNITS=1/CM
##YUNITS=TRANSMITTANCE
##RESOLUTION=4
##FIRSTX=3996.3359
##LASTX=399.24785
##DELTAX=-1.9287336
##MAXY=1.3162973
##MINY=0.11833342
##XFACTOR=1
##YFACTOR=1.2258974e-009
##NPOINTS=1866
##FIRSTY=0.47099507
##XYDATA=(X++(Y..Y))
3996+384204318+384448324+384731688+384956804+385071988+385182431+385406356
3983+385743423+386108471+386410336+386631612+386852595+387158520+387560715
3969+387987901+388333039+388560027+388734018+388946979+389232775+389532841
3956+389757325+389893805+390029190+390257103+390557436+390818313+391052765
3942+391311527+391497795+391586018+391642443+391755682+392088105+392560461
3929+392868403+393034250+393272762+393496979+393604747+393807595+394215746
3915+394581038+394701764+394675654+394592172+394490286+394605518+395073862
3902+395690623+396213496+396413402+396228884+396083118+396338525+396611314
3888+396600448+396752559+397114447+397325196+397546568+397734271+397671355
3875+397606640+397741150+398121952+398563627+398723178+398824383+399086062
3861+399175477+398813443+398262832+398488216+399965013+401176994+400956521
3848+400137545+399663051+399651138+399821483+400156824+400823299+401449079
3834+401613613+401534482+401470861+401444946+401415943+401360953+401614269
3821+402250697+402674188+402979505+403386732+403338670+402844605+402637844
3807+402967836+403246193+403383061+403886388+404361855+404401117+404360567
3794+404337496+404267190+404252749+404333655+404501982+404690340+404866276
3780+405166634+405497769+405529835+405297109+405192914+405464269+405870888
3767+406073080+406049766+405906892+405898238+406126782+406180460+405901982
3753+405902808+406611609+407243733+407138979+407199318+407782748+407702304
3740+406845695+406337190+406700075+407459514+407909893+407753138+407310514
3726+407136475+407314915+407549318+407652103+407490972+406978042+406395487
3713+406323333+406706420+406737270+406100770+405170135+404349238+403594029
3699+402549231+401123389+399483176+397826286+396466010+395643801+395016562
3686+394024957+392670126+391371623+390541294+390409506+390857769+391112666
3672+390829788+390762058+390996729+390926811+390655432+390459780+390205418
3659+389891033+389788151+389724749+389382236+389190571+389498465+389645739
3645+389055720+388042624+387091374+386316279+385590169+384774402+383779879
3632+382815185+382377740+382196966+381296744+379734641+378288767+377280703
3618+376359695+375091313+373586194+372088174+370599853+369110779+367544033
3605+365780006+363902375+362055887+360222988+358348202+356450272+354463754
3591+352319728+350206308+348284384+346323635+344133638+341839542+339556021
3578+337279964+334982781+332621564+330130236+327603366+325282383+323098706
3564+320718064+318118287+315503291+312916277+310298339+307633288+304895158
3551+302067663+299187828+296323356+293521995+290763251+287975795+285117183
3537+282209925+279286694+276358359+273420056+270471251+267479295+264439325
3524+261456291+258570426+255703645+252798064+249828182+246812669+243850007
3510+240976516+238106721+235161222+232141357+229161313+226289354+223480967
3497+220708074+217942182+215166395+212368486+209553584+206781056+204058753
3483+201283684+198406218+195566142+192874556+190266732+187607405+184808001
3470+181962431+179285528+176826534+174427222+171973794+169492227+167051611
3456+164654426+162296309+160022269+157781912+155490017+153197537+151019136
3443+148952138+146877774+144704319+142497948+140449281+138596094+136827594
3429+135122873+133481469+131812229+130065645+128330632+126703438+125145042
3416+123539301+121907196+120368480+118924332+117521876+116122339+114632815
3402+113084617+111756686+110747954+109766510+108558771+107259988+106190564
3389+105394112+104645345+103802508+102907537+102069270+101321062+100647190
3375+100035711+99408522+98693595+98020938+97594494+97406378+97295765+97154077
3360+97005666+96921552+96872724+96740893+96544524+96527999+96775378+97057187
3344+97244700+97429145+97683173+98059209+98599562+99224587+99823279+100361619
3329+100865396+101409133+102091381+102914404+103762578+104588737+105427150
3315+106298236+107198871+108067040+108861912+109701674+110777260+112109482
3302+113515061+114814026+115991742+117166127+118430024+119808083+121293170
3288+122827730+124351823+125881131+127467934+129108839+130744956+132351159
3275+133955635+135582113+137308884+139250123+141361269+143498525+145607082
3261+147702706+149793759+151883184+154045188+156358890+158762262+161153309
3248+163570465+166125377+168795922+171474308+174144015+176836878+179546880
3234+182305175+185224928+188316680+191437166+194506041+197552988+200623808
3221+203749400+206946538+210219938+213549885+216890286+220224803+223604343
3207+227039798+230472895+233909979+237398504+240913600+244422497+247951889
3194+251504059+255047137+258591917+262164556+265742617+269311124+272891641
3180+276470236+280034659+283601173+287157014+290688277+294229045+297800251
3167+301325387+304758436+308184045+311631898+315019753+318312067+321534512
3153+324750126+328042756+331395676+334696110+337874188+340943744+343943918
3140+346928070+349952773+352988610+355960170+358837599+361643603+364436650
3126+367209203+369892803+372497686+375089635+377668700+380208746+382724579
3113+385196021+387588575+389951105+392301747+394574668+396776311+398955198
3099+401106445+403239142+405363356+407434474+409389777+411233057+413038850
3086+414814740+416516824+418161340+419776634+421370633+422940126+424436299
3072+425813544+427098020+428331152+429520622+430673577+431796047+432864061
3059+433843682+434708848+435458052+436130387+436747828+437277119+437687919
3045+438005902+438257566+438424774+438474076+438369006+438113161+437730463
3032+437188190+436455177+435538666+434411334+433030540+431393414+429485080
3018+427254726+424661513+421665618+418190950+414142017+409454200+404076570
3005+397916333+390837567+382702602+373429949+362944659+351018696+337301284
2991+321542923+303634069+283435471+260766453+235700188+209078142+182810872
2978+159404597+140671784+127017239+117912512+112006575+107590527+104289838
2964+103519824+107150809+116053880+129292907+144312602+158044503+168239501
2951+173936682+174885209+171128465+163253175+152871496+142831891+136205923
2937+134532137+137327262+142966548+149873340+157349062+165397590+174066379
2924+183245145+192775004+202466735+211960627+220658942+227917484+233304596
2910+236755318+238586953+239337640+239536355+239515570+239354974+238842773
2897+237448997+234581000+229896077+223360654+214895235+204174228+191355434
2883+177838561+166349557+160245368+161644991+169868434+182268794+196461879
2870+211288779+226241097+240907279+254933290+268078625+280255497+291631772
2856+302602643+313626511+325039082+336851271+348704885+360061954+370513672
2843+379925066+388371279+396010721+402984829+409446713+415584949+421558943
2829+427430687+433185301+438814085+444286259+449503852+454402344+459019222
2816+463414582+467633398+471724583+475739579+479741690+483757074+487753594
2802+491665707+495418975+498996234+502394518+505580764+508552300+511269643
2789+513662683+515773234+517689543+519451771+521105962+522674775+524124028
2775+525446380+526650144+527721368+528665008+529485735+530196480+530877080
2762+531622201+532450317+533309746+534156096+534960243+535665008+536216761
2748+536615893+536882581+537046191+537209802+537511010+538074336+539037863
2735+540467813+542257026+544149267+545869243+547289810+548456963+549547391
2721+550837750+552520434+554574876+556891677+559319384+561649314+563745132
2708+565582091+567201130+568704984+570190023+571667087+573053327+574268226
2694+575333080+576291988+577136052+577849277+578428940+578846839+579059752
2681+579095877+579100399+579315013+579972372+581125473+582624223+584263293
2667+585892007+587437044+588910705+590356166+591780720+593169877+594496507
2654+595745441+596946677+598132987+599330285+600538668+601713503+602848128
2640+603957665+605019699+606017017+606958081+607893748+608851344+609753656
2627+610533736+611227852+611897804+612540139+613113189+613600714+614009036
2613+614375542+614759796+615158490+615535062+615910612+616286746+616613578
2600+616890962+617168735+617444563+617686649+617910647+618114418+618296505
2586+618512821+618769930+619025580+619307778+619681237+620135360+620640291
2573+621212126+621832046+622461789+623094837+623721468+624344014+624954551
2559+625489190+625942972+626379202+626782126+627133949+627474298+627814889
2546+628177215+628618307+629154745+629756287+630410583+631124002+631901115
2532+632743381+633617980+634483729+635339026+636200594+637075290+637952514
2519+638832024+639764676+640757133+641715457+642631870+643600843+644632148
2505+645668996+646680950+647671267+648656965+649634155+650563598+651429008
2492+652245115+652990722+653663542+654336898+655052359+655767237+656460917
2478+657179052+657941433+658710232+659462257+660230667+661037536+661843822
2465+662626624+663423477+664272404+665175106+666101729+666979732+667769146
2451+668543682+669365624+670209738+671038000+671811175+672528533+673246231
2438+673982940+674716780+675438903+676123733+676751482+677364158+677990156
2424+678590434+679124490+679592080+680019023+680415870+680769297+681104103
2411+681490691+681974812+682564345+683222287+683876924+684469276+684965602
2397+685441798+685969873+686563441+687196927+687824676+688346771+688626440
2384+688627850+688478972+688359267+688361357+688468421+688644673+688905380
2370+689293475+689771422+690273387+690875464+691681556+692702796+693913270
2357+695200907+696299212+696845228+696433649+695210193+694172616+694409839
2343+695926044+697659245+698965843+699865433+700421806+700771441+701257557
2330+702014200+702764863+703318708+703872455+704625258+705434023+706027446
2316+706367211+706678921+707192362+707930286+708767933+709610490+710417749
2303+711175511+711909983+712641587+713349901+714026806+714697487+715365154
2289+716008024+716595903+717094368+717509496+717899584+718309461+718722304
2276+719085310+719375579+719625249+719869571+720103633+720332688+720601029
2262+720924554+721279246+721670890+722114656+722589880+723085185+723578544
2249+724024304+724500549+724940134+725398389+725874536+726351219+726869862
2235+727456574+728089768+728737792+729363742+729945203+730515287+731107202
2222+731691338+732238132+732761832+733270458+733736298+734125852+734436639
2208+734705611+734954649+735194692+735477182+735880884+736471291+737250350
2195+738144737+739068832+739994386+740915321+741788558+742579480+743328393
2181+744102783+744880966+745597157+746264337+746927531+747564129+748139172
2168+748699727+749303894+749962469+750638790+751279764+751921661+752608582
2154+753280139+753911242+754565830+755247062+755881375+756454425+757003844
2141+757528176+758015750+758503518+759044624+759645533+760276248+760909588
2127+761533156+762160078+762813644+763493078+764163905+764797099+765408803
2114+766041560+766691626+767337364+767998370+768682082+769374448+770067301
2100+770762682+771489277+772265613+773042969+773755659+774381366+774950137
2087+775475878+775919985+776257902+776501397+776656061+776736578+776779365
2073+776812525+776829931+776809656+776777274+776854825+777169599+777721450
2060+778435696+779253408+780132674+781042523+781960444+782866500+783715330
2046+784448295+785051296+785552726+785978503+786338397+786675537+787059158
2033+787537056+788142342+788896360+789780780+790734048+791704674+792670972
2019+793654969+794678349+795665311+796547203+797376390+798201054+798965866
2006+799619336+800215481+800825288+801438305+801983009+802432804+802893101
1992+803458420+804019460+804455642+804834984+805253078+805734137+806235616
1979+806685800+807098400+807537255+807985786+808363330+808704846+809131011
1965+809592864+809949938+810233984+810525662+810749806+810833192+810817536
1952+810715966+810463038+810018494+809420161+808782105+808234046+807797525
1938+807480174+807372818+807515473+807857864+808313056+808853238+809577743
1925+810677020+812174603+813829670+815598705+817463086+819087327+820404671
1911+821627787+822810158+823912012+824909234+825800655+826614964+827385708
1898+828147116+828910275+829607115+830245998+830985138+831764439+832377942
1884+832918610+833536391+834157187+834708649+835262153+835834814+836338238
1871+836921888+837809517+838759770+839450678+839986776+840570717+841262889
1857+842020213+842733584+843314802+843772328+844165577+844563395+845132847
1844+845854678+846344780+846628145+847116205+847832979+848544113+849319038
1830+850318886+851260582+851968701+852718927+853513787+854199444+854876446
1817+855632117+856399846+857155809+857955045+858749321+859429241+859962130
1803+860465262+861149752+861965713+862600026+863061150+863725510+864616738
1790+865266901+865566310+865871068+866362143+866958142+867542083+867965282
1776+868256815+868780174+869641062+870306103+870524023+870622044+870849494
1763+871318883+871882792+872292280+872647799+872998358+873334331+873884237
1749+874621626+875190300+875502740+875769574+876183924+876632309+876879985
1736+877251257+878048062+878675762+878823668+878881527+878957668+878941623
1722+878858870+878916437+879307158+879710714+879605206+879102754+878605456
1709+878267538+878014027+877667163+877311159+877232976+877102671+876440838
1695+875440311+874177812+872651105+871095809+869775645+868868567+867994358
1682+866441104+864379952+862499186+861009820+859609139+858167325+856897241
1668+855738403+854471333+853293241+852361561+851404111+850263360+849320789
1655+849175995+849509147+848976162+847748864+847003987+846720817+846305883
1641+845925082+846055484+847045218+848711370+850075099+850877544+851947697
1628+853662373+855758629+858013293+860064720+861779980+863913675+866767936
1614+869381327+871385300+873286196+875218306+877013305+878705907+880384896
1601+881982979+883437531+884806900+886127550+887342011+888434725+889446241
1587+890386576+891238809+891964821+892524549+893044601+893852297+894773670
1574+895095542+894995674+895151262+895395730+895267272+894835905+894568002
1560+895042837+895835071+895583310+894417568+893268551+892424389+891722882
1547+891001829+890375004+890125966+890151541+889645296+888153500+886398078
1533+884935746+883477984+881788202+880056119+878394148+876702907+874805123
1520+872587022+870093336+867434727+864661566+861809931+858985718+856084392
1506+852535819+847955116+842689339+836951741+830332252+822329974+813108568
1493+802676347+789815253+773712678+755332490+736125740+717001939+698701490
1479+682244174+668055914+654786158+639566934+621288315+603196986+588904287
1466+578646909+569700845+559496560+549568639+546451142+556473097+577133086
1452+601195979+624156433+643487847+657280914+665046260+668417462+669966437
1439+672069548+675854712+680207674+683504242+685659621+687163330+688292461
1425+689409923+690749730+692394975+694557599+697129468+699675324+702145429
1412+704690167+707263884+709797828+712356618+714894938+717181400+718996674
1398+719709607+718112545+713503447+706200002+696426794+684006791+670560832
1385+660388783+657751762+664823769+680455934+700070955+718674947+733438445
1371+744153398+752487710+759779388+766034412+770879761+774000953+775323256
1358+775301474+774524409+773249366+771433946+769095703+766927730+766527821
1344+769077421+773806128+778929056+783590568+788001584+792604702+797696901
1331+803386606+809638325+816306873+823228884+830295786+837422492+844464305
1317+851204959+857484975+863240659+868372631+872644784+875807887+877793967
1304+878795954+879199705+879379700+879605497+880088793+881012790+882441380
1290+884270316+886309977+888304614+889878484+890599731+890243532+888919867
1277+887122632+885845644+886252895+888898182+893337107+898624763+903951608
1263+908797687+912885955+916058296+918187809+919160914+918765137+916645640
1250+912539480+906410482+898321367+888545581+877967448+867996205+859996359
1236+855309953+855343112+860744251+870736498+883505407+897103988+909976752
1223+921140187+930452515+938306595+944923459+950383429+954919985+958844594
1209+962461430+965913830+969082573+971903285+974554017+977134055+979507354
1196+981497130+983168631+984692031+986145028+987402179+988333275+989066192
1182+989836158+990635783+991235963+991600720+991917341+992167254+992112312
1169+991659940+990957364+990118647+989007555+987500685+985774826+984039242
1155+982243952+980161213+977571257+974300506+970088254+964725818+958333973
1142+951256375+943910387+936802060+930453779+925142687+920681008+916761553
1128+913430415+910739814+908231833+905260589+901449949+896403745+889165696
1115+878186827+861749446+838281532+806404575+765558070+717944510+670138508
1101+631002789+606185782+594876677+592579810+595993069+604323054+617178216
1088+632770074+647964453+658884393+660777510+647961438+614787073+558361789
1074+484302945+410660347+360587136+345638003+355490756+365223293+354224708
1061+319948366+275976512+239978978+223870642+232377121+266177729+323452085
1047+399630961+487129443+576410769+658742079+728369000+782861930+822351076
1034+848399805+862911105+866680709+857843994+830742518+777070655+694710124
1020+601306252+532889999+518507255+557025143+623236714+692526836+754580854
1007+808647375+855316954+894068662+924075257+945144783+958229535+964964938
993+966553296+963327374+955203155+942150882+923959149+899388894+865460413
980+817133726+748049126+654809010+544979135+441439194+374207111+363910228
966+411984255+502397970+610599617+715271850+804838193+875905032+929446445
953+968483073+996724717+1017441447+1032805077+1044096678+1052395448+1058749660
939+1063711748+1067425730+1070115554+1072047762+1073296647+1073741823
928+1073271850+1071948672+1069929626+1067151506+1063212506+1057758953
916+1050720835+1042117502+1032087039+1021244114+1010943317+1003239963
905+1000081819+1001567198+1004877331+1005554236+999899392+985881307+962845441
891+932561704+901235237+878004011+868593274+872349362+887619930+914519726
878+949514568+984020669+1010836642+1028020261+1036945370+1039249141+1035271341
864+1024627083+1008851631+994104324+989155363+997741679+1014708837+1031931062
851+1045190850+1054110902+1059382708+1062105108+1063559272+1064309790
839+1064212061+1063265892+1061909262+1060573539+1059229260+1057469657
827+1055234831+1053008173+1050991266+1048712681+1045803186+1042543619
816+1039261588+1035802479+1031759234+1026954581+1021778170+1017094195
804+1013633821+1011551860+1010559209+1009990924+1009097168+1007498210
793+1005167697+1002391814+999547277+996558141+993034852+989059968+984988912
779+980803402+976213168+970895561+965025811+959470738+955128570+952193014
766+949836538+946708247+941637052+934088995+925049140+917700916+915595616
752+919020010+924593754+929012354+931328864+931893843+931286564+930003547
739+928318529+926426872+924375055+922080328+919681161+917435833+915215301
725+912757789+910035195+907411982+904974210+902777308+900706919+898517310
712+896161417+893794146+891570211+889461022+887295724+885036976+882823445
698+880778728+878944929+877281500+875662510+873930232+872057342+870218974
685+868671554+867491614+866385870+865016890+863490281+862172548+861132345
671+860177035+859236701+858405958+857838354+857586010+857401638+857102326
658+856789594+856529957+856336347+856381954+856742626+857160282+857426143
644+857708633+858246092+859004194+859773285+860464387+861226476+862269402
631+863586356+864942792+866224642+867512035+868776868+869940277+871382674
617+873448688+875782021+877940220+879889543+881748332+883639796+885556737
604+887543206+889827042+892305364+894541455+896511490+898683984+901287262
590+903896861+906168639+908357956+910681760+913054184+915449655+917951315
577+920483898+922884328+925054100+927038040+929250793+931814980+934134115
563+936065448+938197100+940710234+943306025+945801753+948081992+950120194
550+952149158+954411990+956806003+959041899+960990443+962797111+964803223
536+966881392+968557755+970080086+971951323+973966090+975564367+976595429
523+977497255+978641410+979844008+980921454+981986940+982912105+983444994
509+983610695+983505770+983197317+982662678+981712425+980274986+978255747
496+975253580+971260318+966899090+962466292+957766175+952860681+948609046
482+946437719+946609643+947399933+947159744+945451194+941863044+936386931
469+930443180+926279257+926098775+930630275+938639164+948448012+958227201
455+965842843+970914815+974283975+976222990+976966992+977252885+977729179
442+977857052+976692671+975340709+975530624+976501103+976981092+977734916
428+979533124+981791872+983688294+984996886+986456107+988800720+991476347
415+993320161+993370824+992135845+991756599+992609610+993353904+993830490
401+993671790+992453147
##END=
