##TITLE=26
##JCAMP-DX=4.24
##DATA TYPE=INFRARED SPECTRUM
##DATE=16/11/2015
##SAMPLING PROCEDURE=Instrument type and / or accessory
##ORIGIN=Default
##XUNITS=1/CM
##YUNITS=TRANSMITTANCE
##RESOLUTION=4
##FIRSTX=3996.3359
##LASTX=399.24785
##DELTAX=-1.9287336
##MAXY=1.269443
##MINY=0.10442252
##XFACTOR=1
##YFACTOR=1.182261e-009
##NPOINTS=1866
##FIRSTY=0.48420399
##XYDATA=(X++(Y..Y))
3996+409557629+409692491+409862594+410118076+410424579+410740913+411031485
3983+411265238+411490571+411788403+412165160+412568436+412940530+413260242
3969+413561501+413859560+414113479+414333746+414617259+414992857+415372992
3956+415679041+415887384+416052446+416295198+416593836+416784987+416950099
3942+417276970+417624007+417792623+417826805+417926351+418260759+418649541
3929+418804015+418883394+419143666+419393199+419469831+419673410+420150974
3915+420565064+420703481+420712304+420654376+420544217+420674315+421212252
3902+421872346+422368110+422524525+422298385+422119484+422381899+422657673
3888+422607031+422754951+423169747+423433875+423703751+423917161+423861199
3875+423814212+423959762+424361223+424815974+424894875+424875717+425093059
3861+425177708+424745392+424068308+424239873+425800696+427093811+426843345
3848+425967572+425477833+425457717+425614258+425991318+426746547+427406490
3834+427559098+427513069+427490432+427419749+427273745+427121741+427384660
3821+428112614+428599227+428927585+429331567+429221459+428637795+428394841
3807+428783396+429169228+429399124+429943565+430385963+430381728+430330607
3794+430268091+430116037+430040615+430101820+430255638+430383846+430457100
3780+430706759+431088608+431191205+430972854+430853015+431122185+431512706
3767+431683918+431666172+431546031+431552283+431801085+431830074+431449686
3753+431375273+432116486+432772547+432609452+432701763+433442825+433429415
3740+432508973+431935947+432289211+433027802+433353841+433018274+432499394
3726+432375976+432590798+432787974+432850792+432659363+432086236+431385104
3713+431155409+431438595+431433553+430703482+429616467+428671271+427808253
3699+426581284+424846526+422764706+420611119+418815963+417694766+416898322
3686+415755446+414179120+412641867+411666724+411515451+412005518+412242951
3672+411838768+411629895+411763749+411622182+411289916+411050189+410789590
3659+410485633+410347972+410189415+409770938+409578375+409867585+409852032
3645+409000333+407769834+406675685+405741505+404800418+403760012+402555453
3632+401408720+400849987+400577943+399529874+397746717+396044251+394814306
3618+393741634+392336747+390618677+388799902+386959901+385166082+383284614
3605+381153412+378954072+376880571+374819144+372654944+370441867+368128411
3591+365637063+363148816+360829134+358491278+355945582+353278510+350623815
3578+348000630+345349061+342612591+339736949+336806177+334062750+331477705
3564+328724573+325750645+322740544+319727065+316664960+313604569+310551639
3551+307423036+304209784+301006868+297844385+294648476+291377952+288075691
3537+284808293+281573740+278307603+274994528+271708148+268449749+265138715
3524+261805020+258527539+255290289+252028916+248746821+245493439+242279052
3510+239079186+235882799+232674185+229420172+226207626+223134505+220136983
3497+217135679+214132006+211154184+208163694+205111597+202048029+199058032
3483+196094615+193057706+190067355+187272731+184566624+181735865+178726986
3470+175732590+172976987+170431140+167877025+165219065+162556165+159999958
3456+157535620+155112510+152722208+150352476+148024047+145738850+143477335
3443+141268001+139104192+136899824+134671621+132603464+130718505+128873047
3429+127065388+125350582+123687302+122029869+120367118+118702023+117055921
3416+115401514+113749211+112186737+110727451+109324972+107921232+106440318
3402+104918876+103586846+102535550+101518556+100305356+99027649+98006225
3389+97251992+96503324+95665507+94801160+93969658+93203275+92494561+91805818
3373+91083901+90326706+89684629+89322335+89179179+89061773+88892458+88751294
3358+88693259+88646171+88513212+88338275+88324430+88536875+88786560+88950222
3342+89107028+89333823+89656497+90108784+90650697+91216495+91779123+92302899
3327+92811311+93416704+94178417+95048342+95952405+96820162+97654077+98511934
3312+99347884+100092891+100839839+101806462+103101430+104543832+105844856
3298+106938716+107994183+109177505+110536275+112031355+113567992+115079848
3285+116592045+118133799+119688610+121255205+122853235+124469226+126106643
3271+127880952+129849387+131876897+133877673+135898843+137971198+140091939
3258+142247215+144448041+146713224+149015802+151345025+153753867+156312873
3244+159003590+161724204+164438629+167164624+169866697+172572262+175456374
3231+178559379+181699817+184797718+187923422+191110571+194350128+197633117
3217+200953099+204328664+207765989+211239777+214740399+218245079+221737836
3204+225263968+228859069+232497705+236147834+239814450+243506098+247216273
3190+250946060+254701307+258465200+262210716+265939041+269691339+273492036
3177+277291648+281058844+284807486+288549146+292310821+296059766+299726432
3163+303327331+306932893+310571755+314195392+317739043+321226633+324751353
3150+328319532+331837296+335257907+338599972+341879646+345132348+348409527
3136+351695882+354936282+358107714+361213026+364276542+367307415+370269319
3123+373144129+375974447+378796321+381610028+384410248+387163455+389837737
3109+392466266+395067873+397590504+400035570+402470099+404896208+407271423
3096+409578627+411815173+413984641+416106113+418187480+420210389+422163750
3082+424035285+425839718+427638705+429433104+431136503+432705091+434174510
3069+435576826+436927919+438238982+439508099+440723725+441852283+442844113
3055+443689788+444451218+445169694+445805185+446319174+446720484+447008913
3042+447159556+447176243+447072588+446834676+446441634+445866844+445073702
3028+444042649+442775447+441260452+439470035+437390988+434988019+432145223
3015+428751331+424808160+420308826+415123459+409139732+402320313+394535406
3001+385570542+375323302+363767469+350720966+335817120+318758728+299464068
2988+277874127+253872798+227594162+199941972+172929937+149151194+130342466
2974+116731760+107687743+101846416+97508243+94276237+93450999+96800846
2961+105271459+118086912+132786209+146317346+156393576+162032093+163003341
2947+159309753+151483479+141203708+131334889+124809936+123110432+125822210
2934+131355975+138154749+145561021+153573127+162203192+171355174+180918561
2920+190697855+200303668+209150508+216569812+222077714+225619904+227551510
2907+228401067+228650524+228635324+228492244+228025923+226660108+223737478
2893+218896704+212153160+203480141+192563971+179569812+165929727+154380359
2880+148248183+149606032+157742514+170067075+184296736+199277983+214458827
2866+229423953+243813937+257368051+269964744+281742104+293134035+304689768
2853+316779706+329336923+341912114+353985415+365207798+375433032+384652269
2839+392941838+400471213+407483497+414191523+420743914+427194239+433522432
2826+439702603+445669315+451375275+456827090+462001718+466885447+471558186
2812+476119002+480604295+485061204+489528549+493946638+498262433+502472708
2799+506529517+510374075+513986419+517334533+520361952+523054156+525465343
2785+527661556+529684541+531551791+533290935+534935247+536430227+537708772
2772+538832288+539876803+540814688+541637978+542427087+543242310+544107093
2758+545032021+545975352+546874114+547661105+548278043+548712325+548979579
2745+549133751+549266849+549491905+550006549+551032763+552635078+554664769
2731+556822767+558790899+560400878+561708513+562933919+564362704+566221686
2718+568554778+571207356+573925827+576496579+578831184+580905795+582746577
2704+584473419+586158921+587777117+589304464+590698864+591918524+592971609
2691+593862658+594587789+595159504+595558949+595746294+595763233+595750680
2677+595941050+596603917+597836785+599488559+601336601+603205666+604966690
2664+606596079+608185084+609784526+611343937+612820163+614227570+615605586
2650+616977904+618332325+619649892+620940083+622228560+623498131+624686179
2637+625765834+626786099+627826983+628889396+629885158+630770460+631572828
2623+632311318+632965212+633511921+633974939+634388601+634768333+635144939
2610+635530318+635901479+636265078+636639717+636999938+637294669+637514482
2596+637697139+637883324+638101474+638314581+638484180+638664215+638869861
2583+639059828+639282413+639627157+640105603+640685133+641309986+641923093
2569+642534233+643175522+643836171+644495207+645141840+645732360+646230317
2556+646655020+647019375+647347431+647686830+648052798+648430110+648832630
2542+649342889+649990228+650701948+651450824+652258183+653098211+653959313
2529+654865941+655799036+656748568+657743221+658752193+659735856+660739080
2515+661777293+662796448+663815503+664891276+666009499+667114664+668184537
2502+669248160+670317681+671380345+672402475+673323119+674147215+674927602
2488+675686007+676447033+677215370+677949172+678659733+679410374+680198928
2475+680985162+681780068+682615761+683481955+684345074+685198361+686059967
2461+686958226+687901254+688856482+689773293+690623707+691448107+692315158
2448+693218256+694072603+694845427+695603479+696382201+697166369+697961628
2434+698742367+699454793+700110299+700773015+701446570+702068550+702608251
2421+703090529+703534087+703923398+704273687+704632950+705028412+705504589
2407+706109478+706790193+707433397+707993920+708496818+709013530+709572238
2394+710169211+710820886+711536690+712225773+712691363+712811000+712679868
2380+712505480+712368248+712215135+712115161+712254661+712638074+713028040
2367+713318334+713657532+714496703+715823345+716947920+717480260+718057471
2353+719607102+721431398+721449799+719225403+717305267+718112626+720647583
2340+722718917+723757482+724124711+724354406+724845909+725645958+726520723
2326+727257550+727823366+728370378+729119406+730015597+730678767+730990437
2313+731299789+731928575+732831925+733780045+734629350+735349691+736037463
2299+736794204+737573582+738285302+738953262+739593038+740185172+740722655
2286+741207907+741632761+742009619+742379772+742746497+743060234+743298298
2272+743499457+743695272+743885339+744082364+744315134+744582641+744881203
2259+745238248+745667085+746133380+746600533+747049083+747463400+747936401
2245+748346030+748774312+749241263+749707912+750185198+750704078+751296564
2232+751950004+752603090+753226129+753819624+754378231+754915210+755448760
2218+755962951+756446842+756904315+757296147+757564914+757737235+757884751
2205+758047544+758260299+758599748+759172170+759983713+760915397+761889783
2191+762900015+763887460+764766762+765543417+766306813+767121382+767943059
2178+768679835+769330905+769965338+770598611+771211566+771826941+772455072
2164+773094849+773764623+774420381+775036462+775679819+776360281+777030962
2151+777693930+778338799+778928865+779482532+780039778+780600956+781136372
2137+781637657+782152856+782726588+783356079+783995402+784589754+785159403
2124+785774223+786426503+787056600+787683974+788354152+789036378+789684222
2110+790301210+790933777+791624121+792352428+793071962+793793312+794563363
2097+795384435+796180601+796875634+797471750+798042104+798591687+799031313
2083+799326397+799517120+799628589+799665746+799638571+799556293+799412860
2070+799213012+799034237+799020927+799296702+799862619+800594808+801403125
2056+802298358+803265989+804252122+805231802+806153605+806940394+807571550
2043+808062348+808415712+808671522+808943011+809297989+809734993+810313111
2029+811096119+812043886+813084418+814164274+815230215+816288494+817371072
2016+818412310+819351355+820242354+821112077+821898816+822581244+823224298
2002+823881720+824519127+825065332+825514839+825961523+826503040+827067445
1989+827506869+827844655+828221513+828691136+829166759+829578001+829971446
1975+830412534+830869906+831253268+831597860+832004967+832418629+832733375
1962+832979202+833198360+833336651+833349960+833242575+833008797+832617822
1948+832023823+831228211+830361815+829584807+828935854+828470214+828291893
1935+828383499+828672634+829117301+829712712+830532221+831752939+833404712
1921+835245494+837203947+839209135+840911172+842285860+843594756+844895836
1908+846091246+847115493+848014407+848869258+849672382+850411276+851152388
1894+851891887+852590650+853324604+854063296+854681092+855243329+855837126
1881+856412270+856934174+857465859+858028500+858549194+859138757+859975659
1867+860861868+861544700+862115105+862716767+863400607+864146358+864840785
1854+865391628+865813508+866164704+866529614+867067853+867709243+868085950
1840+868284084+868711913+869396358+870150981+871014806+872056598+872985358
1827+873672425+874411924+875228862+875950514+876621649+877357317+878145114
1813+878925753+879696610+880408885+881006010+881517024+882057583+882770059
1800+883557856+884142377+884599145+885295387+886170101+886745951+886981090
1786+887243656+887694474+888250560+888782548+889147457+889412140+889923458
1773+890726783+891301322+891446519+891497338+891691641+892106563+892580875
1759+892912409+893218635+893542304+893880796+894421959+895087347+895543207
1746+895769070+896000579+896384345+896770731+896969571+897321171+898037176
1732+898501002+898495860+898465005+898507153+898469139+898352981+898369517
1719+898670601+898892834+898568962+897896718+897275494+896797553+896381925
1705+895910335+895465163+895216815+894798465+893828565+892508074+890922800
1691+889145441+887420413+885955330+884793346+883452487+881378280+878936844
1678+876803650+875058658+873344117+871592571+870017077+868534046+866999489
1664+865632011+864526997+863422084+862243665+861397183+861349389+861624760
1651+860991639+859764518+859032379+858716575+858315769+858037675+858328071
1637+859498322+861333256+862859343+863863424+865196821+867199842+869549420
1624+871989142+874187170+876089863+878463641+881520957+884263678+886386083
1610+888416327+890449496+892306512+894057352+895815654+897496013+898999413
1597+900379293+901714707+902971372+904099980+905116565+906045728+906867102
1583+907536019+908062159+908620262+909477129+910355272+910581840+910414157
1570+910460439+910520434+910252423+909815117+909635031+910130316+910745389
1556+910242844+908888474+907592687+906597983+905744645+904920850+904258185
1543+903970311+903821584+902973590+901171527+899242618+897622355+895936955
1529+893985056+891971449+890025096+888061400+885829391+883209987+880339513
1516+877334831+874228915+871083069+867993185+864695587+860468121+855139472
1502+849292549+843011142+835654568+826685242+816429557+804939996+790763725
1489+772920864+752526509+731272564+710188016+690071705+672051380+656601757
1475+642206631+625709267+605966738+586562348+571314187+560366948+550848947
1462+540107506+529646830+526116564+536201692+557615001+582881187+607145964
1448+627661216+642365744+650670337+654260144+655883483+658057917+661944371
1435+666450435+669962703+672315206+673910362+675045373+676165814+677566264
1421+679321693+681560155+684138621+686685527+689191898+691815638+694511724
1408+697190215+699880454+702532729+704957880+706930298+707695207+705890169
1394+700808508+692931239+682534843+669309970+654915903+643989939+641103130
1381+648552621+665136650+686033953+705886943+721556026+732790735+741454844
1367+749061127+755649970+760776955+764051412+765401345+765313723+764387080
1354+762905965+760854797+758243813+755795772+755239434+757894078+762966463
1340+768497128+773499738+778223296+783210882+788769628+794960035+801723013
1327+808930004+816459756+824200751+832004867+839686421+847048138+853945424
1313+860273818+865885501+870531923+873944872+876025734+876989080+877285020
1300+877339974+877459862+877882145+878803545+880283954+882203486+884377718
1286+886543481+888276675+889108839+888792833+887402566+885442702+884017749
1273+884421278+887229136+891915991+897482703+903119090+908279249+912662602
1259+916111446+918443379+919466114+918947941+916502270+911818238+904891004
1246+895834006+884931990+873146588+862023146+853011320+847573975+847338331
1232+853092288+863979380+877968457+892926727+907177865+919625327+930064425
1219+938881949+946310315+952479799+957670308+962172642+966261667+970112830
1205+973649700+976818737+979817974+982744007+985409793+987625064+989517169
1192+991267304+992901885+994279346+995323155+996216322+997152140+998061540
1178+998739230+999166554+999508373+999769023+999763074+999374771+998654733
1165+997682917+996396407+994742869+992897953+991043357+989105776+986836258
1151+983991496+980374665+975682264+969628031+962340930+954310195+946080117
1138+938188832+931157238+925261714+920319150+916018883+912379970+909455954
1124+906794907+903651884+899576270+894193576+886458984+874626292+856823360
1111+831395087+796952014+752984940+701968525+651095645+609825161+583964018
1097+572514638+570753613+575142058+584556505+598395241+614863163+630718683
1084+641843436+643316283+629318686+594092806+535010971+458531346+383484739
1070+332879037+317537305+326904839+336464786+325980037+292906206+250503409
1057+215897089+200436602+208520235+240965141+296627952+371799514+459396380
1043+549934152+634473955+706832794+764078535+806013701+834016357+849780271
1030+853888958+844387443+815454717+758496144+671775404+574282065+503139507
1016+487388953+525562494+592442142+663427503+728057800+785328598+835476096
1003+877613126+910633567+934184607+949165968+957203155+959485278+956389444
989+947926142+934094060+914660479+888354316+852076913+800636452+727716787
976+630449110+517462589+412387594+344651407+333489699+379827148+468648287
962+576864010+683720623+777095797+852644192+910601402+953559000+985012113
949+1008254810+1025668230+1038686298+1048373595+1055770099+1061527181
937+1065880385+1069108106+1071480573+1073046488+1073741823+1073463729
926+1072186294+1070054007+1067021295+1062711650+1056781138+1049071148
914+1039568373+1028480424+1016487813+1005046953+996424539+992845319+994517410
901+998365850+999421456+993518672+978415507+953532380+920931803+887380787
887+862855713+853607134+858680376+875841717+904930026+942152523+978534488
874+1006733463+1024861375+1034231154+1036449853+1031855964+1019909131
862+1002199771+985571830+979770886+988980039+1007614731+1026728575+1041542152
849+1051564614+1057583051+1060744728+1062406231+1063318657+1063399725
837+1062535094+1061109335+1059589903+1058008057+1056054444+1053685607
825+1051275429+1048976367+1046404656+1043214344+1039622318+1036019503
814+1032322008+1028042210+1023011619+1017690331+1012817139+1009034037
802+1006610045+1005306393+1004443476+1003341790+1001582177+998970436+995787989
789+992547765+989273560+985560537+981312198+976820552+972210228+967127609
775+961137908+954584760+948482329+943707045+940389583+937670255+934191161
762+928718021+920600168+910730466+902470642+899840147+903381152+909507076
748+914520323+917224930+917960194+917367203+915964232+914097940+912062553
735+909849500+907315702+904665948+902173693+899742542+897195837+894397357
721+891413648+888689783+886385881+884092970+881652441+879231777+876860620
708+874537056+872264009+869954662+867584716+865250565+863038924+860996176
694+859065956+857103672+855078570+853148350+851386217+849789548+848431044
681+847181336+845726336+844278192+843608317+843309856+840943943+836743146
667+835816403+838399003+839454912+838229656+836966236+836447659+836299033
654+836229863+836249021+836447004+836758120+837037675+837357463+837918137
640+838682088+839413420+840060002+840803434+841827076+843137585+844548270
627+845999489+847484940+848940647+850233610+851694761+853700706+855984038
613+858116627+860075987+862095039+864304764+866479803+868484638+870663105
600+873160100+875547490+877767399+880372989+883392997+886198233+888583809
586+890852823+893202401+895652004+898186710+900852395+903658338+906408218
573+908838361+911097291+913593378+916162770+918364025+920385195+922724690
559+925403484+928198839+931103798+934003614+936523396+938613838+940820235
546+943351916+945732248+947769853+949742926+951990463+954504599+956799829
532+958673986+960449631+962308160+963948791+965197288+966511326+968119590
519+969501084+970497603+971586181+972691598+973385017+973697293+973709494
505+973393588+972818243+971942823+970639977+968623446+965436259+961063292
492+956109737+951116253+946025970+940718899+936109684+933822218+934060786
478+935067489+935174774+933551485+929547865+923459752+916720873+911541757
465+910879596+916009606+925164210+935983040+946594156+955176137+961561199
451+966451936+969673002+970942371+970940758+971264730+972235839+972269921
438+971342068+971274007+972496691+974272235+976398270+978589341+980290874
424+981605315+983323587+985957712+988752362+990503504+991419660+992013660
411+992276628+992477989+992582552+992468410+992701835+993284844+994020915
##END=
