##TITLE=8
##JCAMP-DX=4.24
##DATA TYPE=INFRARED SPECTRUM
##DATE=16/11/2015
##SAMPLING PROCEDURE=Instrument type and / or accessory
##ORIGIN=Default
##XUNITS=1/CM
##YUNITS=TRANSMITTANCE
##RESOLUTION=4
##FIRSTX=3996.3359
##LASTX=399.24785
##DELTAX=-1.9287336
##MAXY=0.5572145
##MINY=0.12917778
##XFACTOR=1
##YFACTOR=5.1894644e-010
##NPOINTS=1866
##FIRSTY=0.23556818
##XYDATA=(X++(Y..Y))
3996+453935439+454104365+454147579+454091788+454106260+454261776+454406841
3983+454518568+454645284+454736825+454827217+454954249+455086737+455290148
3969+455607585+455864577+455944173+455988738+456086395+456235221+456388009
3956+456435216+456429099+456443256+456449142+456423098+456507461+456713887
3942+456670443+456590761+456789607+456996436+457235367+457354560+457119964
3929+456996953+457186266+457246221+457097711+457225001+457547376+457602967
3915+457446560+457546027+457742116+457713632+457794663+457973955+457802761
3902+457545538+457440645+457197924+457313039+457889621+457889420+457248576
3888+457424852+457922155+457490120+457428959+457622119+457299831+457458391
3875+457815510+457926605+458010221+457509559+457349449+457848704+457680323
3861+457147099+456992272+457758885+459028429+458539167+456663609+456411584
3848+457279386+457726008+457588926+457455089+457769969+457801411+457262445
3834+457182073+457423187+457333599+457287570+457345458+457665392+458231608
3821+457795439+457387237+457947452+457567763+456946272+457422728+458073996
3807+457790701+457123295+457583786+457748118+456969014+457062163+457344596
3794+457160164+457127488+457138973+457120826+457077266+456979265+457132283
3780+457320792+456947507+456507719+456558400+456883732+456999623+456668318
3767+456444634+456317573+456338362+456642590+456355476+455753195+456013748
3753+456881866+456680493+455375229+455301404+456263849+455442018+454253564
3740+454929842+455767064+455508721+454845939+454457894+454283771+454398542
3726+454311768+453911347+453752787+453580301+453252298+453086214+453356530
3713+453396931+452410223+451247870+450716714+450599531+450168358+448906280
3699+447427611+446192668+444839968+443545817+442540846+441240751+439427991
3686+438135362+437651067+437096623+436715470+437038362+436808562+435562191
3672+435539593+435996781+435270023+435059347+435678225+436025984+436150431
3659+436358954+436079450+435377932+435751992+436623556+436071926+434920370
3645+434683334+435092110+435237433+434996807+434646666+434177618+433743832
3632+433786214+433540420+431875539+430655097+430785431+430871143+430116101
3618+428611216+427484670+427077300+426507064+425677882+424574910+423180776
3605+422186975+421508285+420464292+419156559+417981830+416719609+415302474
3591+414303160+413462464+411817855+409968772+408900918+408077967+406919778
3578+405569030+404160251+402690225+401372930+400342662+398971528+396926010
3564+395205021+394106644+392870007+391393606+390002199+388678213+387167355
3551+385517090+384021967+382436395+380573672+378852999+377376282+375861835
3537+374213780+372486015+370807178+369223989+367614383+365906057+364137258
3524+362324958+360520985+358880913+357319317+355657508+353916448+352128727
3510+350279270+348407847+346681690+344996794+343110756+341280509+339691434
3497+338068935+336326439+334666611+333056229+331279276+329379197+327611604
3483+325983420+324248016+322411596+320611557+318825157+316994106+315109331
3470+313234003+311457854+309763483+308055703+306269360+304484826+302849980
3456+301322927+299749759+298086228+296396595+294694040+292919844+291236212
3443+289740659+288214008+286639835+285146780+283742653+282363105+280965065
3429+279616213+278369899+277130420+275830095+274543036+273291955+272052648
3416+270844122+269708474+268621151+267515910+266459972+265455519+264327221
3402+263100835+262120444+261505126+260887138+260020628+259075757+258339724
3389+257813794+257261791+256619798+255990697+255441881+254978921+254608651
3375+254312923+254053317+253863918+253784380+253778780+253821881+253949716
3362+254129468+254326648+254598400+254896885+255136247+255361998+255667346
3348+256102338+256656868+257293118+257946425+258540753+259071966+259664083
3335+260455247+261388173+262291409+263130727+263997926+264958332+265992160
3321+267049849+268137775+269269145+270418577+271584376+272758243+273917352
3308+275120623+276472174+277929049+279331597+280628764+281905945+283270188
3294+284738664+286256040+287822948+289438757+291022750+292559509+294146000
3281+295853579+297622923+299336016+301016891+302754247+304533181+306346975
3267+308215584+310116955+312045549+313981636+315911205+317908138+320002700
3254+322106392+324168650+326251065+328409401+330615116+332814656+335045438
3240+337354955+339671822+341904039+344104241+346433053+348901991+351390052
3227+353871251+356347195+358736135+361043211+363395655+365854026+368348003
3213+370796554+373220238+375617678+377978248+380379650+382820907+385243816
3200+387662762+390072779+392423529+394725551+397047328+399420877+401791153
3186+404093979+406311265+408489672+410707475+412920512+415035403+417106792
3173+419186537+421237050+423266832+425308933+427335126+429290825+431192053
3159+433084151+434947620+436745793+438477549+440178524+441902528+443651169
3146+445349675+446949949+448500060+450053874+451597897+453082453+454479574
3132+455822913+457181470+458528743+459782006+460953031+462088679+463239834
3119+464424756+465559171+466605145+467629009+468664302+469699307+470718577
3105+471664137+472525278+473343462+474119551+474858713+475547453+476218362
3092+476921718+477592712+478221268+478842902+479424538+479943175+480402546
3078+480794180+481126375+481440308+481753494+482059416+482335877+482558872
3065+482765959+482936407+482998602+482988782+482939910+482803000+482591663
3051+482370334+482121324+481798059+481418198+480992940+480462989+479800264
3038+479030952+478185346+477315993+476414796+475338758+474012418+472523124
3024+470930976+469179952+467196946+464988216+462552874+459793606+456617752
3011+453038549+449089707+444694932+439722915+434088920+427720184+420545984
2997+412560234+403678857+393614654+382178655+369499617+355668879+340559753
2984+324155126+306939551+290035439+274980210+262890331+254242315+249648981
2970+248923142+250307715+252681838+256871277+264281508+275275306+288558780
2957+301694030+312243390+318965742+321980940+321705771+318272206+311973734
2943+303982786+296734045+292838037+293242247+297056075+302712783+308954172
2930+315276190+321743358+328522937+335564334+342637861+349471710+355667041
2916+360768588+364465146+366658973+367517816+367396298+366614610+365417972
2903+364093383+362927814+361909032+360572527+358338443+354952027+350587747
2889+345328415+338785384+330940936+322930118+316794054+314866609+318529601
2876+327006164+338067614+349885684+361693216+373191323+384109172+394296560
2862+403736458+412390791+420330656+427859936+435311257+442804242+450135107
2849+456923358+462974686+468391487+473288158+477657578+481565186+485159235
2835+488476650+491548961+494528352+497487586+500374632+503127123+505710602
2822+508139886+510408312+512490440+514435774+516313456+518121593+519880973
2808+521667172+523455209+525188344+526905112+528599253+530180777+531615456
2795+532918279+534095506+535160633+536087644+536848342+537484305+538036251
2781+538540703+539015062+539418957+539748482+540042459+540292330+540469152
2768+540579587+540664869+540791154+540972858+541137907+541236914+541317084
2754+541455774+541630299+541759112+541835894+541882755+541899812+541932775
2741+542068594+542361250+542829751+543449807+544151009+544901600+545667294
2727+546350292+546913723+547432819+548031339+548851131+549930787+551106291
2714+552173198+553069313+553872738+554647563+555365534+556003278+556565216
2700+557085403+557603811+558102290+558594567+559079207+559445773+559679794
2687+559887570+560060258+560106316+560047336+560032922+560205437+560581938
2673+561109764+561767033+562523769+563288831+563988311+564618703+565183341
2660+565696350+566178692+566637316+567115293+567622559+568105820+568554279
2646+568984591+569404107+569792266+570122365+570442012+570765794+571031458
2633+571269959+571543606+571801230+571989883+572156196+572337153+572507945
2619+572679886+572869056+573024457+573086538+573074018+573076660+573123407
2606+573176930+573229133+573256756+573238321+573228271+573253310+573242054
2592+573171704+573105661+573076775+573078670+573084413+573063451+573041801
2579+573081829+573197604+573353695+573519951+573699128+573920342+574145807
2565+574294030+574369146+574409805+574457356+574543212+574611667+574634006
2552+574661917+574682361+574653417+574636706+574702404+574834432+575039567
2538+575338425+575659392+575926378+576180614+576494001+576815486+577080518
2525+577380295+577772762+578165975+578513704+578847996+579189064+579540239
2511+579870166+580172872+580480631+580789194+581117628+581505615+581924556
2498+582302206+582615191+582929842+583279180+583621971+583920599+584151232
2484+584341148+584535256+584748201+585010190+585341151+585688765+585983144
2471+586238414+586519469+586853473+587210736+587565587+587940193+588317096
2457+588625660+588890864+589192020+589527804+589872547+590194894+590454413
2444+590664142+590863304+591102092+591379701+591642494+591864857+592043115
2430+592205408+592386193+592569448+592710492+592814380+592929008+593057303
2417+593179339+593273866+593344446+593463897+593699296+593992354+594244408
2403+594480841+594746563+595011997+595245961+595457987+595687701+595982769
2390+596372479+596819502+597201517+597404871+597408489+597277035+597110435
2376+596966806+596792453+596593981+596539021+596678400+596722506+596358237
2363+595948484+595978864+596148795+596026702+595735367+596048582+597886984
2349+600394083+601083857+599429456+598021481+598461154+599550515+600328614
2336+600781036+601122046+601287039+601335049+601610763+602106256+602413039
2322+602394662+602480231+603005357+603693523+604067612+604144165+604305998
2309+604730223+605291586+605818723+606216932+606505453+606799487+607110290
2295+607389220+607661316+607943003+608190233+608374119+608536182+608711339
2282+608848421+608908951+608944901+608997850+609034547+609022142+608984240
2268+608971548+608998769+609044425+609103519+609174960+609247549+609326341
2255+609450387+609660058+609934567+610200174+610422939+610570932+610677979
2241+610809145+610982235+611190930+611405885+611571164+611729093+611958060
2228+612206324+612404337+612561289+612700611+612833386+612985169+613159465
2214+613290632+613331635+613317795+613298155+613292067+613335368+613435581
2201+613567380+613757870+614021122+614332270+614674601+615022963+615367591
2187+615682586+615920398+616105318+616295406+616491525+616684886+616879856
2174+617077984+617285703+617489230+617684946+617872049+618018778+618142996
2160+618298857+618482284+618657441+618823524+618987942+619130594+619254755
2147+619393789+619532307+619643833+619758862+619896461+620027283+620127266
2133+620245339+620456217+620722111+620968537+621198882+621416134+621618627
2120+621831055+622050892+622271302+622523012+622799472+623055948+623274521
2106+623446807+623604161+623826409+624127277+624429179+624678820+624906582
2093+625135033+625358085+625555754+625706159+625789660+625824692+625846744
2079+625838360+625790522+625739640+625694731+625627367+625551562+625530600
2066+625587282+625703690+625932198+626248055+626587802+626978545+627410982
2052+627855249+628293486+628685665+628993597+629237783+629447742+629602741
2039+629748667+629934333+630126604+630373661+630731097+631152277+631592811
2025+632061543+632552844+633060167+633575761+634019625+634369423+634772973
2012+635228036+635627452+635971678+636265999+636559459+636898517+637236024
1998+637483254+637670413+637947736+638225575+638326362+638486645+638716589
1985+638911099+639130246+639343363+639558778+639798312+640045944+640256592
1971+640448633+640692015+640879404+640947801+641123360+641340842+641424803
1958+641468104+641527198+641528289+641436231+641250679+640961699+640639870
1944+640419918+640062139+639605410+639504048+639540516+639490553+639437144
1931+639453339+639616206+640018665+640719121+641495095+642416535+643710515
1917+644569071+645170577+646178275+647124410+647751013+648210326+648737692
1904+649316916+649798397+650197295+650581549+650898210+651075377+651435454
1890+651909641+651995324+652132693+652487372+652714904+652928595+653143550
1877+653262657+653299181+653475429+654014051+654274777+654018244+654194549
1863+654758669+655122766+655308892+655476239+655657828+655818226+655897534
1850+655859115+655916256+656421799+656403250+655759361+655967712+656535795
1836+656630782+656743916+657313951+657709691+657476933+657671616+658030027
1823+658013143+658299597+658726003+658916379+659024402+659285759+659481361
1809+659445468+659477054+659662777+659975246+660198700+660020959+659800433
1796+660154653+660805145+660624016+659965483+660199676+660810716+660885373
1782+660807098+660736403+660465800+660561132+661179637+661250676+660488025
1769+660252970+660378911+660698615+661200885+661030552+660868661+661091254
1755+661108598+661556655+662060131+661759148+661556253+661854709+662289787
1742+662590311+662338946+662113884+663171085+663446972+662102743+661851091
1728+662415900+662648256+662499057+662242581+662750823+663391209+662552695
1715+661427326+661330788+661763340+662173035+662129619+661516455+661611844
1701+662397925+661595878+661024235+661014817+660164186+660010220+660038819
1688+660183539+660903865+659896454+657723014+657367475+658238033+658588749
1674+657711701+657295517+657720028+657110482+656546017+657226086+657473430
1661+656649216+656153091+657070971+659056792+658573646+655798987+656130981
1647+657810421+657408191+656744605+657173136+658169579+659655656+660259402
1634+659551825+659941937+661447426+662452138+663191817+663966815+664063639
1620+664658254+666552419+667552421+667539385+668636212+670255467+671302733
1607+672052405+672882132+673722656+674445795+675152626+675889778+676531254
1593+677043517+677538263+678009407+678398887+678705440+678854238+678875946
1580+679291671+680183306+679797271+678435124+678705383+679368280+678593110
1566+677759995+677474345+678207708+679636414+678327274+675723350+675441146
1553+675735467+675465496+674849173+674269203+673974250+673939506+673793350
1539+671864671+669671246+669642704+669517682+667936963+666859661+666142034
1526+664899339+663898704+662795732+660662033+658972429+657713941+656101406
1512+654556234+653456650+652692047+649940188+645521982+642842598+641311898
1499+638591222+634066257+628626284+623699549+618323896+610902754+602682264
1485+595157004+588313593+581695933+575517429+570280064+565420922+559542482
1472+551844592+544428676+539541108+535983928+531630675+526832522+523718921
1458+523934392+528315671+536771732+547549686+557745142+565637772+570835455
1445+573886172+575580945+576702352+578325281+579961879+580614554+581519857
1431+582831237+583467545+583763417+584305542+584929158+586042697+587319391
1418+587672002+588200229+589448782+590547620+591303321+592005844+592734612
1404+593222640+593812431+594637219+594547343+593109046+590329564+586360047
1391+582052794+576994433+570852167+565986019+565003991+568503628+575750991
1377+584948627+594039847+601609615+607824069+613442358+618168093+621832663
1364+624407011+625514118+625728441+625798619+625615307+625051876+624258271
1350+623319488+622472360+622362843+623423376+625320182+627270167+628799316
1337+630333289+632316698+634620500+637105030+639800035+642707928+645731194
1323+648786678+651889828+654967422+657879048+660665824+663313450+665678069
1310+667724535+669360271+670512804+671303881+671873515+672346266+672805292
1296+673305265+673961616+674824192+675770786+676607060+677182723+677457059
1283+677319805+676629572+675532745+674474739+674044255+674775894+676758269
1269+679588748+682748408+685794818+688444397+690585964+692149685+693108569
1256+693445502+693127578+692130274+690405926+687956887+684775060+680884049
1242+676736504+673107137+670480299+669173743+669707196+672401972+676933599
1229+682475967+688190563+693513612+698114383+701959394+705237586+708014312
1215+710295487+712232091+713955521+715524985+716991594+718343461+719576452
1202+720755229+721919822+723003498+723951873+724775110+725491072+726074718
1188+726559414+727015052+727366802+727519045+727570615+727647627+727716714
1175+727681740+727491594+727132895+726595537+725856834+724914374+723831847
1161+722699586+721530629+720306023+719057011+717760562+716303945+714564206
1148+712445323+709906581+706969285+703773790+700538842+697436209+694618709
1134+692155830+689960280+687959528+686132383+684394481+682586115+680474526
1121+677792442+674227050+669350393+662703502+653782959+641951192+626585217
1107+607494831+585601129+563268617+543549446+528458898+517930873+510967609
1094+507353747+507710034+512323898+520277919+529531146+537520485+541597623
1080+539184936+527760682+505613778+474511472+442135487+419465208+412552395
1067+416529922+419151591+410223956+387995417+358811080+332234829+315863425
1053+313553736+326614100+354687483+395660774+445411411+498305425+548701357
1040+592311823+626862999+651988146+668615078+678081135+681218053+677969724
1026+666730792+644096262+608691986+568052814+538815211+534790506+555212832
1013+587756594+620968020+650496727+676249740+698435925+716583507+730215141
999+739382167+744522249+746209499+745079937+741606431+735918252+727948208
986+717538888+704267618+687159147+664417169+633342543+591617628+540974064
972+491299319+459210850+457806637+487174459+536132725+590965527+642143807
959+685621327+720566749+747483435+767487739+781847049+791887966+798926691
945+803954443+807531435+810013668+811682885+812733539+813269175+813360888
932+813084198+812453863+811415153+809928731+808055700+805789915+802945022
918+799400534+795137041+790184636+784720198+779072735+773795515+769799294
905+767995866+768264919+768925749+767658531+762734209+753290090+739132985
891+721170380+702223680+686330109+676251807+673016170+678566636+695216482
878+720626302+747308106+768745538+783016696+790946425+793845187+792683752
864+788014412+780996418+774851510+773894981+779663503+789192845+798204011
851+804655472+808732150+811142023+812392357+812867061+812863385+812537478
837+811959575+811218690+810382531+809502152+808600524+807624354+806534304
824+805294537+803874215+802379293+800859850+799113678+796951208+794406493
810+791587270+788646298+786052769+784456429+784144937+784787447+785610799
797+785961458+785680805+784958124+784047366+783030996+781867666+780533487
783+778945072+777110288+775208371+773182982+770863330+768359791+765942510
770+764007227+762835053+762088425+760973795+758846356+755495172+751449161
756+748384833+748080233+750426991+753582516+756007377+757338742+757885749
743+757955123+757625828+757077385+756469160+755816083+755133086+754296524
729+753367101+752544036+751776217+751001908+750006787+749092755+748446569
716+747766328+746863897+745903347+745066384+744356281+743682874+743043637
702+742485432+741966106+741440750+740897419+740317218+739720077+739197879
689+738856696+738666264+738485364+738211602+737819308+737331797+736969366
675+737251053+738103924+737532682+734837505+734262013+737172778+738942495
662+738453835+737871396+737986425+738451711+738965294+739384579+739765732
648+740348115+741249053+742211900+743015612+743782455+744669209+745677768
635+746737496+747836334+749085002+750595774+752283311+753698062+754886488
621+756277062+757843941+759333350+760827410+762523044+764327333+765959566
608+767550738+769569637+772044289+774550010+776729365+778785765+781053732
594+783346738+785532122+787776658+790222252+792736529+795214340+797751130
581+800283268+802829475+805405661+807749434+810036639+812388279+814588710
567+816820784+819309276+821699738+823860314+826267660+829157233+832187735
554+835010519+837805450+840553978+842893559+845044199+847464639+850174920
540+852878137+855260731+857317878+859387659+861631563+864082325+866835678
527+869605225+871790036+873492447+875322808+877567000+880070710+882560466
513+884826538+886734313+888495301+890035189+891199724+892387518+893238552
500+893407851+893070803+892336924+891619067+890793762+889395780+887526826
486+885887932+885186442+885524409+886999346+889114323+890594083+891023304
473+889936814+887161122+884746827+884426319+886915730+892778262+902172074
459+914356222+926011970+934955370+942165520+947430221+951021513+954135057
446+957378907+960487857+962290538+963240578+965143931+968168116+971993200
432+976972022+982894280+989149624+995247383+1001292653+1008098621+1016515344
419+1024366396+1030641035+1037252665+1043525581+1048489817+1052873335
407+1057518613+1061810590+1065057139+1068371223+1073741823
##END=
