##TITLE=8
##JCAMP-DX=4.24
##DATA TYPE=INFRARED SPECTRUM
##DATE=16/11/2015
##SAMPLING PROCEDURE=Instrument type and / or accessory
##ORIGIN=Default
##XUNITS=1/CM
##YUNITS=TRANSMITTANCE
##RESOLUTION=4
##FIRSTX=3996.3359
##LASTX=399.24785
##DELTAX=-1.9287336
##MAXY=0.54426289
##MINY=0.12635574
##XFACTOR=1
##YFACTOR=5.0688431e-010
##NPOINTS=1866
##FIRSTY=0.23518436
##XYDATA=(X++(Y..Y))
3996+463980342+464046074+464140499+464199500+464199295+464257678+464434152
3983+464714869+465003230+465196048+465286181+465291061+465319400+465494786
3969+465741432+465931928+466126510+466348139+466426748+466465023+466624975
3956+466725515+466739244+466763820+466761997+466713756+466788837+467071436
3942+467163597+467070701+467089133+467131907+467302530+467491086+467462512
3929+467516368+467732852+467737849+467548970+467635722+467863259+467857703
3915+467784974+467985142+468121399+467954010+467999429+468256040+468184575
3902+468048581+468103467+467893127+467823249+468268593+468403910+467887453
3888+467917762+468226936+467834479+467987817+468354963+468016509+468005867
3875+468143124+468091443+468185457+467785797+467627873+468058371+467880545
3861+467346832+467073876+467711480+469119329+469082641+467535153+467166684
3848+467677261+467857056+467629137+467525863+468009101+468323507+468015098
3834+467988875+468163203+467963476+467723151+467471302+467509665+468012952
3821+467720916+467551263+468390975+468129601+467313407+467495408+468043408
3807+467861613+467315671+467901505+468225849+467512223+467526069+467682964
3794+467462100+467511400+467619877+467629519+467527363+467294622+467313790
3780+467486912+467238355+466937354+467009642+467262050+467318464+467008849
3767+466889377+466816383+466739067+466907574+466539428+465825068+465913407
3753+466711169+466653079+465553669+465600000+466637881+465861344+464636936
3740+465191109+465904500+465671995+465135489+464764227+464504853+464643844
3726+464722454+464418424+464201352+463949797+463558251+463264011+463384541
3713+463380279+462458724+461333033+460702925+460416887+459890494+458582685
3699+456952826+455451669+453859732+452464260+451506634+450329291+448584252
3686+447234228+446608237+445879148+445319271+445561066+445406553+444212747
3672+444205221+444811781+444207603+443884876+444315080+444570280+444650506
3659+444856113+444675465+444063966+444435198+445355166+444994516+444035009
3645+443851187+444184437+444154981+443655810+443072034+442514979+442128578
3632+442388188+442566425+441172599+439792060+439606855+439537830+438893847
3618+437630369+436561709+435881156+434913564+433940887+433015305+431799540
3605+430776622+429935793+428772238+427470044+426319365+424956523+423301558
3591+422085587+421248815+419774645+417976632+416757456+415746592+414483261
3578+413118391+411713423+410139860+408604308+407418440+406093874+404163130
3564+402413829+401205618+399927560+398408852+396871301+395377317+393745341
3551+392006387+390469042+388880751+386984285+385172484+383605241+382034853
3537+380320241+378488949+376712102+375032002+373282553+371442648+369622940
3524+367803260+365970469+364265558+362578344+360729473+358872164+357155082
3510+355448966+353607826+351817456+350091084+348180801+346257584+344519482
3497+342813601+341023789+339204110+337427909+335645447+333731784+331781697
3483+329947848+328120055+326306460+324614837+322912894+321054557+319097562
3470+317173109+315341847+313577582+311805233+309965269+308144031+306434887
3456+304739941+302995490+301282671+299622708+297925411+296147799+294437626
3443+292857595+291294850+289727284+288134348+286572720+285127595+283717483
3429+282278825+280916101+279734643+278637731+277417498+276051893+274735823
3416+273464320+272135638+270906820+269875084+268935097+267959362+266853691
3402+265684403+264635586+263786173+263067550+262313767+261440395+260612707
3389+259941031+259327210+258731616+258166448+257623387+257107930+256673581
3375+256345622+256055497+255759640+255540834+255502735+255615357+255791272
3362+255978564+256149952+256326543+256558107+256847556+257145265+257478104
3348+257938528+258520130+259108522+259614483+260082492+260669179+261456181
3335+262322145+263172528+264060629+264957460+265807549+266720226+267783153
3321+268936772+270132959+271334496+272485410+273609985+274760781+275921720
3308+277085246+278355662+279789293+281272811+282691684+284047793+285433300
3294+286923962+288500906+290102044+291703800+293309876+294890936+296440334
3281+298065049+299844454+301658019+303358462+304994289+306724776+308628591
3267+310665107+312737077+314761040+316726531+318656392+320584284+322585582
3254+324673602+326765827+328864459+331072392+333403354+335791436+338218998
3240+340607785+342880627+345112431+347412820+349829828+352303192+354730254
3227+357103254+359501537+361979163+364531988+367103216+369616884+372069551
3213+374524042+377024304+379501078+381900154+384323424+386865872+389482166
3200+392030170+394437742+396793251+399176834+401531784+403821237+406107779
3186+408431362+410764176+413097725+415475958+417864715+420144466+422302394
3173+424399969+426474848+428553021+430624284+432663593+434667654+436657780
3159+438649083+440624658+442550903+444394042+446157425+447878329+449581564
3146+451288886+452995121+454665490+456304286+457903396+459415018+460851530
3132+462264818+463695156+465122848+466490599+467790353+469027697+470228851
3119+471428095+472603527+473754618+474905944+476001091+476991378+477940566
3105+478884081+479815748+480715372+481549116+482367397+483191852+483981059
3092+484716027+485402754+486115086+486847085+487463229+487922830+488327164
3078+488726295+489105817+489480666+489864568+490255703+490606386+490862233
3065+491055787+491196190+491240580+491212976+491164264+491081422+490957511
3051+490794531+490548944+490218221+489832290+489375334+488796290+488072670
3038+487234869+486336009+485386615+484340062+483163718+481837653+480294634
3024+478525430+476598273+474490586+472122466+469462369+466515881+463230380
3011+459464994+455171657+450391849+445055281+439069203+432429794+425074701
2997+416833243+407536530+397008500+385045663+371767197+357480572+342145483
2984+325542771+307954300+290560088+275125840+262879935+254261452+249817129
2970+249279242+250812472+253310941+257655136+265242528+276412601+289840024
2957+303094677+313789127+320632467+323675438+323366587+319917313+313663717
2943+305707180+298417967+294463348+294832641+298645533+304371649+310698032
2930+317052168+323570165+330421472+337448870+344466773+351330309+357680034
2916+362975975+366753797+368895262+369656335+369421478+368531643+367251086
2903+365825275+364583581+363624779+362423066+360260435+356871778+352479636
2889+347166909+340558514+332675500+324596228+318376293+316495466+320310799
2876+328927929+340123577+352116282+364151613+375935124+387187951+397704134
2862+407421673+416301823+424433570+432171595+439866612+447600757+455177272
2849+462240182+468549633+474136287+479141045+483660919+487739301+491443276
2835+494882438+498144979+501318269+504436409+507453833+510356901+513123975
2822+515686443+518046655+520256881+522310595+524240427+526131043+527997905
2808+529858594+531759029+533671634+535517507+537263604+538915218+540447830
2795+541846860+543125654+544251580+545205942+546027781+546729677+547349789
2781+547953850+548496058+548907154+549220120+549499867+549762035+549988514
2768+550186536+550367213+550511202+550633908+550787128+550966806+551133549
2754+551273422+551375138+551457686+551549230+551601616+551603322+551645184
2741+551790878+552067215+552509589+553123352+553882044+554720051+555532776
2727+556252604+556874304+557442794+558090246+558955651+560042831+561251424
2714+562449374+563502395+564384498+565175116+565883832+566487776+567066261
2700+567687549+568312306+568882912+569392901+569858323+570260364+570551812
2687+570719319+570819036+570908875+570966317+570987778+571093256+571430034
2673+572032273+572813484+573617213+574313641+574919642+575534286+576189382
2660+576833541+577415201+577931892+578388025+578813231+579266659+579759833
2646+580263001+580741182+581166094+581564372+581958594+582282261+582510503
2633+582750681+583065118+583369794+583601329+583815167+584033532+584190339
2619+584262892+584307929+584385009+584485373+584565334+584625540+584681337
2606+584723552+584770705+584845551+584897468+584888648+584860074+584861602
2592+584873832+584835321+584758887+584685041+584626892+584608078+584629185
2579+584695506+584814802+584952794+585083142+585231835+585437912+585653631
2565+585804206+585898925+585978298+586062728+586144747+586215419+586264219
2552+586248991+586181964+586160269+586220181+586329599+586490933+586709415
2538+586967996+587231516+587467049+587711931+588025956+588401480+588774124
2525+589120897+589478489+589859658+590245413+590606238+590919734+591208771
2511+591526970+591909726+592331287+592722098+593043355+593337742+593698803
2498+594124832+594516760+594859536+595197314+595516336+595787617+596028971
2484+596291550+596576882+596839520+597087224+597368265+597673000+597953805
2471+598227908+598534583+598868481+599237714+599657923+600080483+600457360
2457+600812600+601169134+601510733+601821995+602106798+602380960+602658002
2444+602964913+603298928+603590140+603789573+603943616+604150693+604449784
2430+604747169+604912090+604961360+605023565+605158676+605325125+605474700
2417+605588586+605651850+605688949+605763267+605948648+606244387+606563527
2403+606877140+607197103+607499663+607750306+607960381+608179099+608434093
2390+608711724+608980124+609198077+609312610+609309494+609237352+609125583
2376+608958546+608734066+608503766+608357307+608365597+608502296+608636995
2363+608708138+608866061+609310846+609969822+610428306+610251803+610174723
2349+611143960+612191513+611960919+611316583+611603679+612322861+612792693
2336+613024875+613240712+613482477+613748878+614183256+614791727+615346988
2322+615712400+615989384+616300469+616658002+616964677+617178103+617433803
2309+617832669+618312143+618774979+619169964+619495278+619796309+620096928
2295+620374676+620630494+620879844+621100267+621264893+621401004+621541406
2282+621661819+621748248+621828150+621898587+621920282+621890297+621850434
2268+621823858+621790698+621744014+621733667+621796930+621899057+622006535
2255+622148760+622364832+622628528+622853772+623010167+623187729+623408622
2241+623602881+623759099+623936837+624147735+624348873+624546013+624767318
2228+624975982+625146782+625323402+625513840+625675468+625802818+625912529
2214+625998723+626059811+626100497+626110787+626111786+626137186+626166818
2201+626223850+626396119+626687743+627043454+627452844+627860823+628163971
2187+628394271+628634332+628861692+629067417+629297482+629543539+629754261
2174+629934527+630112147+630287298+630464330+630622900+630745488+630863784
2160+631030115+631260474+631486071+631649698+631774226+631882997+631990063
2147+632129172+632288213+632414211+632504991+632600415+632715536+632848413
2133+633024446+633239459+633452709+633676307+633942002+634238859+634514490
2120+634734325+634922999+635108497+635315397+635557457+635809453+636038342
2106+636246418+636478835+636749587+637035860+637329894+637603350+637819893
2093+637997631+638193712+638409608+638635616+638823408+638903193+638894374
2079+638815588+638700585+638647846+638659664+638650080+638596400+638545836
2066+638557125+638652138+638879851+639223215+639610322+640029825+640471141
2052+640925216+641395577+641845947+642178551+642368812+642516917+642688011
2039+642886856+643080410+643244448+643461696+643780013+644171647+644634952
2025+645170164+645721780+646237707+646717299+647144093+647524086+647982276
2012+648485209+648888426+649217267+649533997+649846375+650148994+650449848
1998+650713721+650954016+651274979+651537088+651580949+651734463+652018384
1985+652259033+652486629+652687767+652891492+653130083+653383078+653585274
1971+653753428+653990549+654207503+654302634+654460028+654633591+654703205
1958+654778815+654863245+654836670+654690740+654447857+654096615+653743727
1944+653551879+653215629+652675243+652398318+652283962+652213173+652250037
1931+652336525+652461347+652779840+653479090+654329679+655308736+656673488
1917+657635846+658294763+659315270+660320137+661062602+661601988+662117563
1904+662625082+663055051+663456563+663856605+664172335+664331846+664688556
1890+665216242+665386160+665583711+665953768+666151378+666310595+666506089
1877+666672009+666755910+666941408+667525890+667885246+667679052+667820924
1863+668331736+668678510+668858247+668981364+669122589+669295212+669394517
1850+669341307+669381464+669935373+669983762+669318554+669487825+670075012
1836+670159677+670172200+670683365+671154137+671000329+671215990+671581754
1823+671540480+671777542+672162885+672316575+672404121+672696921+672933160
1809+672875070+672851376+673006066+673327381+673579671+673383354+673072739
1796+673383060+674141047+674089307+673398112+673511292+674056088+674134050
1782+674089189+674032511+673709255+673750471+674452484+674721413+674056264
1769+673751999+673746355+673996940+674538796+674409740+674214776+674364115
1755+674303792+674765274+675424838+675257507+674997162+675133214+675483574
1742+675807712+675572296+675306366+676424002+676892129+675630621+675279203
1728+675685712+675815238+675601341+675234930+675687182+676509726+675958169
1715+674890684+674595357+674794084+675094645+675062895+674455189+674527683
1701+675391384+674716945+674226417+674220714+673230487+672849024+672656940
1688+672719969+673624590+672869661+670654379+670027388+670689891+671037488
1674+670215297+669787856+670198893+669548854+668884646+669513342+669759752
1661+668826086+668085620+668860540+671090991+671063710+668429336+668720196
1647+670489929+670167555+669383816+669615939+670541198+672209392+673137414
1634+672563397+672860724+674258637+675229815+676024783+676932756+677101616
1620+677690038+679683780+680880084+680935058+681938808+683446609+684455239
1607+685218987+686068342+686918695+687652635+688377343+689127099+689769612
1593+690278131+690764131+691211974+691578150+691873889+691964375+691844374
1580+692163455+693146215+692916856+691560158+691782874+692472306+691677749
1566+690678467+690145136+690795469+692571552+691743364+689193185+688666733
1553+688721060+688268925+687452320+686687513+686329921+686416409+686553284
1539+684795310+682479017+682261828+682001366+680255092+679016749+678225602
1526+676969151+676003323+674984639+672871484+671081525+669626052+667768244
1512+665992161+664776690+664139409+661553247+656930070+653829039+652015915
1499+649178580+644482849+638712462+633439421+627837305+620217223+611650069
1485+603640704+596334764+589367249+582906488+577403677+572345651+566387824
1472+558580303+550857505+545600105+541800647+537251492+532145607+528764006
1458+529019529+533637650+542190752+552966898+563283618+571446379+576910621
1445+580110075+581819837+582863333+584469204+586265453+587090937+588030777
1431+589299811+589851662+590025519+590457722+590984996+592056772+593413940
1418+593815276+594184921+595152277+595994928+596568710+597200934+598004780
1404+598630419+599345603+600340240+600385806+598829852+595751928+591591586
1391+587235632+582090530+575718903+570550636+569382788+572939834+580449323
1377+590034514+599618942+607704328+614337417+620289600+625312996+629233924
1364+632015639+633244574+633460470+633495571+633349877+632843945+632045860
1350+631089851+630234676+630085454+631102492+633027033+635088037+636720248
1337+638255565+640191688+642526854+645116308+647903726+650886520+654021769
1323+657253031+660546616+663767177+666790599+669701075+672472618+674914202
1310+677007720+678742705+680038432+680918125+681513719+682031704+682579204
1296+683147224+683796851+684610340+685536246+686397771+687004360+687273700
1283+687080617+686275006+685003209+683779624+683294388+684070601+686104736
1269+688970704+692180153+695300351+698022506+700198925+701742708+702659089
1256+702980875+702628280+701525754+699725154+697285392+694063184+689987859
1242+685634257+681897651+679186785+677744541+678176097+680891961+685540773
1229+691268182+697253172+702879571+707750393+711845238+715358481+718373201
1215+720928672+723110324+724982654+726634033+728183637+729692319+731120453
1202+732410241+733586379+734691550+735728285+736661422+737461212+738116248
1188+738629236+739038861+739351710+739552202+739677964+739760630+739780268
1175+739697720+739498522+739163448+738615301+737817275+736810409+735641209
1161+734394988+733151942+731913952+730647034+729273874+727737676+725972411
1148+723816747+721170144+718056707+714628070+711153749+707833824+704788766
1134+702110530+699763782+697659093+695752721+693932306+691989186+689726221
1121+686888181+683084607+677899054+670905493+661526260+649049995+632872578
1107+612871185+590018699+566746827+546164538+530293972+519098618+511633225
1094+507646034+507632805+511937843+519874184+529359953+537571103+541740029
1080+539258581+527611445+505173641+473791571+441207435+418376968+411271695
1067+415127744+417771554+408759174+386173853+356545171+329628590+312934099
1053+310161262+322755882+350575556+391528942+441542567+495070523+546391899
1040+591044673+626809919+653464392+671659658+682278526+686005196+683001412
1026+671940110+649257719+613300330+571843658+542046881+538002541+558860756
1013+592073999+626041585+656339532+682842724+705754828+724590432+738824200
999+748458427+753943071+755921820+755050477+751746191+746117794+738131829
986+727650306+714229556+696832963+673504413+641371412+598213386+546130202
972+495390486+462834278+461555219+491498896+541327699+597119326+649090388
959+693149038+728613017+755956745+776235298+790915557+801420892+808850478
945+814060196+817738360+820381376+822267877+823510159+824168193+824313770
932+823994454+823256281+822179390+820747200+818893742+816598969+813751580
918+810205059+805905137+800822005+795026982+788889066+783164185+778913416
905+776942133+776964652+777369809+775940382+770832674+760983492+746210925
891+727575401+707879978+691081684+680012151+675911309+681085985+698224291
878+724952669+753182144+775816912+790875517+799375763+802774179+802021484
864+797485441+790330781+784010541+782955874+788767301+798571563+807958321
851+814631038+818844472+821546343+823113527+823666789+823561193+823148863
837+822529515+821682218+820720565+819838815+819008040+817968366+816549169
824+814945591+813481887+812127483+810555066+808595190+806263140+803540691
810+800543845+797547058+794952841+793295113+792855855+793413644+794239245
797+794628939+794478423+793910345+793000608+791875681+790581424+789073212
783+787346047+785473834+783538945+781454247+779086097+776528215+774072285
770+772152859+771020994+770235844+768889730+766336376+762617702+758554725
756+755641779+755306236+757569377+760776768+763247751+764531719+764991438
743+765002197+764601979+763855046+763047436+762385932+761918864+761406934
729+760561402+759453349+758340593+757340370+756370192+755458456+754666486
716+753841414+752866709+751872836+751045765+750416657+749784610+748993521
702+748191674+747569680+747097203+746565871+745841162+745012798+744262631
689+743752113+743500764+743372120+743269758+743151697+742982426+742761592
675+742450154+742222617+742292936+742193337+741798116+741963448+742443099
662+742652703+742735898+743005415+743490357+744032860+744533853+744980167
648+745401493+745952991+746735671+747678098+748675263+749697299+750743323
635+751787642+752858477+753991518+755133319+756314043+757708722+759257561
621+760786234+762336368+764076115+765926927+767702833+769409479+771092960
608+772840174+774812985+777023447+779347559+781643567+783960682+786301434
594+788452629+790601356+793023715+795634806+798113196+800265450+802433991
581+804970588+807714204+810289489+812535697+814834292+817264706+819504859
567+821796457+824630676+827643455+830180817+832380989+834791648+837447247
554+839906941+842262097+844748895+847161905+849480138+851853227+854446150
540+857337223+860269865+862872019+865003813+866907540+869179560+872063813
527+874861578+876843797+878479183+880533896+883153101+885967153+888432491
513+890298236+891728663+893279384+894885196+896012945+896882760+897580129
500+898076184+898239869+897767627+896790099+895299467+893346410+891261830
486+889609863+889157493+890020547+891774758+893816771+895365435+895874777
473+894622558+891798217+889413899+888785379+890942748+896708668+905678804
459+917142793+928562040+937692862+944969934+950233096+953870750+956811212
446+959482627+961922800+963349111+963813651+964387727+965463678+967842587
432+972596290+978964271+985660623+992342336+998733247+1005457057+1014762560
419+1023679075+1028402909+1033085705+1040437447+1047611744+1052184358
407+1055534386+1059108071+1062874486+1067446865+1073741823
##END=
