##TITLE=8
##JCAMP-DX=4.24
##DATA TYPE=INFRARED SPECTRUM
##DATE=16/11/2015
##SAMPLING PROCEDURE=Instrument type and / or accessory
##ORIGIN=Default
##XUNITS=1/CM
##YUNITS=TRANSMITTANCE
##RESOLUTION=4
##FIRSTX=3996.3359
##LASTX=399.24785
##DELTAX=-1.9287336
##MAXY=0.52866054
##MINY=0.1255898
##XFACTOR=1
##YFACTOR=4.9235349e-010
##NPOINTS=1866
##FIRSTY=0.23642348
##XYDATA=(X++(Y..Y))
3996+480190517+480192696+480324349+480503277+480600700+480646310+480682356
3983+480811134+481070567+481336386+481501483+481578235+481727594+481980308
3969+482171130+482343278+482636093+482878124+482852338+482803006+482956117
3956+483091342+483133501+483272298+483500588+483537572+483464663+483557153
3942+483525708+483444173+483563479+483633119+483736384+483816496+483694527
3929+483774276+484110128+484189605+484042274+484211214+484459721+484354308
3915+484158220+484248955+484324981+484240238+484457542+484801960+484682473
3902+484426853+484338025+484083041+484166573+484757561+484810373+484165241
3888+484278191+484739583+484379034+484508297+484755230+484175410+484021512
3875+484264813+484461386+484676450+484204192+484015217+484478183+484232218
3861+483615172+483425984+484250407+485564400+484934400+482889716+482660760
3848+483622223+484122537+483990339+483819794+484112186+484198926+483820551
3834+483942580+484300647+484191239+484026082+483896940+484041850+484565316
3821+484194205+483859926+484451610+484031711+483361126+483802029+484424220
3807+484140303+483453556+483874938+484056983+483360974+483458035+483622314
3794+483425712+483542081+483661417+483639686+483548407+483372657+483418085
3780+483545713+483243515+482961505+483088255+483344813+483341726+482939108
3767+482744897+482683701+482681491+482841866+482381049+481689883+481921684
3753+482744776+482485373+481213540+481350338+482561217+481811125+480575580
3740+481183396+481893053+481532625+480873450+480524795+480376920+480571404
3726+480612292+480264636+480003508+479630944+479132779+478890053+479130994
3713+479068042+477922082+476737261+476274597+476087982+475397694+473790795
3699+472010568+470590920+469129687+467696964+466459331+464897709+462929141
3686+461631098+461198851+460629200+460082732+460083489+459533268+458166039
3672+458253475+458884958+458229596+458004544+458583154+458876302+458909412
3659+459027689+458794616+458318212+458980838+460069991+459608749+458473927
3645+458239916+458640113+458732664+458430496+458082901+457611975+457097709
3632+457159601+457133422+455540294+454092892+454012448+454096433+453453087
3618+452024450+450916502+450462162+449771844+448864010+447779245+446398458
3605+445365689+444598316+443424027+442012066+440782271+439443492+437907353
3591+436815658+435963693+434297172+432284327+430961920+429881363+428469311
3578+426924577+425442643+423961981+422572961+421364866+419826336+417740007
3564+416036653+414898955+413552881+411915657+410343896+408851460+407134971
3551+405243246+403565890+401857210+399896451+398133262+396665553+395100693
3537+393214930+391133625+389200407+387465971+385650696+383722472+381879929
3524+380095737+378255160+376472209+374716769+372875345+371022845+369192498
3510+367305192+365338592+363490298+361708497+359740323+357787281+356014620
3497+354243472+352403864+350610472+348902548+347142144+345206717+343152529
3483+341061024+338974120+337045926+335256831+333397581+331451410+329498943
3470+327551289+325662621+323876341+322130222+320324905+318467743+316655132
3456+314906199+313155571+311352977+309576896+307900024+306206930+304518467
3443+302877792+301152224+299403351+297742035+296220696+294822112+293396532
3429+291899587+290412114+288995916+287666791+286383699+285114439+283883706
3416+282640957+281374299+280161211+278974635+277790449+276630658+275483669
3402+274400145+273470853+272628059+271715443+270721263+269756863+268948753
3389+268328105+267781547+267226453+266664368+266150496+265691797+265249502
3375+264854663+264551618+264300780+264086835+264011657+264101060+264237162
3362+264349174+264473352+264652098+264897912+265214122+265574429+265978499
3348+266452875+266982909+267538729+268104143+268685174+269295017+269981582
3335+270818323+271760296+272649426+273451242+274325179+275378316+276519645
3321+277639759+278770799+279970510+281193556+282361186+283488533+284651745
3308+285829877+287042693+288447542+290039671+291643664+293186068+294677505
3294+296120095+297583083+299149729+300788406+302445484+304144995+305905641
3281+307688683+309444910+311155467+312849045+314600369+316470515+318449705
3267+320494571+322559352+324590175+326584892+328612083+330688546+332770335
3254+334900307+337138810+339409484+341645384+343933703+346303133+348673138
3240+351056035+353503368+355928637+358275216+360698458+363272177+365863511
3227+368379787+370847155+373333469+375875834+378429700+380969341+383525658
3213+386097834+388697945+391303231+393856491+396378458+398901362+401433951
3200+403990722+406551852+409062499+411511738+413945451+416397747+418826647
3186+421203038+423584029+426001913+428433871+430840376+433164377+435420524
3173+437655910+439861666+442030649+444178871+446325761+448455036+450488825
3159+452376403+454186260+456039064+457984085+459963094+461882783+463713402
3146+465474684+467204278+468940257+470622093+472185501+473713710+475267493
3132+476808233+478304149+479683817+480973386+482313588+483667107+484976287
3119+486284287+487508392+488606291+489733427+490925874+492019779+492980092
3105+493920007+494896089+495865392+496779551+497646467+498454062+499231181
3092+500016078+500744470+501383125+501977957+502582201+503167469+503689301
3078+504171032+504640112+505102715+505497615+505783651+506025681+506233754
3065+506355511+506411411+506497122+506626657+506671873+506566247+506404026
3051+506229789+505975653+505627422+505203740+504673948+503995857+503187051
3038+502303368+501347382+500263768+499023835+497658361+496185567+494525523
3024+492619392+490502344+488143870+485501418+482610973+479431436+475836267
3011+471758701+467174466+462034321+456298012+449978888+443035362+435298283
2997+426635878+416989733+406114671+393686976+379884910+365145198+349427255
2984+332469136+314548979+296842403+281126549+268658903+259933970+255519493
2970+255080557+256752284+259489314+264184350+272162248+283742155+297622185
2957+311298742+322302098+329390564+332662410+332492985+328962009+322398311
2943+314151870+306749766+302731278+303061048+306930449+312718754+319064391
2930+325493167+332132890+339092729+346300500+353601790+360689196+367069729
2916+372286990+376005369+378091698+378783953+378490291+377534274+376127549
2903+374488358+373092831+372208361+371171991+369069470+365698263+361342863
2889+356006630+349257921+341163321+332945783+326738820+324973847+328978564
2876+337848013+349324868+361617944+374000695+386165749+397770686+408594811
2862+418632012+427901537+436440824+444486819+452420712+460429844+468282837
2849+475571144+482122161+487994057+493218249+497846126+502013095+505803262
2835+509308786+512690555+516016274+519226137+522287701+525226388+528041291
2822+530706986+533178985+535434527+537533719+539573167+541597423+543589718
2808+545540550+547479579+549423087+551339175+553203752+554980135+556603741
2795+558052353+559312413+560396632+561387635+562316654+563105062+563704796
2781+564216580+564725641+565186397+565577787+565937518+566246949+566465464
2768+566631620+566792328+566911936+566975977+567067136+567252722+567478621
2754+567655975+567780909+567902212+568008201+568053054+568064675+568113766
2741+568289485+568667316+569249133+570007578+570855003+571657151+572371893
2727+573023926+573608770+574160141+574812900+575714742+576879950+578146366
2714+579359031+580459775+581398540+582182590+582870396+583525213+584229604
2700+584968256+585630095+586180921+586652573+587065572+587438378+587758765
2687+587984483+588120131+588224001+588319397+588386344+588503167+588834026
2673+589436545+590228706+591067656+591821380+592466875+593073692+593676211
2660+594253670+594798564+595346969+595920978+596458548+596908289+597328551
2646+597809101+598366586+598910087+599329139+599652068+599973908+600286729
2633+600567347+600824662+601033734+601195652+601383781+601653928+601907792
2619+602032484+602109116+602235806+602382168+602480832+602508737+602515516
2606+602535310+602558130+602581615+602572536+602507950+602447117+602443485
2592+602461584+602448994+602427868+602419031+602383923+602320185+602286470
2579+602341310+602478532+602628103+602753522+602898431+603114646+603350774
2565+603513298+603596407+603646041+603692044+603739077+603791859+603864072
2552+603911406+603860258+603758325+603733750+603825635+604008739+604253403
2538+604513320+604772995+605039510+605324063+605657101+606019678+606377170
2525+606758753+607164367+607533602+607832985+608129463+608488832+608864241
2511+609234081+609592965+609924853+610299112+610735960+611171536+611567949
2498+611912488+612241349+612590609+612919834+613204326+613465152+613719742
2484+613999513+614305615+614614804+614920603+615214357+615503934+615787579
2471+616076067+616423753+616825493+617212100+617558152+617904931+618301828
2457+618719124+619083154+619417221+619778163+620140679+620454105+620699919
2444+620925092+621198568+621501462+621758413+621970027+622192718+622431631
2430+622665460+622853165+622956611+623009272+623087417+623235837+623391945
2417+623474811+623519180+623585158+623702466+623928486+624249176+624562541
2403+624847276+625139516+625412569+625647366+625893906+626202187+626550842
2390+626904884+627260923+627595232+627836385+627931236+627899579+627787719
2376+627593658+627296697+626936844+626566822+626240200+626000621+625831439
2363+625744759+625763705+625964242+626431294+626894896+626937267+627316429
2349+628841673+630294098+630175640+629314838+629092087+629289416+629592491
2336+630057182+630642450+631099454+631359553+631756390+632433785+633071956
2322+633457595+633807400+634312465+634857480+635263941+635551461+635878082
2309+636292897+636726354+637143651+637524265+637816385+638045068+638296693
2295+638589418+638880811+639127895+639303070+639409725+639512566+639667281
2282+639812554+639870784+639879561+639906679+639935007+639916182+639850265
2268+639778233+639736831+639724785+639739010+639789432+639866002+639963819
2255+640106126+640324096+640612341+640899800+641128060+641321091+641486157
2241+641636817+641812779+642006174+642190791+642398047+642641560+642868428
2228+643042332+643182036+643333906+643502604+643633532+643735041+643853438
2214+643975286+644071771+644120135+644114324+644083635+644066989+644085088
2201+644178063+644397667+644722291+645092434+645451137+645766984+646060435
2187+646348922+646617132+646844363+647062696+647289806+647483987+647663581
2174+647870050+648075550+648223002+648316885+648438006+648634487+648863474
2160+649039193+649154806+649290576+649471259+649673672+649875541+650018211
2147+650089152+650168326+650295016+650417045+650494706+650569884+650697785
2133+650885792+651130395+651401450+651637397+651842050+652078300+652356437
2120+652623255+652854118+653080380+653327223+653579816+653828353+654073259
2106+654294437+654492190+654695451+654934485+655213893+655500504+655787176
2093+656066886+656300352+656465660+656600038+656715106+656781810+656803964
2079+656804812+656801967+656792403+656766557+656709416+656618681+656566383
2066+656598343+656693012+656943850+657329428+657708590+658091202+658518062
2052+658974703+659419904+659820009+660166243+660472224+660739162+660907618
2039+660992421+661103858+661296102+661580837+661933729+662329658+662774979
2025+663268059+663790618+664355184+664951832+665474209+665875464+666302445
2012+666783480+667215969+667580362+667893364+668196742+668481719+668739154
1998+668996893+669268795+669597172+669877367+669965802+670112346+670313064
1985+670454826+670613718+670780177+670968668+671193054+671440563+671675542
1971+671901441+672162992+672344099+672384836+672530714+672734278+672836877
1958+672925190+672989171+672922527+672751166+672508742+672168077+671830681
1944+671632020+671198502+670530852+670220090+670102903+669950487+669842743
1931+669805275+669903758+670303985+671123565+672047440+673040137+674405278
1917+675386414+676107452+677193790+678205554+678931797+679478144+680015532
1904+680563937+681042066+681479701+681950445+682373976+682590372+682937876
1890+683421393+683509828+683637062+683993768+684218093+684421051+684661538
1877+684848456+684912800+685060373+685607748+685901200+685598608+685693641
1863+686252215+686688760+686956970+687168765+687347330+687466090+687500108
1850+687459493+687544053+688069457+688033441+687347572+687540240+688099964
1836+688170058+688236036+688745460+689098957+688867125+689137272+689571517
1823+689549242+689806919+690210657+690346971+690402235+690692236+690941561
1809+690880849+690856394+691044341+691408371+691640565+691395114+691106566
1796+691452255+692142725+691961799+691207773+691343422+691910409+691958228
1782+691859382+691765439+691450076+691520836+692162094+692292658+691611510
1769+691430525+691493597+691711870+692184612+691993881+691795946+691993457
1755+691997997+692523460+693204850+693041237+692839005+693032460+693340075
1742+693536859+693190565+692891485+694004396+694421026+693140930+692865033
1728+693354118+693540188+693375667+693040450+693447153+694072190+693275610
1715+692148414+691955989+692258217+692594765+692524913+691828814+691768102
1701+692424917+691556488+691036835+691116130+690279117+690117924+690078580
1688+690099463+690783576+689834945+687658516+687171247+687851184+688095122
1674+687163257+686669632+687039412+686411410+685859373+686559830+686765936
1661+685839822+685251588+686114085+688116731+687699677+685000690+685524822
1647+687456345+687205144+686577021+686993954+687985985+689554992+690323546
1634+689776715+690331778+691981653+693047472+693831460+694705276+694860355
1620+695436664+697326785+698354408+698374989+699529847+701226996+702331615
1607+703093389+703932339+704798649+705528161+706232189+706994993+707669664
1593+708159536+708567631+708956962+709327105+709655301+709777693+709665349
1580+709895970+710650964+710185365+708770287+709024272+709669162+708839655
1566+707940658+707549995+708168192+709563234+708236228+705619562+705379559
1553+705678639+705359766+704633160+703905464+703448762+703207367+702892912
1539+700915265+698769283+698830419+698693136+696963482+695752996+694943524
1526+693548481+692370985+691155899+688932135+687150001+685753021+683959507
1512+682264719+681035166+680101062+677057354+672267165+669277511+667484724
1499+664485264+659604219+653724786+648384013+642626065+634711542+625845724
1485+617642774+610217457+603142429+596597829+591043928+585844009+579554544
1472+571384220+563495664+558208945+554323623+549618419+544375765+540863190
1458+540942182+545402118+553936713+564833748+575323171+583645668+589231045
1445+592527285+594321646+595421240+597051140+598836664+599634636+600566863
1431+601834611+602385679+602566664+602980268+603422503+604327613+605439676
1418+605574356+605740875+606553011+607241483+607677907+608226130+609013690
1404+609714752+610624402+611852502+611951469+610132654+606710995+602524535
1391+598398788+593315268+586697668+581223728+579884374+583424369+591088599
1377+600985370+610936012+619365588+626350184+632696910+638121155+642416811
1364+645498108+646874205+647143080+647231757+647115479+646614227+645823822
1350+644831609+643900289+643736009+644842443+646905620+649056323+650669457
1337+652138649+654042389+656370143+658950370+661737913+664740944+667904320
1323+671173927+674544982+677877722+681013314+684014893+686836333+689312326
1310+691492024+693340499+694708606+695637867+696293471+696871476+697467881
1296+698062107+698702155+699489594+700398457+701235894+701805303+702031989
1283+701756758+700821927+699424585+698102057+697520119+698220878+700253245
1269+703164391+706374859+709402526+711984508+714053677+715552711+716473983
1256+716812832+716431551+715244491+713419077+711109482+708047010+703943658
1242+699423556+695670554+693094867+691667077+691928326+694444209+699032287
1229+704876794+711056941+716884197+721973043+726327656+730096214+733300872
1215+735999314+738323376+740364822+742194170+743841866+745332547+746733037
1202+748081774+749364352+750530590+751558637+752487112+753343253+754084991
1188+754640236+755043489+755351952+755561811+755725606+755884982+755955500
1175+755829960+755511873+755047182+754434373+753649657+752666584+751515539
1161+750272972+748969875+747598863+746152430+744672161+743162958+741410665
1148+739171527+736413341+733185743+729637939+726049700+722610064+719451954
1134+716691468+714272616+712069614+710020844+708056029+706005443+703598333
1121+700555231+696548062+691118733+683761876+673896097+660840672+644031276
1107+623371002+599840923+575882955+554629544+538136480+526384394+518383010
1094+513763456+513028799+516755833+524388769+533743733+541910123+546121339
1080+543751879+532242823+509945505+478673596+446166778+423364274+416095730
1067+419701038+422337256+413415326+390540155+360183708+332502035+315285421
1053+312126797+324332437+351831096+392694642+442954312+497034445+549108995
1040+594647723+631508942+659512152+679050558+690721412+695146603+692690706
1026+682297284+660179378+624285373+582508969+552421518+548468948+569910609
1013+603918670+638521442+669262258+696147775+719353169+738405455+752851686
999+762674730+768401384+770759525+770293139+767293498+761845707+753926463
986+743408227+729866441+712291700+688691709+656110952+612249460+559170711
972+507370696+474178492+473011195+503681402+554427070+611043151+663719797
959+708248758+743751252+770837367+790885015+805435902+815854263+823239024
945+828451352+832192369+834918716+836824695+838065506+838763663+838970435
932+838741933+838125431+837151317+835769046+833933524+831647051+828726462
918+824974853+820464132+815323048+809576540+803412070+797490932+792910420
905+790599130+790332494+790405917+788607440+783249718+773183220+757964502
891+738672152+718246735+700624235+688650911+683682157+688234644+705339185
878+732790177+762273233+786249844+802370041+811597406+815518743+815106471
864+810768746+803837114+797772338+796868196+802718635+812512080+821908931
851+828654371+832864921+835376325+836753572+837322436+837340595+836990609
837+836427132+835760027+834972467+833999441+832866071+831631313+830371737
824+829111738+827658949+825914102+823992082+821938893+819679296+816972742
810+813722324+810331535+807464819+805678266+805204555+805831589+806811938
797+807330199+807173486+806561766+805780199+804927568+803757699+802153826
783+800307833+798332849+796303993+794229982+791995020+789579860+787102413
770+784977072+783621072+782697742+781361716+779006299+775468241+771328087
756+768246548+767920350+770232427+773323954+775667567+776985555+777490801
743+777367138+776830960+776145878+775405229+774616276+773851415+773045574
729+772081205+771027493+770150227+769475858+768645201+767566550+766463385
716+765430192+764473874+763659075+762953957+762270751+761560791+760776741
702+759939304+759182614+758592262+758042344+757458831+756974044+756564435
689+756039032+755411514+754873217+754517844+754299208+754091226+753769265
675+753376908+753295979+753706737+753869080+753498452+753619755+754052123
662+754128089+754060900+754278265+754679702+754958202+755221388+755779236
648+756644032+757611247+758487060+759301133+760194016+761145129+762136616
635+763281850+764606859+765976479+767267288+768491998+769754177+771146919
621+772702004+774277246+775768290+777305700+779073730+781024139+782943253
608+784869207+786960107+789105181+791259818+793450532+795585074+797672947
594+799876191+802389592+805015216+807423476+809642579+811929294+814425081
581+816989085+819622397+822388270+824892894+827068536+829181106+831315163
567+833631720+836323988+839071763+841504658+843845306+846371903+848932639
554+851371043+854014645+856895828+859575990+862002288+864365393+866841386
540+869413502+871843189+874150000+876528540+879046783+881690749+884225033
527+886443591+888461854+890554387+892674523+894618273+896296053+897867663
513+899879509+902376446+904679686+906172425+907083164+908107579+908852526
500+909078789+909238407+909196097+908587040+907285517+905611974+903808291
486+902023918+900859495+900858890+902258957+904473762+906319755+907328857
473+906796856+904240841+901390286+900188275+902082269+907624911+916143224
459+927130932+938280378+946945720+953621792+959064256+963388180+966054481
446+967153954+968025954+969009027+970033866+971452940+972817959+974677451
432+978704958+984942851+992430393+999806560+1005629094+1011019804+1019542355
419+1029289192+1036341097+1042112785+1046911025+1050515486+1054843284
407+1060665212+1065970212+1068628220+1069952624+1073741823
##END=
