##TITLE=8
##JCAMP-DX=4.24
##DATA TYPE=INFRARED SPECTRUM
##DATE=16/11/2015
##SAMPLING PROCEDURE=Instrument type and / or accessory
##ORIGIN=Default
##XUNITS=1/CM
##YUNITS=TRANSMITTANCE
##RESOLUTION=4
##FIRSTX=3996.3359
##LASTX=399.24785
##DELTAX=-1.9287336
##MAXY=0.54900861
##MINY=0.12698603
##XFACTOR=1
##YFACTOR=5.1130411e-010
##NPOINTS=1866
##FIRSTY=0.23551857
##XYDATA=(X++(Y..Y))
3996+460623276+460698758+460709162+460699516+460709075+460828825+461049703
3983+461260964+461405020+461507663+461580376+461652652+461818857+462037579
3969+462221153+462397005+462575508+462720963+462771906+462813872+462972209
3956+463130924+463203666+463268627+463353959+463351569+463368326+463539253
3942+463523632+463390767+463437425+463520018+463663724+463717640+463570669
3929+463651571+463947377+463975180+463860850+464132409+464464586+464379662
3915+464174842+464291212+464416674+464323852+464490786+464826314+464690739
3902+464329040+464134274+463875451+463996367+464636620+464787728+464210368
3888+464256939+464620241+464250236+464377097+464649880+464234528+464273376
3875+464558661+464620008+464689369+464214827+464060483+464563586+464477817
3861+463995639+463727432+464382489+465730286+465401897+463556506+463210048
3848+463976958+464383888+464285645+464236772+464556184+464463624+463854410
3834+463887662+464313856+464320093+464231234+464111659+464174638+464555106
3821+464100934+463834213+464622281+464344952+463604796+463930095+464564519
3807+464389279+463852894+464387589+464566646+463795482+463887925+464129844
3794+463924092+463916310+463948951+463946620+463909141+463762200+463852049
3780+464075725+463874519+463638399+463758470+463976987+463909782+463417491
3767+463102334+462975181+463078699+463457738+463130458+462412888+462606808
3753+463478576+463281187+461991852+462036500+463142873+462343089+461064916
3740+461592966+462254085+461934994+461404641+461197286+461123669+461293576
3726+461252046+460868227+460679786+460399338+459853686+459457218+459641784
3713+459750226+458840980+457693282+457171148+457077452+456642486+455313021
3699+453712580+452346947+450885987+449501935+448427154+447103488+445316879
3686+444071376+443595930+442980420+442509258+442748205+442400874+440991380
3672+440879965+441405917+440830742+440728186+441331921+441523540+441414339
3659+441451963+441197658+440711516+441338158+442352146+441825611+440691086
3645+440500517+440953552+441107546+440810400+440364330+439807632+439318343
3632+439409649+439336965+437757245+436441040+436463801+436504689+435752672
3618+434319048+433255400+432738162+431902590+430919873+429900902+428643858
3605+427656129+426863689+425735255+424441141+423270828+421937457+420423717
3591+419345585+418475886+416817450+414881509+413722125+412902378+411741945
3578+410317209+408870296+407424956+406100794+404992411+403526613+401448044
3564+399755364+398665283+397385769+395813276+394261213+392786176+391204445
3551+389486585+387860585+386177901+384352764+382711522+381229053+379634761
3537+377876771+376046592+374309351+372668371+370958118+369186284+367471717
3524+365753420+363931692+362134650+360390181+358605758+356809939+355037989
3510+353247299+351402373+349634212+347885460+345996149+344194851+342543204
3497+340785593+338911961+337094488+335349437+333554347+331670982+329849283
3483+328097529+326224131+324354462+322660238+320995535+319230608+317336576
3470+315319529+313348500+311604265+309980568+308225928+306337696+304481666
3456+302722802+301066172+299480302+297938002+296375768+294639956+292834549
3443+291150728+289543351+287996592+286498677+285043050+283606744+282135234
3429+280713762+279432238+278217102+276966674+275676406+274400535+273209763
3416+272033767+270793685+269612210+268543607+267515864+266497737+265444173
3402+264333021+263301605+262444351+261643344+260803313+259921345+259113052
3389+258490111+257935657+257335943+256761817+256274976+255802648+255303042
3375+254855924+254560584+254406386+254311233+254294388+254408601+254604445
3362+254774963+254898998+255074820+255375318+255733841+256009975+256276288
3348+256720871+257292228+257868131+258453856+259088251+259757559+260434328
3335+261178768+262041589+262977122+263926062+264844547+265730566+266646311
3321+267666127+268811814+270023744+271230224+272416188+273590901+274748129
3308+275891397+277109884+278496384+279994706+281468169+282848723+284164870
3294+285503982+286974531+288610090+290322501+292001571+293620751+295219386
3281+296825510+298427903+300025110+301668246+303420466+305340407+307389366
3267+309368643+311208293+313078370+315062572+317069214+319046334+321051607
3254+323144718+325306025+327473481+329619254+331797551+334070536+336421770
3240+338772131+341106375+343476203+345856785+348220085+350611595+353042916
3227+355466339+357867321+360268916+362697497+365167345+367680151+370213386
3213+372734702+375258436+377737756+380128859+382535525+385023325+387522084
3200+389947751+392305543+394661440+397040448+399404797+401742422+404092345
3186+406439733+408737460+411024316+413316215+415558599+417754295+419931805
3173+422094307+424239876+426332317+428359855+430367955+432374772+434360315
3159+436331519+438319014+440256674+442041040+443715389+445411449+447185411
3146+448949259+450587208+452123650+453642023+455166517+456675127+458131629
3132+459551206+460993136+462414403+463746870+465047542+466351245+467607794
3119+468790230+469899459+470947894+471978494+473026346+474066942+475075072
3105+476043246+476953017+477789871+478590470+479423040+480253657+481020800
3092+481749765+482458446+483111142+483674369+484212794+484807028+485412571
3078+485912119+486261665+486532699+486812097+487144478+487496065+487754421
3065+487901158+488011933+488097061+488125971+488099334+488026475+487912291
3051+487724753+487440138+487109623+486741599+486282269+485695175+484990428
3038+484242724+483478117+482591923+481519269+480305241+478978078+477498261
3024+475836648+473989857+471911493+469562240+466937465+464006160+460696310
3011+456954030+452793920+448192550+443024223+437177466+430592476+423218807
2997+415022651+405890524+395533295+383754944+370709612+356566999+341241454
2984+324626371+307097902+289842625+274491667+262164050+253396916+248882509
2970+248357140+249889765+252318055+256536597+263965668+274983987+288329410
2957+301554558+312193429+319001424+322131022+321955753+318516040+312147849
2943+304125155+296855003+292884646+293243897+297124900+302867003+309106905
2930+315398071+321892832+328728164+335832694+343001281+349908830+356165082
2916+361396242+365235453+367496518+368335587+368116049+367208085+365901672
2903+364472274+363234290+362235952+360970136+358792480+355471847+351153284
2889+345850490+339222688+331319978+323260039+317096667+315204646+318917957
2876+327424403+338557431+350533870+362566672+374328702+385481985+395792992
2862+405315000+414140595+422294406+429990606+437605029+445296187+452843522
2849+459874581+466142141+471666805+476625503+481120267+485185194+488888830
2835+492306044+495518176+498637107+501705153+504666651+507476312+510142413
2822+512689782+515100062+517340609+519429436+521376743+523179906+524964650
2808+526880540+528847081+530701303+532441575+534138889+535794353+537340879
2795+538717906+539919782+540986490+541941695+542759227+543430634+543996425
2781+544502821+544981706+545451323+545880140+546215348+546485100+546713234
2768+546841640+546877195+546913566+547011605+547166298+547341742+547531874
2754+547736344+547906950+548022183+548105708+548159449+548189991+548225896
2741+548326091+548571770+549015799+549697056+550556497+551418909+552197564
2727+552877538+553434062+553938301+554538190+555367671+556469468+557698971
2714+558846698+559837050+560713569+561512274+562212124+562826352+563417963
2700+564001823+564574084+565151882+565711436+566170620+566486826+566742997
2687+566997128+567165518+567216519+567224097+567259943+567399773+567723324
2673+568264576+568964077+569709916+570445205+571161142+571847587+572474987
2660+573016705+573499146+573970862+574440362+574910446+575394577+575853178
2646+576269696+576707722+577172269+577616590+578021392+578358232+578612246
2633+578838516+579117010+579458688+579797685+580054788+580208491+580309735
2619+580396116+580460407+580519859+580610728+580716927+580788620+580804940
2606+580809836+580868706+580969776+581042751+581045490+581003465+580978985
2592+580964297+580911314+580837756+580806106+580844925+580886367+580862994
2579+580869872+581016755+581228802+581382214+581503275+581669568+581839066
2565+581971727+582097976+582197647+582255934+582311132+582341266+582304837
2552+582262753+582259897+582279540+582355604+582482903+582611192+582772589
2538+583012439+583326081+583665078+583961175+584223699+584514143+584849176
2525+585231013+585628121+585957442+586229176+586544799+586925529+587326135
2511+587721203+588071624+588370811+588695877+589097065+589530428+589937387
2498+590297309+590609085+590910487+591228267+591538586+591827631+592084676
2484+592314210+592551962+592815011+593097411+593396655+593708024+593999691
2471+594272008+594577081+594908501+595222550+595556184+595954226+596379778
2457+596792741+597164261+597467528+597738387+598018164+598306043+598612982
2444+598927556+599203020+599428357+599620645+599816256+600051094+600304059
2430+600525258+600693823+600826776+600952384+601095362+601254019+601372108
2417+601414541+601445608+601571973+601773180+601973628+602233238+602573983
2403+602881388+603110572+603339989+603589690+603836127+604066827+604296769
2390+604522339+604720048+604886282+605011657+605081310+605109754+605165943
2376+605290327+605384285+605376650+605406842+605505872+605434354+605245854
2363+605114825+605062717+605447643+606346194+606867920+605777139+604127970
2349+604605398+607136039+608841863+608599565+607947509+607679564+607719782
2336+608173021+608891057+609456731+609717332+609895573+610181529+610607431
2322+611085966+611446354+611677112+611976765+612381509+612703894+612944968
2309+613243222+613637591+614106859+614605503+615052738+615394649+615674135
2295+615944936+616235729+616549021+616842962+617058273+617191517+617312171
2282+617458413+617588568+617654432+617662300+617651109+617651051+617669645
2268+617683342+617660727+617612698+617614505+617719596+617874232+618007883
2255+618124865+618272506+618478900+618732214+618983955+619211158+619396277
2241+619561520+619727813+619865370+619972326+620132440+620373981+620620768
2228+620825238+620995436+621136956+621258076+621381820+621532608+621680715
2214+621764648+621800086+621838322+621886934+621927035+621932164+621916543
2201+621979085+622199759+622542661+622921526+623265127+623561283+623847063
2187+624123110+624375958+624617732+624858341+625100464+625334544+625553004
2174+625760738+625968065+626164433+626309451+626411803+626528843+626680155
2160+626854025+627036988+627216978+627400523+627611288+627809988+627917877
2147+627972026+628052112+628163790+628304552+628463909+628613356+628757733
2133+628936382+629147439+629356456+629560810+629768486+630002158+630270044
2120+630516365+630709061+630890450+631105354+631360417+631635007+631899571
2106+632132718+632351411+632601461+632876168+633104128+633272577+633465564
2093+633735724+634018241+634234019+634410220+634550633+634610610+634606122
2079+634560892+634489782+634437382+634411619+634341033+634225159+634193742
2066+634290207+634422460+634620810+634935152+635327481+635767430+636216122
2052+636657995+637095030+637489982+637787362+638023599+638266480+638460226
2039+638585776+638726305+638920692+639198429+639562664+639976734+640425718
2025+640912471+641419567+641936106+642459172+642938290+643340761+643767421
2012+644217454+644608151+644964109+645291565+645577637+645863942+646194312
1998+646492566+646704497+646949885+647194049+647302521+647493235+647751563
1985+647971188+648205268+648420463+648619746+648816755+649019477+649201973
1971+649377300+649622630+649828091+649914239+650116553+650358443+650426173
1958+650435907+650486441+650496175+650402800+650174607+649839107+649540562
1944+649357308+648972032+648460856+648290833+648220247+648084439+648034079
1931+648102508+648281565+648667716+649386743+650207655+651166475+652535692
1917+653509899+654180256+655187745+656131817+656786496+657268878+657770203
1904+658273336+658689271+659078336+659511407+659914694+660142596+660470518
1890+660879051+660933374+661109109+661555587+661843524+662026486+662188815
1877+662308770+662361694+662536905+663087891+663375128+663129624+663301687
1863+663855121+664217141+664436707+664666766+664907024+665080136+665099429
1850+664985303+665030534+665573301+665566424+664899389+665093484+665663763
1836+665765357+665853661+666368451+666749997+666552987+666784095+667157597
1823+667138537+667427757+667867240+668054283+668135010+668386168+668605210
1809+668590755+668608474+668742651+669004767+669220195+669066842+668870940
1796+669243801+669898771+669678447+668967929+669196880+669810233+669847479
1782+669736267+669655656+669364863+669457364+670140195+670313948+669602907
1769+669332980+669376287+669651285+670183153+670046820+669869977+670040117
1755+669989232+670404585+670964430+670759726+670557354+670747778+671103211
1742+671414288+671179683+670934587+672020297+672372874+671042768+670740434
1728+671255573+671483125+671360431+671111196+671602263+672231762+671391673
1715+670254671+670114549+670481756+670857823+670832002+670228208+670301708
1701+671089747+670306604+669734635+669689521+668778031+668572336+668558056
1688+668698527+669474442+668494815+666259571+665807498+666596061+666900144
1674+665982825+665531451+665966330+665385501+664835972+665525623+665739128
1661+664804206+664181935+665063991+667168089+666841333+664088968+664417881
1647+666160192+665787331+665064107+665423737+666433208+668038603+668773834
1634+668103885+668486422+669992438+670980984+671722393+672585971+672799476
1620+673460915+675402160+676447652+676448584+677534003+679139398+680165947
1607+680878854+681688692+682558449+683331216+684051992+684763150+685381282
1593+685880335+686362425+686842360+687273449+687621305+687757056+687713574
1580+688094362+689013254+688634914+687245996+687539412+688242760+687444346
1566+686542765+686159820+686828720+688343771+687168125+684533092+684115991
1553+684302276+683995512+683364090+682734184+682365927+682306708+682227379
1539+680358585+678146948+678077470+677877662+676165718+674986225+674250586
1526+673015196+671990862+670843368+668645953+666872283+665523233+663843289
1512+662249667+661095179+660304459+657526331+652975175+650102098+648402277
1499+645538585+640852203+635205836+630077057+624551285+616962916+608451108
1485+600546649+593371126+586513732+580134058+574706967+569681821+563650120
1472+555770783+548147558+543085459+539401903+534900407+529892165+526610730
1458+526821379+531296471+539816148+550675635+561044463+569175367+574598903
1445+577805964+579564770+580661904+582267125+584000227+584786750+585750232
1431+587067633+587675973+587890877+588322258+588840020+589891457+591184785
1418+591579853+592085026+593238581+594218850+594864902+595493235+596213544
1404+596740574+597387325+598311056+598315136+596834066+593894192+589802803
1391+585443877+580309968+574012070+568953235+567855810+571424424+578939818
1377+588508135+597954107+605813510+612265751+618077478+622948279+626723579
1364+629377264+630520620+630737156+630811296+630682541+630196078+629410371
1350+628412791+627501767+627346549+628406613+630378808+632455511+634082415
1337+635621363+637557362+639862258+642415807+645194401+648178980+651299835
1323+654514356+657806050+661012878+664004685+666898221+669681361+672156280
1310+674257464+675911005+677078083+677894624+678481106+678944196+679414746
1296+679975116+680669487+681512374+682446130+683318918+683918515+684131495
1283+683917582+683219772+682112379+681000907+680549533+681307554+683316469
1269+686152068+689314365+692414877+695165202+697356031+698868634+699751796
1256+700081759+699795512+698766632+696964751+694461329+691195049+687120971
1242+682767815+679017987+676326007+674957839+675458232+678142285+682685631
1229+688347094+694307394+699880319+704677038+708733922+712252234+715257564
1215+717742392+719825449+721638404+723273526+724781116+726199061+727569036
1202+728865569+730064589+731194888+732250114+733153852+733879174+734450385
1188+734929445+735377030+735738117+735968059+736109929+736184420+736213622
1175+736167634+735967418+735594382+735035119+734271270+733307146+732184308
1161+730981966+729740339+728476446+727195650+725829930+724297743+722508919
1148+720326250+717691100+714648233+711307287+707872500+704557492+701555193
1134+699000887+696820433+694811459+692863394+690964991+689010282+686761341
1121+683978375+680326469+675317120+668438568+659147289+646846134+630952934
1107+611241009+588649655+565657229+545376774+529815401+518924905+511749965
1094+508027182+508216672+512640355+520585324+529974000+538071388+542147856
1080+539596173+527940603+505487797+473970331+441181891+418208204+411079368
1067+415007671+417735235+408808774+386370393+356880845+330040319+313488185
1053+310984268+323857188+351904136+393057910+443208672+496721975+547847089
1040+592209410+627614378+653761989+671365619+681492148+684935912+681757995
1026+670474470+647575420+611519679+570081378+540311878+536191112+556926670
1013+590065793+623987010+654223039+680596162+703300826+721958224+736116283
999+745731229+751186706+753093153+752118363+748680953+742892075+734762220
986+724158496+710648063+693230777+669973553+638069645+595286666+543572737
972+493062200+460537886+459136116+488875773+538416388+593929398+645835148
959+690043125+725713590+753280021+773808078+788646811+799146202+806526312
945+811726959+815378748+817934045+819746243+820990085+821635437+821728988
932+821426537+820800186+819865032+818518546+816664557+814310175+811319184
918+807562070+803089426+797935641+792218572+786314578+780847618+776723879
905+774781469+774904046+775481961+774153777+769089522+759322680+744678742
891+726210485+706739694+690291836+679722908+676120021+681643345+698814602
878+725067072+752554349+774638899+789423367+797785611+801015112+799960469
864+795139328+787893220+781590892+780568016+786479646+796348140+805638544
851+812256845+816505725+819088301+820493947+821115343+821213790+820870655
837+820126273+819171068+818199134+817300525+816449245+815492524+814395332
824+813181799+811736285+810083327+808373481+806518501+804288387+801610454
810+798626108+795577179+792861477+791091071+790675719+791338849+792236408
797+792660212+792500856+791933550+791007313+789714451+788230467+786781630
783+785292634+783569149+781642534+779526312+777119181+774491492+771961549
770+769996757+768848097+768159729+767027448+764622415+760884302+756668529
756+753641225+753338599+755589347+758722034+761272318+762704951+763182088
743+763153586+762903069+762507126+761944774+761198294+760455777+759837528
729+759069482+757943962+756747566+755789446+755081260+754186499+753056957
716+752032740+751206465+750459927+749728718+748997684+748227248+747394153
702+746600461+745984019+745521279+745056966+744535706+743982680+743363615
689+742724325+742239436+741970034+741791268+741581552+741322467+740894583
675+739969104+739195870+740612824+743245643+742629026+740044819+739664613
662+740905483+741716661+741975572+742137318+742317074+742688595+743342166
648+744080835+744857217+745774186+746754280+747632955+748519906+749648049
635+750897020+752008259+753067157+754286694+755618724+756944750+758404137
621+760087696+761686155+763151079+764774311+766583186+768515571+770523437
608+772461418+774312318+776211071+778298324+780505474+782725213+784988201
594+787296653+789769999+792409928+794960854+797268315+799616577+802311121
581+805015166+807425329+809766013+812041183+814278409+816624397+819040505
567+821490186+823961492+826346066+828846107+831717960+834597158+837032092
554+839209165+841691604+844432544+846974727+849388969+851937796+854594862
540+857232460+859758264+862094460+864314899+866677267+869401770+872306206
527+874874500+876807818+878529554+880543541+882878921+885273288+887503577
513+889547407+891384376+893155715+894765249+896022438+897212773+897999529
500+898116570+897938969+897687578+897200183+895921311+893844199+891383619
486+889195995+888322625+889035007+890882759+893144057+895005332+896099261
473+895477748+892658469+889759280+888902754+891185035+897033424+906228122
459+918025037+929432246+938421482+945845424+951664378+956114407+959330094
446+961427664+963441534+965343668+966762954+968181832+969890453+972614316
432+977263919+983185341+989390096+995850265+1002516652+1009731169+1018921495
419+1027355840+1032948933+1038960642+1045365088+1050409234+1054378571
407+1057695211+1060701649+1063966647+1067819526+1073741823
##END=
