##TITLE=8
##JCAMP-DX=4.24
##DATA TYPE=INFRARED SPECTRUM
##DATE=16/11/2015
##SAMPLING PROCEDURE=Instrument type and / or accessory
##ORIGIN=Default
##XUNITS=1/CM
##YUNITS=TRANSMITTANCE
##RESOLUTION=4
##FIRSTX=3996.3359
##LASTX=399.24785
##DELTAX=-1.9287336
##MAXY=0.53523606
##MINY=0.12592646
##XFACTOR=1
##YFACTOR=4.9847743e-010
##NPOINTS=1866
##FIRSTY=0.2352234
##XYDATA=(X++(Y..Y))
3996+471883751+471831706+471848088+471964821+472082512+472180681+472278253
3983+472396511+472595183+472884849+473138106+473254391+473348914+473531323
3969+473770141+474025041+474259106+474402624+474403431+474403461+474523722
3956+474654446+474758774+474872757+474943036+474894549+474936699+475179283
3942+475203826+475136745+475259278+475329468+475435320+475510143+475409492
3929+475515703+475803845+475795475+475602573+475761995+476054322+476083498
3915+476021289+476121372+476062213+475771172+475867966+476272663+476265040
3902+476010528+475860822+475585265+475673959+476296368+476474263+475995970
3888+476142238+476476685+475951489+475975134+476271557+475898308+475926856
3875+476193625+476254278+476252963+475633363+475462134+476066608+475952236
3861+475324027+475005244+475745942+477179986+476851219+475028681+474823343
3848+475753475+476243008+476096202+475917560+476187437+476163731+475610824
3834+475594293+475875201+475740352+475616474+475584876+475828896+476361745
3821+475858879+475379688+475966495+475602872+474901395+475294044+475952505
3807+475749858+475188012+475809973+476124691+475361005+475373530+475599763
3794+475468561+475518842+475496930+475360826+475254017+475191958+475420015
3780+475643497+475267887+474871621+474989401+475284119+475250729+474774288
3767+474472784+474250437+474194118+474541509+474344601+473804548+474101389
3753+474905460+474551463+473292953+473582799+474861726+473950786+472466312
3740+472999520+473851002+473605159+472889662+472470408+472375586+472686118
3726+472762615+472285248+471829674+471377477+470922410+470739762+471041117
3713+471098542+470092242+468922874+468367784+468156289+467596028+466193611
3699+464544305+463125596+461628268+460244923+459149960+457692808+455672735
3686+454257973+453817554+453368466+452979374+453109022+452590761+451149512
3672+451190705+451890449+451316078+451064526+451542162+451731446+451704154
3659+451854517+451719758+451288517+451866206+452776488+452186304+451082402
3645+450941873+451375476+451452601+451126764+450782213+450385677+449943346
3632+449937875+449783745+448217752+446893147+446825738+446825021+446159565
3618+444791705+443655668+443042465+442240098+441349724+440297867+438894075
3605+437816629+437025442+435867164+434500530+433313554+431988442+430430490
3591+429290925+428392690+426768614+424943655+423863070+422982173+421701631
3578+420180956+418607908+417016476+415613551+414500113+413035548+410864693
3564+408995821+407812612+406561784+405048971+403588502+402167043+400440014
3551+398505914+396868088+395329477+393561644+391842268+390258578+388586643
3537+386772594+384919954+383155379+381403868+379510064+377614916+375875959
3524+374091565+372136989+370264499+368514901+366737323+364955948+363181867
3510+361293564+359273999+357440341+355784368+353917020+351953117+350116350
3497+348304394+346504366+344779011+343053418+341237815+339364339+337547092
3483+335739680+333772877+331801052+329974418+328108715+326168038+324288225
3470+322425361+320514159+318647409+316917271+315217774+313430003+311606837
3456+309777184+307943825+306188936+304545459+302852987+300996371+299268804
3443+297813865+296310558+294625440+292924239+291408317+290029068+288590450
3429+287142715+285790011+284464660+283128427+281801431+280490877+279255295
3416+278016843+276675618+275387902+274273299+273244399+272206203+271112376
3402+269965069+268936857+268124864+267336307+266447309+265528327+264730773
3389+264131859+263606603+263029123+262399360+261790761+261282604+260932643
3375+260706649+260482270+260189972+259886914+259692188+259675388+259856213
3362+260135985+260358900+260550815+260781831+261002265+261229095+261598368
3348+262126852+262671420+263154945+263632102+264224648+265009827+265903399
3335+266774163+267611446+268452375+269287117+270119288+271003833+271997637
3321+273101270+274279546+275527145+276810258+278030445+279158889+280275884
3308+281514066+282948260+284445917+285879901+287251198+288567821+289945128
3294+291459465+293035981+294666334+296320632+297903126+299466011+301122581
3281+302860401+304583513+306246092+307902811+309609004+311414114+313386209
3267+315467205+317527544+319565703+321616536+323631139+325594175+327589527
3254+329698234+331914467+334169293+336414612+338646809+340847079+343074343
3240+345440611+347913419+350374838+352783136+355183124+357636710+360154806
3227+362668479+365124397+367542410+369976805+372488385+375086805+377665704
3213+380164161+382694394+385256912+387757371+390251912+392774851+395258032
3200+397708151+400182543+402630121+404990261+407324095+409725816+412216411
3186+414714957+417109265+419412697+421727519+424061831+426354262+428602272
3173+430819462+433007925+435169214+437276845+439336347+441386284+443434427
3159+445482331+447512358+449466905+451303852+453028070+454721260+456457107
3146+458220067+459979979+461676994+463264212+464831849+466449498+468013070
3132+469441344+470818800+472169860+473444632+474719195+476059613+477411510
3119+478717969+479970590+481167520+482293273+483342321+484349458+485364726
3105+486348875+487276406+488202292+489118225+489994877+490833117+491633272
3092+492383296+493076942+493728318+494337275+494921630+495456572+495908858
3078+496335287+496787095+497243148+497645154+497970603+498231333+498432844
3065+498623264+498819066+498937414+498918372+498816794+498714977+498621770
3051+498478790+498239792+497913058+497484806+496932945+496315109+495676109
3038+494946262+494067159+493026123+491823842+490496099+489042266+487413795
3024+485596100+483604814+481405291+478916012+476123435+473064060+469657772
3011+465773251+461384727+456466195+450952695+444843330+438079272+430525102
2997+422138821+412813441+402178582+389982303+376473079+361937975+346317323
2984+329510444+311789186+294275927+278777151+266480849+257766399+253215943
2970+252622201+254214919+256853187+261300510+269001187+280402303+294101081
2957+307553627+318382255+325350724+328535323+328359639+324932247+318503801
2943+310304384+302893313+298906586+299251855+303082508+308846216+315153025
2930+321469849+328012279+334982332+342218915+349428205+356380322+362773195
2916+368090595+371826785+373890533+374593863+374311401+373372750+372048205
2903+370541371+369226183+368318860+367206768+365037288+361620956+357253358
2889+351979632+345341006+337325463+329140454+322897526+321004440+324860862
2876+333619405+345002793+357176024+369324592+381162509+392553819+403321793
2862+413260526+422310021+430612690+438473775+446242788+454079539+461798541
2849+468994708+475411256+481097689+486171129+490706399+494812340+498589814
2835+502092209+505404810+508662050+511873911+514922375+517791240+520565104
2822+523211922+525616543+527838157+530014991+532092579+533986562+535825840
2808+537742542+539697208+541624732+543483082+545271721+546986882+548557897
2795+550000251+551336125+552484807+553445221+554276136+554969004+555548936
2781+556122948+556693193+557173699+557580428+557942975+558226363+558423181
2768+558569001+558673867+558725642+558797805+558961740+559164895+559361055
2754+559547590+559684442+559759175+559834865+559938356+560023193+560072936
2741+560150419+560386338+560904449+561694770+562600359+563438210+564142437
2727+564774861+565386539+565968443+566600149+567477878+568634332+569873411
2714+571030045+572052278+572950932+573748188+574450263+575106302+575772685
2700+576424958+576995622+577491672+577984972+578481800+578917406+579253826
2687+579488070+579619481+579692540+579760877+579822397+579949743+580316355
2673+580946746+581673095+582406080+583173442+583919281+584561151+585141680
2660+585739667+586336637+586883625+587370170+587790649+588201085+588675134
2646+589182663+589680089+590163943+590599728+590948523+591227369+591493061
2633+591792712+592088536+592327862+592563601+592840414+593114297+593328692
2619+593461239+593526227+593552593+593602934+593719757+593831498+593870061
2606+593873409+593907726+593973731+593990172+593933674+593898579+593893616
2592+593830840+593738051+593704750+593716170+593721789+593736796+593781038
2579+593843097+593929907+594069330+594258913+594469542+594682024+594871667
2565+594999132+595062985+595119423+595204440+595290951+595342009+595344102
2552+595301773+595221718+595159719+595210359+595364967+595548752+595758424
2538+596015805+596301107+596581328+596852819+597139496+597457980+597810662
2525+598204417+598606363+598961257+599285839+599634455+600003339+600362538
2511+600717252+601063537+601408327+601779064+602148725+602521256+602951302
2498+603388164+603731937+604024473+604363823+604727147+605038695+605277663
2484+605479144+605714823+606034562+606392804+606704293+606981703+607278365
2471+607572994+607859910+608188617+608549610+608896671+609236619+609601676
2457+610003921+610406764+610767696+611102083+611439818+611755911+612019211
2444+612260929+612518191+612791775+613053282+613281966+613493611+613709501
2430+613946436+614173147+614317352+614384911+614443682+614526307+614633206
2417+614760193+614891006+615010460+615115505+615256482+615487617+615792530
2403+616149337+616505606+616802327+617047393+617281757+617542845+617842496
2390+618176405+618533451+618856658+619064237+619156070+619192599+619159956
2376+619000863+618753825+618524065+618360309+618265427+618182384+618039433
2363+617994354+618238463+618572850+618730807+618719627+618512765+618816182
2349+620273543+621655573+621559077+620926115+621104399+621604156+621877859
2336+622089983+622477401+622893456+623172301+623510216+624043274+624594268
2322+624969729+625229442+625562813+626028073+626467984+626758129+627026810
2309+627439697+627967853+628466653+628839005+629105833+629360524+629644870
2295+629920188+630163460+630385627+630581309+630748233+630924843+631127281
2282+631305147+631413719+631445287+631421731+631385201+631341318+631274715
2268+631215407+631203928+631241892+631317343+631410072+631488154+631559120
2255+631676243+631878441+632143775+632392906+632588887+632775361+632962673
2241+633144724+633319600+633475703+633651237+633879263+634131264+634371009
2228+634587197+634789934+634960386+635071470+635163840+635278631+635394258
2214+635482742+635532724+635554008+635569613+635562498+635530452+635543366
2201+635670652+635908603+636222065+636588916+636954990+637271620+637565113
2187+637860639+638115869+638307724+638503705+638745482+638987140+639203090
2174+639419278+639643000+639849264+640025755+640183592+640342505+640503989
2160+640627687+640719938+640858763+641040754+641187231+641307522+641459261
2147+641628636+641766206+641869995+641988373+642131323+642250717+642365448
2133+642553058+642811696+643081991+643326638+643529674+643709513+643920380
2120+644179018+644427790+644643500+644874815+645122930+645341809+645563857
2106+645853643+646162621+646408524+646619391+646857701+647119387+647387830
2093+647655734+647908632+648105689+648243796+648330666+648347287+648308067
2079+648264482+648257726+648273570+648263825+648219642+648170378+648141740
2066+648158600+648249715+648489280+648850930+649263219+649724294+650195174
2052+650628867+651014910+651384631+651745683+652059742+652311444+652486978
2039+652630586+652824534+653055191+653298941+653582031+653925865+654343594
2025+654863260+655421309+655934160+656460582+656987482+657392656+657777324
2012+658225007+658642617+659001696+659319582+659625510+659929885+660221823
1998+660486738+660743043+661063680+661338698+661413791+661560806+661822612
1985+662074434+662318304+662506452+662669790+662864993+663102047+663314171
1971+663500346+663763348+664005425+664110709+664278769+664453825+664472299
1958+664461657+664487006+664459804+664355954+664161886+663853327+663503874
1944+663236448+662823382+662309874+662096495+661983917+661877676+661854777
1931+661844255+661899199+662230537+662989947+663893384+664926020+666363532
1917+667366513+668012270+669011186+669998623+670740875+671326785+671910901
1904+672463928+672894572+673264950+673671440+674054673+674279471+674664138
1890+675141057+675159950+675230916+675608469+675917447+676205380+676455288
1877+676574144+676587417+676753863+677342104+677662143+677390352+677509866
1863+678041848+678410074+678624469+678831750+679056608+679215581+679225087
1850+679144375+679247088+679817633+679786185+679081898+679286846+679873713
1836+679948685+680029397+680601018+681030944+680817565+681015698+681349428
1823+681277684+681529505+681932348+682080500+682168207+682477663+682715076
1809+682622526+682567343+682741621+683107336+683370816+683175792+682913448
1796+683273962+683978847+683797155+683064469+683248313+683839066+683885281
1782+683791476+683713035+683421635+683534213+684244719+684417681+683664010
1769+683348456+683367528+683638003+684159164+683992239+683808933+683998636
1755+683966352+684422763+685013037+684785728+684581856+684831226+685245070
1742+685559069+685282616+685014712+686138582+686522532+685173684+684847070
1728+685329130+685521882+685379410+685133747+685679420+686379642+685537845
1715+684328838+684099676+684392750+684720441+684680265+684103443+684219249
1701+684999526+684132559+683507548+683436522+682491294+682320663+682360840
1688+682496137+683252379+682252386+679951017+679421187+680182810+680530649
1674+679657105+679195432+679558218+678848490+678204886+678906722+679190709
1661+678312502+677717266+678600734+680680355+680301486+677555304+678019667
1647+679897269+679559175+678838865+679217912+680244988+681875073+682639326
1634+681973721+682363948+683926055+685036414+685926339+686854946+686998315
1620+687578007+689514677+690563157+690548987+691643981+693264858+694315131
1607+695088891+695965962+696857083+697606748+698309361+699031645+699669150
1593+700181881+700659696+701095422+701458447+701754630+701851365+701763598
1580+702124470+703061687+702661295+701172965+701392263+702097507+701302224
1566+700364290+699959175+700670278+702237587+701008552+698293637+697886071
1553+698103815+697788619+697102029+696438037+696110944+696087209+695941868
1539+693918506+691584134+691487997+691279162+689535423+688345728+687590203
1526+686290679+685236042+684122515+681943170+680149270+678717976+676889818
1512+675174418+673977847+673146871+670215350+665462785+662466874+660692942
1499+657726266+652879896+647078792+641868979+636262780+628486981+619725239
1485+611604232+604243233+597187326+590625317+585099231+580041456+573938309
1472+565863278+557985423+552729753+548919726+544293251+539137964+535717746
1458+535816573+540206890+548700369+559624535+570124874+578396365+583914139
1445+587165759+588933891+590009215+591594997+593318588+594079075+595028787
1431+596370520+597008205+597225769+597643080+598137815+599167701+600418498
1418+600648318+600876763+601782711+602616198+603186264+603802007+604611340
1404+605300262+606118862+607197354+607228682+605525000+602280675+598119879
1391+593903840+588821970+582342048+577010748+575722464+579213589+586760405
1377+596505817+606279987+614525410+621334159+627474015+632663680+636775809
1364+639764547+641110943+641370716+641450412+641308598+640781339+640007101
1350+639053743+638130217+637917616+638929147+640901750+643021069+644655876
1337+646164594+648121293+650490461+653077790+655870188+658880688+662029833
1323+665265728+668593576+671884057+674972458+677924487+680761246+683335363
1310+685577065+687362535+688605381+689457940+690101843+690657979+691197912
1296+691762717+692437111+693273707+694189460+695025995+695619259+695851649
1283+695582550+694719588+693425326+692173930+691638182+692351198+694346340
1269+697237087+700493370+703612502+706305235+708468976+710024088+710967582
1256+711319905+711007938+709938593+708134110+705686742+702473744+698348940
1242+693881917+690131019+687526351+686133022+686492699+689098143+693704410
1229+699480344+705547439+711287500+716314247+720570522+724221696+727323012
1215+729912613+732162267+734187422+735972115+737528184+738949792+740309461
1202+741622796+742880887+744022873+745024181+745935868+746768996+747464555
1188+747987090+748382520+748681274+748875222+749011834+749147431+749243030
1175+749189162+748974109+748631113+748080298+747282982+746259075+745008756
1161+743640178+742288820+740984035+739688875+738326934+736822641+735040698
1148+732801088+730088506+726975950+723519262+719943120+716566786+713541220
1134+710848128+708414570+706198157+704188128+702330495+700426947+698121452
1121+695114599+691197075+685964842+678803471+669091599+656231898+639693460
1107+619371063+596217645+572600582+551630216+535385810+523839742+516048578
1094+511760197+511461383+515561615+523416811+532900178+541173521+545434101
1080+543033605+531475580+509094188+477696543+445060117+422150659+414922686
1067+418682403+421347574+412327943+389494414+359433301+332087550+315080982
1053+312083457+324474998+352193848+393229379+443445428+497265359+549040435
1040+594316727+630785481+658141246+676982009+688144904+692272100+689589411
1026+678864991+656368151+620224578+578339508+548208982+544165129+565380440
1013+599119811+633531962+664104013+690783471+713840751+732840846+747276346
999+757132842+762894606+765178279+764494618+761234867+755642598+747688456
986+737138315+723599317+706069377+682523340+650084928+606506459+553858108
972+502532119+469576223+468277178+498557858+548814023+605012509+657444073
959+701890704+737503611+764865415+785150027+799789400+810208070+817611637
945+822944252+826777417+829452274+831316244+832564949+833226728+833425698
932+833276291+832690681+831629168+830180596+828361226+826055851+823077995
918+819361235+814918664+809705802+803829725+797675641+791897973+787458033
905+785223804+785118340+785581388+784186086+779000008+769030456+754011019
891+734935952+714673102+697239418+685604627+681104063+686061338+703240509
878+730255609+759015944+782480910+798413708+807472410+811089266+810386892
864+805911319+798888952+792684946+791714727+797606527+807420575+816791004
851+823552941+827813819+830316790+831633652+832172748+832242878+831914888
837+831181844+830245644+829336348+828516433+827694067+826725283+825507667
824+824008396+822386801+820808252+819113658+817108651+814783008+812049142
810+808880984+805610891+802846712+801162282+800765776+801349773+802184694
797+802619882+802492117+801860531+800819226+799605974+798352785+796917067
783+795209200+793372672+791573092+789678691+787411818+784783654+782109455
770+779928316+778615221+777796203+776525795+774085422+770430421+766221617
756+763069422+762758472+765244224+768563641+771012385+772252122+772661541
743+772614549+772268205+771669501+770879778+770029910+769236002+768418957
729+767488019+766471824+765481995+764674755+763916660+763050171+762097291
716+761113919+760120742+759170612+758329234+757614543+756922333+756133567
702+755307135+754578036+753961097+753402869+752901019+752374657+751727586
689+751112201+750686879+750366302+750087158+749891058+749683478+749324579
675+748892082+748771731+749108031+749158192+748728804+748965858+749710024
662+750215640+750453232+750592834+750671214+750816197+751254374+751966852
648+752676341+753343321+754111042+754994212+755933162+756888673+757900324
635+759057017+760348649+761650744+762875534+764057637+765262100+766596599
621+768195774+769952247+771654913+773255582+774849974+776563820+778451346
608+780410496+782266993+784086003+786211540+788672839+791129116+793350611
594+795504068+797911978+800338600+802704420+805334377+808042894+810528885
581+812850224+815234936+817890183+820574128+822957405+825009464+827026967
567+829351892+832019276+834725760+837369110+840001937+842441294+844714624
554+847077753+849777960+852605273+855080502+857344505+859787330+862515218
540+865362381+868021394+870314573+872493499+874960538+877551455+879918948
527+882147019+884340175+886559816+888668135+890638106+892687057+894793462
513+896889524+898895308+900825582+902433844+903526326+904628315+905518300
500+905715835+905405243+904896398+904246816+902903229+900809260+898611620
486+896895084+896178839+896719251+898591592+901196977+903165693+903736596
473+902510311+899668350+896986737+896053467+898117423+903705866+912471374
459+924052836+935645896+944569002+951461153+956528495+959940223+962123634
446+963603833+965085407+966251308+967153310+968794216+971375208+974986504
432+980074711+986101749+992227913+998391205+1004498297+1010259942+1017645393
419+1026197523+1032788170+1037952665+1042798616+1047641818+1052615354
407+1057042081+1060493687+1063791163+1067982929+1073741823
##END=
