##TITLE=11
##JCAMP-DX=4.24
##DATA TYPE=INFRARED SPECTRUM
##DATE=16/11/2015
##SAMPLING PROCEDURE=Instrument type and / or accessory
##ORIGIN=Default
##XUNITS=1/CM
##YUNITS=TRANSMITTANCE
##RESOLUTION=4
##FIRSTX=3996.3359
##LASTX=399.24785
##DELTAX=-1.9287336
##MAXY=0.76340938
##MINY=0.11952762
##XFACTOR=1
##YFACTOR=7.1098039e-010
##NPOINTS=1866
##FIRSTY=0.28648564
##XYDATA=(X++(Y..Y))
3996+402944508+403070595+403241324+403344482+403400652+403425467+403404005
3983+403416873+403532984+403727480+403943563+404107124+404211540+404319519
3969+404414503+404468996+404573663+404795112+405047789+405214368+405289358
3956+405303358+405248405+405201038+405325532+405600383+405723201+405623941
3942+405579676+405654624+405752417+405832479+405875612+406009621+406227214
3929+406254963+406132020+406196572+406416344+406503951+406494478+406565653
3915+406641356+406605349+406558779+406521473+406402931+406384655+406623248
3902+406866996+406931255+406836522+406501268+406120325+406180392+406447111
3888+406311090+406119361+406141116+406007484+405996208+406197117+406191835
3875+406143798+406167901+406207051+406230693+405993567+405757070+405808251
3861+405846186+405661834+405242536+405004027+405548448+406167523+405951440
3848+405408067+405172744+405253518+405313376+405207661+405202379+405267812
3834+405170145+405104796+405139043+405093982+405019662+404889803+404853712
3821+405114605+405088658+404804878+404857233+404837993+404465433+404245535
3807+404515440+404684995+404350496+404205798+404256140+404055776+403947001
3794+403947713+403801757+403630819+403531727+403523343+403568446+403502133
3780+403394867+403374831+403272720+402982527+402660310+402567631+402647651
3767+402593032+402395686+402107589+401867864+401928309+402029875+401786126
3753+401477447+401623948+401825863+401285173+400652223+400745531+400691416
3740+400046352+399618251+399712397+399862838+399776069+399425599+398913245
3726+398522074+398313536+398078254+397745851+397336277+396854271+396329216
3713+395944919+395696057+395182445+394280931+393187101+392092391+390945536
3699+389475122+387716233+385950093+384213756+382415633+380821940+379698097
3686+378789500+377929568+377270126+376738784+376165146+375864516+375791329
3672+375354132+374874347+374654366+374269021+373724516+373311967+372992390
3659+372674029+372560936+372550247+372145956+371511077+371103516+370679817
3645+369896132+368994535+368300218+367780193+367217287+366546276+365798808
3632+364912678+364035937+363265373+362241377+360949908+359711924+358671413
3618+357709790+356497041+355079275+353725768+352378087+350946467+349427576
3605+347807119+346189135+344647420+343097510+341512158+340007540+338565315
3591+336907132+334930128+332932814+331143955+329448675+327712862+325928949
3578+324124036+322328092+320570231+318790593+316912995+315007354+313119864
3564+311139883+309076675+307098748+305228716+303378804+301501604+299567020
3551+297546379+295422287+293272583+291209166+289262446+287396606+285473213
3537+283413841+281345939+279357135+277381094+275399080+273448818+271504153
3524+269569233+267727872+265967600+264132213+262153489+260170218+258295764
3510+256460439+254605120+252748061+250884610+249078020+247354363+245562255
3497+243653449+241800897+240100085+238446786+236737716+235000352+233327980
3483+231661519+229873750+228076821+226408642+224793047+223094100+221261374
3470+219416639+217777068+216353727+214904942+213304522+211674654+210120867
3456+208600613+207071075+205547572+204032998+202533996+201070499+199688320
3443+198369625+196998157+195550420+194120728+192788578+191551580+190352139
3429+189187532+188085445+186976881+185820280+184718276+183717922+182764829
3416+181810939+180816307+179810754+178880360+178036419+177191997+176232994
3402+175251502+174541603+174007965+173338054+172535193+171830218+171411717
3389+171182734+170905346+170508296+170068259+169675789+169358947+169096314
3375+168892817+168715884+168475489+168222539+168116615+168189173+168347851
3362+168541949+168811833+169131347+169407361+169605116+169777029+170070858
3348+170506294+170937151+171342910+171777026+172224523+172742421+173432861
3335+174223493+174969284+175659524+176324604+176975557+177702465+178573086
3321+179510564+180458795+181435026+182411173+183338571+184180352+184926626
3308+185690902+186719341+188108939+189574638+190803776+191863968+192961905
3294+194155729+195467465+196893049+198304570+199605701+200876485+202242232
3281+203713170+205202845+206636770+208014380+209409427+210925636+212577111
3267+214271887+215981796+217741418+219497938+221173097+222811306+224543786
3254+226410318+228307471+230180332+232118249+234169468+236278471+238407509
3240+240514457+242552221+244537442+246572565+248807444+251222505+253626018
3227+255942761+258246930+260584297+262927491+265276951+267673799+270127172
3213+272628226+275141834+277600761+280034705+282563257+285169293+287742800
3200+290302727+292920835+295565581+298162604+300696479+303199650+305732016
3186+308334363+310991370+313653407+316241125+318731909+321200372+323717229
3173+326297506+328900775+331458711+333939225+336368957+338777479+341181725
3159+343588172+345944988+348180161+350351620+352617099+354982404+357325074
3146+359610988+361840355+363964259+366006969+368079398+370186200+372248108
3132+374237457+376143182+377994624+379847574+381676381+383419886+385092634
3119+386751131+388430922+390172750+391933148+393568297+395057699+396504640
3105+397920017+399276584+400631013+401989676+403313883+404619814+405849120
3092+406930082+407948880+408997900+410040465+410992573+411835403+412650609
3078+413508067+414373616+415157845+415809532+416350013+416833402+417325217
3065+417832038+418271876+418571165+418720641+418779326+418796973+418758032
3051+418681826+418588476+418367615+417931047+417367009+416761431+416050892
3038+415156546+414136616+413056954+411830372+410353587+408631418+406710813
3024+404603718+402276725+399679995+396749981+393458306+389856317+385966902
3011+381702621+376936214+371564815+365537831+358879658+351576420+343423814
2997+334397968+324342864+312971435+299980596+285567737+270219369+254065142
2984+237139450+220039278+204096985+190912635+181466380+175944058+174261030
2970+175735017+178960044+183153590+188809250+196809529+207371516+219524136
2957+231351919+240852122+246900462+249433792+248768168+245202165+239250402
2943+232074991+225656060+221982958+221759267+224239195+228147850+232575734
2930+237356707+242695033+248593855+254851635+261266584+267562907+273337151
2916+278123762+281505937+283367690+283918106+283472588+282365072+280853768
2903+279175675+277777777+276870479+275864864+274017656+271174034+267507765
2889+262963267+257239051+250505113+243842433+239025641+237982028+241679274
2876+249377581+259425265+270545527+282061655+293536117+304687376+315340303
2862+325320793+334524432+343106312+351407431+359714146+368174928+376649039
2849+384718649+392121063+398872586+404961272+410367461+415221098+419722673
2835+424065926+428358584+432588996+436734651+440791274+444685678+448352303
2822+451839690+455168294+458283792+461212506+464032152+466771023+469481726
2808+472255850+475097921+477955041+480790448+483513306+486036388+488380189
2795+490545801+492467077+494139699+495595988+496853169+497946831+498909083
2781+499748266+500485715+501182379+501845719+502362852+502679076+502887865
2768+503059265+503195119+503346649+503558960+503775630+503931227+504034930
2754+504148358+504311668+504465546+504542799+504574111+504619675+504717929
2741+504924246+505322166+505982404+506912254+508026623+509162874+510161384
2727+510987027+511756585+512615344+513671113+515007979+516624474+518370746
2714+520014823+521430787+522638087+523680526+524635526+525599832+526575707
2700+527530665+528466509+529361148+530199450+530985440+531658086+532159122
2687+532526527+532806282+532978897+533032174+533087463+533373967+533987803
2673+534846310+535854712+536917104+537940723+538891112+539758924+540533764
2660+541240069+541958153+542706501+543384680+543977473+544588878+545247691
2646+545906672+546496363+546974722+547406386+547879967+548391022+548864099
2633+549255438+549578411+549854813+550122454+550406611+550685989+550955769
2619+551213266+551406043+551522406+551612779+551680937+551718746+551773238
2606+551875516+551988106+552055174+552070809+552063641+552034466+551983285
2592+551951806+551947153+551929883+551912571+551930176+551958638+551972303
2579+552002819+552078144+552201674+552382254+552592636+552794677+552993071
2565+553183585+553341823+553456005+553505970+553480527+553424232+553374728
2552+553313109+553248599+553229652+553272743+553379003+553557612+553818044
2538+554188970+554667245+555175869+555661773+556153504+556656888+557119654
2525+557547964+558021335+558551588+559055517+559506756+559946803+560387521
2511+560852299+561357779+561866193+562379385+562927327+563503689+564088728
2498+564660520+565229463+565812825+566361060+566813389+567193536+567574270
2484+567997089+568449083+568888375+569334542+569819608+570288704+570747027
2471+571239596+571718333+572178081+572672955+573191388+573715521+574269792
2457+574829680+575330926+575773279+576209721+576657858+577084408+577459567
2444+577787150+578091427+578393357+578691388+578959784+579183538+579379627
2430+579560039+579724019+579873957+580003313+580083669+580106262+580115987
2417+580165281+580247900+580346070+580514871+580804184+581185127+581627270
2403+582093054+582504724+582869361+583178794+583476742+583762617+584064296
2390+584389531+584692970+584942881+585140101+585296494+585391353+585428156
2376+585463744+585442031+585204989+584903562+584834231+584735935+584357884
2363+583797367+583529642+584182167+585596119+586595593+585829639+583525659
2349+582311401+584337806+587922315+589496893+588633566+587548581+587307263
2336+587716124+588271695+588913992+589648843+590119993+590247840+590588879
2322+591442523+592215812+592414500+592439440+592806803+593400560+593898411
2309+594263259+594625633+595043045+595525638+596019339+596414576+596724219
2295+597007998+597234184+597419206+597624643+597833348+597971843+598054126
2282+598165459+598315522+598425345+598446723+598397764+598293474+598145841
2268+597991502+597876900+597809707+597769592+597762383+597820773+597976328
2255+598223556+598550594+598951323+599257151+599628747+599962156+600247948
2241+600469229+600653916+600898378+601226673+601540633+601746908+601891942
2228+602080737+602318785+602553228+602769982+602982628+603176076+603309498
2214+603401842+603523569+603655902+603712365+603711694+603737263+603804121
2201+603929328+604180286+604564458+605025631+605493846+605889335+606230961
2187+606591617+606953404+607291173+607628355+607974005+608315630+608640866
2174+608951263+609234330+609462192+609651532+609864765+610111951+610365927
2160+610650629+610957840+611227368+611453930+611680577+611904708+612083108
2147+612223195+612361732+612505382+612646392+612793689+612981394+613238724
2133+613577457+613967497+614358794+614760738+615217133+615710373+616171169
2120+616589083+617009723+617443315+617866804+618255545+618600104+618925591
2106+619276480+619677712+620093782+620470870+620862083+621221356+621582389
2093+621916720+622306173+622735322+623062653+623272030+623445986+623610428
2079+623771935+623906196+623957251+623944759+623944298+623991623+624079733
2066+624216299+624439844+624769481+625194521+625694762+626223296+626750028
2052+627290466+627842307+628387398+628908639+629347805+629650699+629842722
2039+629996977+630175587+630416108+630752661+631187678+631676768+632202243
2025+632795078+633452130+634106542+634735258+635363262+635950397+636461871
2012+636944002+637411631+637822671+638170291+638498796+638847086+639200616
1998+639519313+639795799+640056901+640331501+640586274+640785967+640985996
1985+641222577+641446876+641624228+641779112+641936344+642113486+642346420
1971+642608444+642827378+643009299+643203501+643390578+643522575+643615883
1958+643690160+643694016+643582307+643367942+643056665+642636319+642077814
1944+641385845+640655102+639948294+639290654+638704568+638171884+637726345
1931+637458285+637478154+637885421+638779683+640163077+641758447+643373140
1917+645000744+646517393+647873415+649087841+650134849+651053507+651887282
1904+652627457+653263550+653816606+654316092+654807823+655292009+655703049
1890+656085124+656462463+656770261+657061209+657383888+657702291+657990681
1877+658271611+658592403+658894710+659120979+659342051+659584584+659851596
1863+660204959+660580495+660874963+661119508+661371515+661621048+661840736
1850+662037705+662125438+662078113+662082808+662148660+662246160+662508855
1836+662920356+663324312+663665435+664024456+664321062+664470665+664653591
1823+664905807+665143604+665404077+665706929+665983876+666178791+666339921
1809+666517524+666712775+666903289+667068401+667241016+667440709+667608085
1796+667657841+667626403+667653816+667733124+667798808+667889936+667970711
1782+667968363+667953692+667998166+668029604+667970250+667828486+667600959
1769+667429308+667475081+667566838+667595342+667592031+667541478+667608504
1755+667824042+668002400+668136787+668253987+668316947+668378230+668438716
1742+668471328+668534833+668501467+668245520+667935584+667645726+667401642
1728+667265495+667133163+667009465+666923451+666678277+666127359+665362789
1715+664636028+664145135+663863661+663603733+663279671+662880619+662280154
1701+661411085+660239289+658828858+657528795+656461457+655536302+654716946
1688+653686998+652090120+650056422+648117876+646613593+645384119+644140644
1674+642817611+641513189+640370693+639507827+638921992+638557396+638360846
1661+638346092+638639093+639143315+639619872+640056230+640380334+640638335
1647+641147671+641884450+642726735+643857787+645247511+646721614+648359194
1634+650087273+651769243+653576882+655506206+657362342+659203850+661034039
1620+662603336+664053421+665708983+667389822+668927723+670410754+671790124
1607+672993568+674095571+675180012+676241523+677241333+678148212+678950298
1593+679654927+680288967+680876059+681418929+681920259+682416014+682928620
1580+683310947+683453842+683499155+683508964+683448938+683367870+683248909
1566+683194626+683339157+683397464+683008891+682152313+681131586+680341195
1553+679797110+679279390+678734927+678195537+677590587+676620707+675066584
1539+673319977+671848850+670574357+669274001+667878744+666430043+664930497
1526+663260472+661268315+658930968+656441463+654008168+651694463+649502528
1512+647385499+645017469+641713134+637339575+632947866+629094542+625005559
1499+619692928+612999418+605622490+597660398+588114254+576833743+565259308
1485+554537050+544722175+535692912+527734005+520862180+514021415+505561765
1472+495387910+485728087+478183155+472229107+466471567+460261740+454624041
1458+452568211+457242359+467602200+479842112+491376810+501043130+508300720
1445+513017455+515725518+517305168+518565451+519967457+521329347+522246286
1431+522681219+522839625+522978999+523340200+523958982+524711648+525587173
1418+526655559+527930932+529407215+531057705+532804438+534592543+536501495
1404+538614626+540735428+542362235+542536737+540282261+536050801+531228099
1391+525649504+518056367+509172808+502137254+499857292+503722940+513241461
1377+526016237+539446389+552043269+563390973+573750521+582858002+589758038
1364+594048475+596058196+596518112+596233620+595621041+594683018+593312073
1350+591566053+589959576+589462773+590646850+592917213+595217253+597191386
1337+599148124+601439403+604245216+607577426+611351359+615500284+620003115
1323+624780631+629677275+634564404+639374740+644073242+648615392+652904697
1310+656804131+660178425+662933476+665109776+666901319+668509473+670022265
1296+671433492+672791443+674189298+675578351+676757021+677464500+677407702
1283+676341999+674264414+671576053+669161663+668207711+669609758+673397230
1269+678776551+684729509+690489229+695586866+699770289+702987771+705249373
1256+706510159+706707589+705795219+703906345+701176947+697251273+691769758
1242+685600968+680337004+676581807+674549744+675263846+679482102+686696726
1229+695604304+704923424+713735849+721465553+727999945+733522203+738174093
1215+742097209+745436503+748275975+750738444+752941614+754930083+756744931
1202+758372828+759868351+761173318+762353623+763376906+764228664+764899507
1188+765356572+765651250+765869891+766012912+766037727+765919605+765651334
1175+765191083+764487964+763508861+762175894+760454018+758424135+756171335
1161+753777946+751354376+748987227+746703157+744425124+741979506+739115805
1148+735584866+731289776+726287710+720779703+715106375+709566092+704375818
1134+699684526+695470797+691618730+688050485+684682059+681294100+677534544
1121+672990172+667103066+659193706+648552055+634326691+615611783+591886049
1107+563363560+531459398+499212857+470195493+446384415+427709622+413687683
1094+404743176+401952034+406053886+416401445+430502776+444755470+455370168
1080+458740606+451674745+432393788+403235665+372648250+351502416+345004093
1067+348303712+349688553+338625634+313113492+280091105+249268743+227367917
1053+217362172+220825310+239000617+272205176+319070977+376134924+438061834
1040+498709096+553130476+598495012+633515383+657881361+671431983+674062834
1026+664363608+637763484+592722465+540345220+502063815+494449971+517051275
1013+556375917+599337255+640208809+677926302+711852592+740718887+763460824
999+779934795+790751031+796714930+798513765+796640904+791343489+782531819
986+769803906+752356533+728635074+695986002+651068262+592487352+525272710
972+463276636+424633778+421378654+452877644+508641759+575277482+641680900
959+700911275+749742994+787658211+815838656+836263577+850953886+861533877
945+869248825+874949484+879161661+882262697+884423195+885710640+886305865
932+886335039+885791038+884694315+883006309+880585002+877324010+873164732
918+867989800+861585016+853765526+844698831+835090230+825956970+818601923
905+814252508+812686397+811497625+807232715+797040710+779093768+752792388
891+719834470+684548553+652317269+627143798+612166649+613338319+637239058
878+681570250+733187704+778475489+811405742+832102957+842677247+845027881
864+840579625+831550488+822858952+821077722+828990687+842639438+855800188
851+865401830+871570201+875234772+877119454+877737482+877504422+876723840
837+875511845+873964596+872186216+870163711+867913175+865513833+862985219
824+860341332+857597095+854665321+851263319+847150653+842384329+836972732
810+830859189+824527509+819112140+815862549+815402046+817123084+819429034
797+820862100+821025493+820361105+819156069+817366623+815108123+812539268
783+809755629+806879940+803859301+800483959+796655156+792475506+788419260
770+785235982+783101054+781355454+779053108+775381579+770098584+764008431
756+759210334+757968243+760395585+764171237+767055058+768481753+768736106
743+768165362+767131851+765899652+764534408+763025220+761493062+760015983
729+758500340+756909833+755304906+753523173+752080466+750412077+748615421
716+747176738+745891556+744399387+742852054+741517829+740349513+739146572
702+737823916+736395293+734981509+733708735+732566071+731519398+730588501
689+729744372+728935537+728156799+727423247+726717781+726076866+725375088
675+724010599+722733968+725036648+729822002+728705998+722995447+721428414
662+723824738+725645538+726042997+726149299+726517081+727251471+728211040
648+729102200+729951778+730976235+732154109+733415314+734820296+736325459
635+737786442+739185136+740695665+742512944+744510803+746422312+748282263
621+750210036+752135629+754057198+756200761+758574282+761017888+763449171
608+765899065+768485944+771080369+773558767+776239205+779337307+782592850
594+785734462+788784191+791720744+794531797+797456445+800631507+803949507
581+807128257+809966808+812849707+816236450+819842170+823299754+826544063
567+829435764+832299297+835604303+839090223+842390282+845511522+848480351
554+851389322+854507461+857906444+861299811+864355157+867004829+869538306
540+872396389+875593835+878777364+881969109+885235048+888310514+891246312
527+894468908+897985931+901124525+903562682+905735922+908043968+910545420
513+913216134+915826320+917990254+919813234+921603854+923295298+924793252
500+925923256+926408490+926207455+925310510+923704410+921539302+918898684
486+916119070+914291563+914487735+916746654+920073456+922857347+923419457
473+921046523+917012493+913680577+912711199+914928788+920582751+929176368
459+939665230+950477442+959662092+966235048+970582116+973806640+976367027
446+977655982+977429797+976188879+974293550+972135232+970961634+972069255
432+975782953+981992402+990348852+999787772+1008728883+1016447688+1023925972
419+1031799451+1038532111+1042828459+1045649907+1049575874+1055921303
407+1062505325+1067142543+1070336552+1072607711+1073741823
##END=
