##TITLE=11
##JCAMP-DX=4.24
##DATA TYPE=INFRARED SPECTRUM
##DATE=16/11/2015
##SAMPLING PROCEDURE=Instrument type and / or accessory
##ORIGIN=Default
##XUNITS=1/CM
##YUNITS=TRANSMITTANCE
##RESOLUTION=4
##FIRSTX=3996.3359
##LASTX=399.24785
##DELTAX=-1.9287336
##MAXY=0.73764956
##MINY=0.10509006
##XFACTOR=1
##YFACTOR=6.8698969e-010
##NPOINTS=1866
##FIRSTY=0.29334694
##XYDATA=(X++(Y..Y))
3996+427003413+427013391+427155420+427305388+427366252+427380871+427434013
3983+427544288+427683411+427843704+427996795+428114271+428284064+428548255
3969+428756744+428841554+428915692+429061930+429282262+429494395+429607576
3956+429652736+429700152+429804483+430009545+430193958+430144981+430009632
3942+430056136+430166020+430260114+430404876+430499187+430542568+430602434
3929+430581394+430529423+430689066+430965967+431052252+431019195+431056026
3915+431075460+431032990+431107562+431297051+431390624+431435393+431513826
3902+431457474+431319609+431249071+431089603+430891742+431016072+431208033
3888+430969524+430780209+430916209+430869227+430830401+430940068+430882458
3875+430834956+430782725+430690757+430769711+430736438+430576535+430573759
3861+430659653+430687070+430384791+429870075+429848818+430104897+429931069
3848+429632954+429641847+429893978+430025249+429852983+429715552+429731082
3834+429626187+429465417+429349503+429234239+429195326+429095073+429025967
3821+429250681+429198146+428870923+428897429+428936689+428708201+428575455
3807+428787154+428877517+428516370+428349353+428383494+428177651+428013670
3794+427903396+427689267+427541989+427485853+427457916+427429371+427292634
3780+427113254+426998511+426861904+426698141+426601791+426634284+426633893
3767+426409223+426104601+425774602+425494794+425520693+425634568+425468809
3753+425242447+425392198+425603290+425170998+424618931+424681443+424599757
3740+423987303+423528115+423383049+423139074+422761269+422391445+422041274
3726+421797429+421579569+421204540+420784872+420445502+420046180+419381843
3713+418611482+417957123+417236651+416298926+415147507+413868721+412484822
3699+410822852+408880249+406848628+404762651+402520503+400353447+398691302
3686+397499755+396567063+395917085+395427053+394797377+394231559+393823647
3672+393133238+392452112+392082028+391656330+391168684+390825931+390496148
3659+390024596+389693816+389637290+389390105+388779170+388030327+387216282
3645+386358161+385524204+384710853+383902838+383149527+382486317+381734220
3632+380585751+379195042+377913306+376649833+375399288+374210127+372937154
3618+371560284+370065981+368473767+366871748+365226045+363518416+361726584
3605+359789122+357805785+355925716+354106988+352242883+350333641+348417327
3591+346431061+344241837+341854644+339482504+337296295+335237084+333165467
3578+331029124+328840378+326663040+324512816+322311901+319994182+317562545
3564+315137155+312817137+310574837+308336636+306081842+303798481+301472520
3551+299120227+296646033+293987513+291351920+288946355+286746199+284583807
3537+282316367+279966937+277622908+275316577+273078658+270822953+268393029
3524+265906667+263627384+261534206+259405086+257210071+255080583+253014431
3510+250905441+248759294+246616987+244421234+242248170+240238327+238309411
3497+236373445+234443033+232482188+230476922+228487272+226535321+224582524
3483+222568234+220507223+218534210+216683640+214876517+213091886+211285131
3470+209396321+207517141+205765155+204071971+202323889+200564615+198894120
3456+197276636+195626335+193955059+192330743+190766293+189189284+187587548
3443+186015874+184497321+182990069+181465030+180047176+178775211+177510719
3429+176261768+175104644+173953550+172752427+171599771+170535505+169472789
3416+168326390+167130647+166015743+165032349+164133820+163235051+162240487
3402+161241888+160509833+159997568+159393672+158574486+157769204+157232396
3389+156855307+156449434+156005657+155539506+155091152+154725808+154427097
3375+154119644+153726721+153270428+152971815+153009871+153253043+153452390
3362+153537612+153604972+153738249+153934592+154104277+154206146+154389409
3348+154751533+155172741+155540243+155895534+156337467+156929033+157641414
3335+158307140+158833688+159358273+159987146+160672545+161402159+162202756
3321+163054977+163955328+164870983+165739807+166582321+167435973+168284680
3308+169118995+170023728+171147622+172442502+173643810+174688599+175764134
3294+176935009+178153572+179447563+180803112+182127415+183423901+184764266
3281+186156190+187555684+188905919+190202426+191559537+193139127+194939244
3267+196759317+198476816+200130197+201761866+203396203+205065007+206822242
3254+208716171+210675714+212574632+214439062+216385634+218433154+220540279
3240+222667793+224779192+226859898+228955918+231174337+233537779+235963885
3227+238405912+240844880+243258037+245670456+248148099+250695867+253269186
3213+255870573+258497121+261106989+263695666+266304428+268950042+271602705
3200+274253004+276961282+279779856+282665975+285543634+288332774+291006499
3186+293689486+296494547+299369581+302203339+304968988+307731427+310539980
3173+313386123+316221572+319002123+321754216+324533075+327346660+330147838
3159+332859630+335455768+337982019+340518074+343140523+345830321+348485001
3146+351053679+353544726+355962286+358371495+360845147+363298583+365650355
3132+367970200+370314641+372660600+374966996+377177997+379227621+381121767
3119+383003636+385037686+387228949+389397827+391363769+393147510+394896113
3105+396662285+398419390+400159447+401877813+403577438+405215983+406700829
3092+408056877+409401429+410748149+412047889+413297740+414491846+415630251
3078+416756032+417890186+418974061+419929572+420765004+421530375+422226294
3065+422860915+423476014+424006391+424361378+424626957+424876614+425043111
3051+425123149+425130784+424963507+424583185+424084130+423528592+422887594
3038+422091899+421103592+419911916+418481166+416822622+414999794+412993248
3024+410731448+408204112+405416273+402289716+398703059+394651140+390218076
3011+385378704+380001235+373986194+367306123+359939785+351790614+342665783
2997+332613031+321460288+308788232+294249903+278249156+261446815+243892116
2984+225554302+207133306+190080872+176024973+165878713+159730526+157413881
2970+158253738+160911618+164553759+169624676+177135267+187447991+199634027
2957+211744341+221680918+228238027+231281206+230921989+227288871+221034845
2943+213539383+206803523+202786071+202276148+204647941+208640385+213225131
2930+218094456+223441125+229408490+235877210+242586845+249247374+255440711
2916+260610081+264288988+266368436+267108799+266835563+265848775+264391975
2903+262671743+261214184+260333571+259358604+257448732+254424054+250440982
2889+245475545+239262600+232000420+224809450+219434540+217832305+221143948
2876+228732310+238928328+250377537+262324673+274368593+286270006+297752510
2862+308528120+318502222+327863241+336967923+346140126+355528064+364981420
2849+374103236+382596028+390361537+397342369+403623075+409402643+414792693
2835+419887188+424834014+429752816+434662681+439490990+444149419+448595324
2822+452814347+456778375+460493744+464018627+467381221+470630460+473925380
2808+477382674+480958009+484522975+487958883+491240181+494377324+497331095
2795+500036250+502447021+504581151+506456252+508073931+509483077+510735835
2781+511846823+512816693+513680539+514473761+515170591+515732679+516131915
2768+516377842+516559652+516761764+516996108+517238738+517509653+517846420
2754+518184098+518418485+518530842+518565721+518581078+518624979+518731436
2741+518964913+519442104+520258752+521399500+522735549+524099405+525356501
2727+526434693+527362960+528324284+529577389+531256191+533277400+535413222
2714+537421720+539181299+540693778+542003278+543175824+544315617+545513454
2700+546748079+547930429+549018729+550017317+550940335+551758848+552402015
2687+552887146+553280178+553536560+553643667+553763225+554079473+554706763
2673+555685656+556929564+558260234+559522578+560682630+561788890+562823441
2660+563760645+564657634+565522869+566317913+567074392+567845099+568656628
2646+569488590+570255697+570912485+571505547+572086246+572645124+573167301
2633+573677202+574157126+574556883+574906534+575269329+575638372+575975659
2619+576265488+576495711+576671317+576797166+576872475+576955463+577091680
2606+577221476+577266505+577245943+577234620+577215229+577118663+576989908
2592+576922233+576910304+576896769+576860285+576810918+576783501+576819290
2579+576903406+577021619+577212236+577448228+577654939+577829374+577999298
2565+578170349+578318192+578403132+578429464+578441177+578433629+578356237
2552+578220064+578076125+577965808+577956871+578103108+578382829+578733652
2538+579141694+579642051+580213249+580779675+581317643+581852401+582404728
2525+583003951+583643864+584247208+584783137+585294990+585811094+586349452
2511+586924728+587533321+588141566+588721007+589320316+589989728+590710938
2498+591422604+592085466+592721606+593306382+593787000+594208274+594654187
2484+595178274+595742531+596248787+596726022+597258221+597810635+598350381
2471+598907654+599493732+600122367+600793558+601453817+602078244+602703538
2457+603340849+603949485+604509187+605041949+605561784+606044702+606463242
2444+606825430+607154996+607457969+607743243+608043960+608379165+608710336
2430+608970145+609145665+609268043+609334329+609337886+609306522+609261232
2417+609250213+609337496+609511801+609748835+610083649+610527611+611023673
2403+611497090+611905696+612296863+612658834+613017422+613349634+613696335
2390+614097089+614498754+614867102+615245559+615652386+615988155+616156343
2376+616146800+615902044+615302041+614409433+613422818+612376294+611454490
2363+610707859+610301639+610781130+612090196+613199145+612911355+611404906
2349+611011309+613542289+616975638+617808163+616325356+615126304+615018242
2336+615661062+616477753+617224081+617957697+618593186+619148030+619930233
2322+620982136+621820388+622131734+622282656+622771213+623529687+624201877
2309+624693861+625137215+625605557+626110729+626597811+626968198+627247268
2295+627513802+627757993+627971298+628173584+628363419+628510915+628636720
2282+628781569+628898871+628914445+628834928+628696325+628502542+628270670
2268+628037758+627846924+627715523+627633446+627594230+627594100+627677305
2255+627905879+628277178+628738405+629084021+629469288+629791523+630037623
2241+630234356+630435080+630697536+631025583+631332330+631555873+631751001
2228+631972678+632191969+632379115+632555372+632746031+632922028+633044883
2214+633136200+633214460+633251117+633254544+633265823+633280529+633308987
2201+633419609+633652391+634002216+634457370+634956382+635402729+635800620
2187+636196255+636561914+636922367+637313013+637667913+637984248+638324355
2174+638679949+639016239+639316306+639571516+639806902+640054738+640322832
2160+640601078+640847656+641041396+641240732+641488784+641733367+641931358
2147+642114165+642283785+642401652+642481733+642583418+642749524+643010548
2133+643377248+643791753+644200706+644624886+645090278+645591893+646114157
2120+646634686+647131572+647592886+648012598+648415217+648833280+649254467
2106+649669883+650103000+650534511+650906026+651260015+651599428+652035538
2093+652498110+652948578+653367466+653688052+653917494+654119649+654274780
2079+654369090+654435593+654456633+654419239+654382495+654396247+654451297
2066+654564565+654787717+655124050+655546625+656044596+656625034+657286768
2052+657963426+658572539+659113283+659613640+660042202+660368514+660614441
2039+660810133+661004697+661259170+661598756+662021852+662534832+663149672
2025+663840037+664556432+665289485+666042796+666769255+667422096+668023357
2012+668595596+669117514+669590497+670032897+670443368+670809591+671128051
1998+671427554+671710788+671950122+672184900+672424580+672622050+672813057
1985+673033606+673224266+673361914+673505852+673670483+673843790+674064123
1971+674316253+674542789+674752753+674966752+675151468+675275191+675346249
1958+675359784+675274323+675056984+674719090+674284542+673720458+672962982
1944+672040875+671059856+670086603+669191956+668412485+667703726+667078692
1931+666635902+666536819+666945078+667967743+669544383+671382915+673326125
1917+675298226+677079755+678669019+680146447+681425363+682483861+683398246
1904+684205003+684912201+685534241+686075810+686590830+687114048+687611282
1890+688109773+688561543+688881262+689149053+689420618+689693398+689976199
1877+690273966+690630038+691002551+691290037+691508677+691719900+691980229
1863+692346625+692732847+693027447+693251987+693473881+693723973+693993543
1850+694269707+694429002+694372042+694222031+694075359+694064297+694327447
1836+694762428+695214545+695612263+695935972+696146760+696292824+696505565
1823+696737957+696965361+697254235+697561633+697821138+698034096+698222152
1809+698382619+698558616+698790184+699000495+699111203+699191502+699338433
1796+699469401+699453480+699314487+699167512+699132894+699230718+699298653
1782+699238787+699169941+699196360+699239481+699141483+698863454+698486213
1769+698208965+698157688+698152960+698101206+698037870+697960782+698033705
1755+698291258+698546686+698698303+698697825+698604600+698564429+698540352
1742+698478144+698511938+698564732+698358759+697831680+697142832+696609159
1728+696351779+696163722+695965992+695793118+695470233+694736270+693594958
1715+692453907+691653049+691140372+690668820+690143867+689590975+688834410
1701+687642299+685956165+683985669+682159674+680685326+679500026+678474065
1688+677172027+675047658+672192448+669523517+667599308+666018199+664261831
1674+662374062+660621512+659039406+657682967+656720950+656121944+655708740
1661+655558859+655988678+656818817+657354139+657386111+657432832+657858400
1647+658619434+659489701+660537266+662060070+663918514+665755353+667605511
1634+669607633+671798505+674249403+676772965+679104782+681339990+683557194
1620+685545694+687387696+689337153+691276198+693132169+694955170+696626641
1607+698081641+699411791+700690056+701901688+703019054+704052173+705017878
1593+705881378+706616296+707263194+707865279+708420252+708957787+709533280
1580+709958414+709955941+709658217+709430683+709365525+709282928+709013879
1566+708812938+709002252+709211739+708702923+707295165+705762947+704800192
1553+704253244+703708552+703082650+702500433+701873968+700667238+698518054
1539+696119344+694358247+693030527+691528980+689754262+687980324+686252761
1526+684342434+682018339+679205946+676165326+673229472+670462716+667871177
1512+665473811+662859756+658938111+653362824+647807145+643303370+638709405
1499+632529170+624536995+615778972+606504367+595331669+581844723+567846357
1485+554923278+543176778+532390562+522913194+514815777+506782000+496717688
1472+484544276+473097236+464271017+457299555+450590462+443527552+437091716
1458+434276287+438697291+449792424+463477795+476595612+487627669+495876269
1445+501181162+504190504+505976979+507431328+508909667+510238037+511171987
1431+511641631+511733772+511756417+512077350+512778257+513655248+514532890
1418+515454606+516603944+518072478+519816526+521749975+523830226+526078405
1404+528505660+530953261+532903109+533164436+530517586+525538181+520018595
1391+513827124+505310039+495112069+486854749+483944836+488005648+498530711
1377+512818732+527830174+541850360+554546904+566264555+576653661+584620111
1364+589590710+591810604+592200426+591774381+590962114+589740114+588027604
1350+585885753+583873437+583162248+584497776+587193604+589918410+592135354
1337+594227665+596729189+599868240+603621958+607935464+612761474+618000601
1323+623482749+629068057+634695141+640291902+645778908+651082500+656081166
1310+660605461+664472576+667574971+670008473+671995064+673716294+675308421
1296+676855172+678427864+680085887+681731634+683098787+683892660+683826374
1283+682608321+680179590+676996811+674082386+672774665+674127633+678278200
1269+684372367+691207656+697851982+703735361+708564191+712293875+714961592
1256+716507518+716775309+715643455+713295630+709941365+705180730+698567986
1242+691063718+684554871+679850502+677205170+677752422+682450804+690879826
1229+701530433+712709509+723202773+732398945+740257853+746973844+752657107
1215+757427892+761457470+764881968+767844112+770504758+772944767+775156506
1202+777095204+778839122+780348435+781710686+782917546+783898565+784663373
1188+785278429+785756227+786046533+786132601+786085576+785957602+785694540
1175+785181342+784358924+783223816+781742267+779877056+777607100+774952094
1161+772055716+769140164+766353106+763697406+761032943+758124939+754700266
1148+750494215+745386098+739437778+732892795+726177020+719663749+713572618
1134+708055375+703131757+698712358+694672543+690818528+686921871+682670269
1121+677541069+670872710+661947974+649916678+633730651+612366663+585295727
1107+552840988+516755126+480587622+448381369+422397952+402478553+387795635
1094+378495956+375529345+379637962+390198728+404672289+419379500+430365920
1080+433638238+425574615+404339296+372719468+339831570+317077046+309874992
1067+313245872+315111755+304583548+279592992+247294837+217498965+196645138
1053+187274120+190678945+208005460+239829677+285527800+342451741+405707230
1040+469095292+527263791+576801417+615737152+643179994+658608242+661772324
1026+651006626+621058227+570318989+511520945+468365406+458676252+482035897
1013+524351015+571705664+617646612+660652876+699842868+733718856+760828532
999+780692880+793933813+801540503+804288518+802688192+797007966+787238557
986+773030835+753392415+726369936+688896358+637481809+571222833+496413630
972+428352390+385750046+380432963+411934230+470345794+542321218+616021472
959+683373519+739970497+784460696+817815505+842181156+859747872+872376524
945+881661367+888642069+893844843+897636259+900291005+901999350+902866884
932+902980108+902472984+901341780+899371934+896438682+892596945+887801432
918+881739540+874053028+864722201+854095670+842771052+831799641+822898547
905+817681111+815896155+814667951+809920591+798329179+777841879+747835999
891+710338128+670496683+634525087+606726652+590160476+590967320+616434763
878+664677248+721760311+772502368+809750971+833411941+845773800+848721368
864+843569176+832827251+822328954+819851724+828801665+844702028+860228794
851+871572153+878792145+883114892+885448791+886261318+885934225+884855252
837+883289457+881379651+879215371+876876613+874338649+871510986+868406292
824+865131285+861751121+858204462+854239088+849531205+843938782+837441518
810+830141445+822594446+816062304+812129206+811544690+813443131+815922704
797+817408504+817476612+816464880+814661791+812285725+809598964+806598124
783+803329884+799993622+796416943+792313271+787725293+782864274+778147975
770+774284027+771585466+769469079+766740672+762280755+755852380+748560549
756+742908000+741399815+744034779+748216624+751488595+753100200+753252468
743+752386235+751016696+749533585+748045616+746410325+744600728+742754084
729+740911432+739032599+737140145+735075728+733277324+731180372+728923430
716+727056658+725474031+723816745+722081938+720387995+718716394+717072773
702+715536477+714062867+712576155+711105365+709711359+708397217+707121945
689+705868667+704693345+703692587+702897717+702210258+701545660+700673918
675+699039061+697529748+699437646+703481842+701981640+696620264+695314929
662+697530962+699045785+699299260+699458121+699915444+700570107+701311619
648+702115340+703100870+704293458+705527779+706742187+708062793+709554319
635+711132174+712664696+714118655+715700544+717627616+719854972+722118334
621+724313328+726459821+728548878+730635246+732879954+735423124+738158124
608+740917939+743668209+746424901+749310433+752444713+755690482+758842461
594+761911669+765037359+768287727+771629021+774979424+778363752+781878484
581+785368835+788624581+791967177+795748615+799482854+802816339+806108179
567+809370693+812535426+815889647+819402730+822877291+826391068+830031691
554+833686977+837169085+840414160+843587569+846873162+850271372+853653184
540+856921077+860169275+863627958+867256868+870578988+873429642+876356474
527+879779758+883372835+886629016+889613891+892525713+895266353+897799025
513+900346532+903087780+905822173+908158242+909938860+911279854+912187646
500+912658156+912949417+912940046+912010217+909989268+907348838+904515536
486+901849945+900088849+900059697+901719802+904080164+906241494+907192233
473+905578632+901555562+897376406+895535576+897410157+903388757+913350344
459+925988020+938549171+948638212+955658651+960036578+962988050+965254622
446+966287698+965874971+964329912+962168582+960507436+960433341+962176304
432+965769468+971962371+980797352+990647797+1000137658+1008884576+1017016350
419+1025031343+1032425814+1038496122+1043779238+1048724762+1053529559
407+1058909240+1065287467+1071049683+1073741823+1073683432
##END=
