##TITLE=11
##JCAMP-DX=4.24
##DATA TYPE=INFRARED SPECTRUM
##DATE=16/11/2015
##SAMPLING PROCEDURE=Instrument type and / or accessory
##ORIGIN=Default
##XUNITS=1/CM
##YUNITS=TRANSMITTANCE
##RESOLUTION=4
##FIRSTX=3996.3359
##LASTX=399.24785
##DELTAX=-1.9287336
##MAXY=0.82510692
##MINY=0.13008803
##XFACTOR=1
##YFACTOR=7.684407e-010
##NPOINTS=1866
##FIRSTY=0.27205628
##XYDATA=(X++(Y..Y))
3996+354036793+353981644+353989323+354000997+354046916+354222912+354471859
3983+354607832+354600618+354614542+354754509+354940589+355044062+355072528
3969+355125932+355208113+355254497+355315386+355468540+355600479+355604862
3956+355599161+355684173+355805912+355929629+356041208+356055325+356024453
3942+356058078+356047878+355967481+355937890+355982723+356112490+356273284
3929+356315751+356281816+356378424+356567064+356634197+356619421+356666620
3915+356713353+356696327+356735382+356830361+356827646+356783550+356787041
3902+356747715+356726772+356790996+356727586+356536116+356567181+356718395
3888+356586029+356463049+356578079+356587193+356597664+356691751+356643466
3875+356602008+356635865+356731426+356857897+356693807+356390486+356319513
3861+356359149+356283756+356023135+355924510+356436133+356899705+356594057
3848+356046870+355882043+356081774+356249433+356236053+356319281+356459442
3834+356353991+356097753+355864668+355712794+355727493+355764104+355790515
3821+355931491+355854662+355678743+355801025+355817198+355534432+355385506
3807+355608818+355747040+355518143+355444688+355511434+355364137+355226380
3794+355138575+355002370+354922865+354905956+354916854+354925696+354856663
3780+354795425+354784178+354657086+354420666+354235788+354184866+354169896
3767+354071776+353969001+353884842+353860952+353986259+354015812+353739484
3753+353465871+353605334+353836247+353539520+353161581+353258111+353175465
3740+352646118+352308940+352355440+352396705+352256699+351980565+351654867
3726+351441212+351298065+351047062+350720278+350411295+350124651+349847470
3713+349668060+349486750+348998242+348276066+347526471+346780871+345972714
3699+344978942+343787920+342488617+341147467+339829200+338704148+337861745
3686+337107341+336351386+335760490+335376346+335069729+334906919+334718589
3672+334195951+333798156+333751345+333607732+333322639+333092579+332884199
3659+332667868+332613223+332662206+332496060+332236293+332133247+331915015
3645+331322026+330577783+329993519+329602045+329252767+328901045+328525937
3632+327973281+327319597+326719509+325969255+325072964+324261123+323563128
3618+322818148+321827634+320685867+319621801+318642612+317683706+316662321
3605+315499262+314298506+313167578+312044156+310878285+309705045+308489824
3591+307127615+305640855+304201662+302891771+301653667+300430281+299163866
3578+297828204+296465569+295118446+293765390+292364999+290933272+289452853
3564+287886414+286359901+285012023+283747430+282397166+280920684+279375342
3551+277794747+276143063+274430393+272761411+271232320+269804704+268334834
3537+266794902+265298466+263857567+262335010+260668666+258944807+257285347
3524+255765990+254339925+252883551+251342185+249725754+248108820+246617580
3510+245227409+243777977+242166143+240427255+238771557+237285805+235822722
3497+234357312+232963146+231638053+230332292+228940220+227413882+225867746
3483+224367218+222880012+221472291+220152201+218765171+217234508+215605318
3470+213992049+212567768+211323226+210024175+208607515+207237821+205952014
3456+204637334+203279003+201948557+200670333+199414466+198138782+196864591
3443+195627786+194371319+193022723+191649150+190434510+189421677+188450108
3429+187445070+186480385+185535130+184537112+183564826+182717168+181892645
3416+180954100+179975453+179036598+178158981+177456701+176892178+176197538
3402+175294712+174514983+174050074+173646868+173034952+172331683+171871524
3389+171637509+171365369+171002265+170648139+170346738+170103298+169919409
3375+169778976+169648976+169488376+169326555+169288315+169436562+169688282
3362+169938238+170186274+170458723+170723106+170949404+171177020+171543344
3348+172090066+172632618+173066754+173473101+173925328+174540192+175355000
3335+176167986+176891906+177631806+178369106+179046895+179768508+180627161
3321+181555001+182477393+183410548+184400790+185432724+186387015+187202813
3308+188007188+189000941+190251591+191616049+192927724+194157974+195334995
3294+196497143+197729526+199063520+200420726+201762613+203118481+204481155
3281+205849957+207242669+208622815+209962820+211327221+212843281+214540845
3267+216269765+217935179+219600883+221284214+222947067+224627315+226370895
3254+228159405+229991119+231860782+233737174+235676879+237713949+239733876
3240+241682307+243611773+245521596+247461650+249566221+251819369+254083318
3227+256301096+258478521+260635138+262825090+265057469+267276120+269499541
3213+271786411+274113595+276436940+278727475+280969434+283196287+285463339
3200+287802643+290206132+292595777+294871981+297055223+299254230+301500921
3186+303755775+306011560+308285380+310554836+312764741+314909239+317054609
3173+319222648+321370966+323490216+325587981+327667789+329738948+331755773
3159+333646670+335442743+337241569+339088602+340964218+342803689+344577113
3146+346326219+348043369+349678415+351292751+352969606+354645025+356224728
3132+357702704+359142789+360624138+362096956+363412548+364573008+365726992
3119+366951522+368238958+369550865+370792964+371908475+372953324+374007364
3105+375077189+376089887+376994264+377847797+378725104+379605281+380415726
3092+381116338+381733606+382309687+382855555+383390526+383933137+384481061
3078+385041939+385596650+386078139+386454061+386735392+386960526+387193379
3065+387397881+387514656+387588111+387617314+387574653+387480954+387303212
3051+387033438+386742722+386396042+385892679+385283556+384675596+384041225
3038+383287558+382397414+381385685+380225613+378922625+377495416+375901674
3024+374136744+372218040+370075481+367660124+364990739+362029551+358736887
3011+355147689+351238804+346881861+341960007+336427711+330272174+323372181
2997+315744331+307235159+297591861+286580731+274339602+261148449+247060073
2984+232200171+217129058+202900560+190915495+182235970+177209519+175885414
2970+177681409+181193274+185608779+191411935+199409812+209735921+221429320
2957+232602737+241329655+246685761+248787481+247988438+244568527+239003886
2943+232336667+226415806+223170903+223277691+225970695+229979484+234384189
2930+238983544+244033518+249644407+255612177+261667984+267521771+272786950
2916+277048817+279977950+281523427+281924287+281451892+280349955+278891332
2903+277362667+276096582+275173143+274124280+272376240+269748333+266387644
2889+262294734+257183445+251207337+245360395+241204871+240535382+244385356
2876+252052493+261821932+272404919+283186456+293817088+304078798+313755197
2862+322623284+330681294+338169487+345362155+352470238+359611053+366689156
2849+373393238+379480633+384938427+389773602+393988251+397766050+401328332
2835+404721366+407949535+411117822+414270248+417295814+420109316+422742789
2822+425252388+427638348+429857154+431918075+433883706+435792326+437697883
2808+439664639+441673513+443654270+445556065+447332397+448975394+450535473
2795+451982810+453233984+454282788+455157613+455925358+456633650+457247699
2781+457772818+458233714+458618556+458945767+459224538+459441761+459594565
2768+459656424+459653011+459678802+459748688+459807367+459844792+459908086
2754+460014661+460110183+460144506+460109951+460069849+460129420+460291532
2741+460506234+460810059+461294844+461975716+462748193+463506669+464202860
2727+464824627+465402142+466000950+466734333+467700181+468846952+470024321
2714+471140919+472137754+472946687+473613519+474251885+474893353+475531603
2700+476162755+476751052+477267872+477749827+478244657+478716140+479098345
2687+479409772+479678188+479847553+479917982+480010673+480239725+480661915
2673+481275498+481992516+482697123+483347472+483974552+484594380+485159019
2660+485649080+486103188+486529799+486940122+487354866+487761892+488168569
2646+488587579+488992666+489354471+489660817+489908096+490136333+490420340
2633+490748831+491030666+491233849+491412522+491632769+491874193+492057752
2619+492182982+492299951+492415834+492509068+492562007+492588069+492624447
2606+492698871+492794704+492856175+492870718+492861604+492850202+492874441
2592+492922997+492953946+492977875+493006419+493034265+493067192+493119394
2579+493212899+493337353+493469138+493615698+493768270+493910913+494060460
2565+494214156+494335469+494396979+494420908+494481797+494579413+494605436
2552+494540320+494479004+494462715+494487304+494593840+494811722+495094372
2538+495395404+495735452+496129331+496534069+496924030+497314186+497712292
2525+498117689+498509551+498872132+499231455+499586667+499894099+500172482
2511+500499732+500880424+501265887+501675395+502121204+502541843+502924707
2498+503310015+503699627+504072757+504426263+504787874+505174113+505541813
2484+505854325+506144421+506457903+506804389+507156808+507503527+507876386
2471+508265300+508631682+508983558+509357929+509789311+510257614+510700475
2457+511097340+511456431+511793066+512124271+512427437+512693255+512953100
2444+513202357+513436761+513672599+513898664+514099133+514264891+514409163
2430+514562123+514724933+514875915+514980202+515018054+515045047+515132347
2417+515263743+515398591+515546199+515732085+515969359+516267405+516622617
2403+516979419+517266296+517527188+517780673+518073018+518380954+518669537
2390+518903165+519061128+519181509+519324890+519511474+519722530+519979040
2376+520288954+520522892+520524055+520364386+520134986+519769651+519507053
2363+519440579+519509806+520153330+521384026+522077348+520986657+518685438
2349+517676502+519646438+522940072+524438913+523794109+522856030+522469908
2336+522617864+523012790+523521543+524037898+524265592+524275792+524565617
2322+525265880+525827262+525882178+525840525+526162035+526721827+527172794
2309+527449975+527719322+528087410+528533917+528962584+529299413+529580899
2295+529868512+530124208+530335497+530543179+530748728+530926470+531085363
2282+531242356+531387947+531501270+531575229+531612112+531604510+531557234
2268+531515543+531520662+531542148+531554597+531602339+531724311+531913416
2255+532156080+532461224+532802396+533023846+533346287+533691416+533999662
2241+534240658+534437365+534657574+534919281+535176450+535419657+535664920
2228+535874192+536050693+536265085+536507051+536716284+536885920+537038027
2214+537188349+537340688+537491592+537642923+537781921+537891560+538012640
2201+538217491+538515731+538858921+539218515+539574464+539886395+540152329
2187+540411825+540694435+541003535+541315232+541615528+541923503+542235782
2174+542512925+542746708+542954622+543152609+543385733+543665357+543934394
2160+544165966+544389588+544634696+544888297+545103154+545270812+545449795
2147+545676209+545900878+546077224+546228089+546375231+546540446+546776440
2133+547085345+547439084+547835561+548249956+548647790+549014637+549368026
2120+549736502+550094003+550420477+550758120+551137572+551528464+551870606
2106+552153101+552430708+552729918+553029360+553364056+553667493+553991951
2093+554332464+554693494+555025475+555274151+555457904+555617922+555749435
2079+555858182+555994581+556158283+556309304+556441010+556544173+556641130
2066+556809990+557080734+557422837+557801241+558205204+558655356+559143749
2052+559623376+560072404+560485015+560848488+561160728+561432053+561673321
2039+561900511+562134721+562389641+562695948+563074623+563504299+563974618
2025+564484535+564996236+565455813+565874008+566300038+566734057+567161366
2012+567569595+567945090+568295338+568625148+568945416+569279027+569617058
1998+569929609+570211095+570454263+570656206+570846358+571053148+571282471
1985+571523390+571753450+571950428+572123400+572312776+572536903+572774137
1971+572991631+573202920+573428171+573622978+573780164+573963995+574171910
1958+574319595+574361093+574327740+574261770+574160353+574000761+573750379
1944+573408508+573058997+572753001+572487842+572249017+571976723+571692639
1931+571539718+571634426+572015118+572741288+573804559+574987862+576176285
1917+577371728+578450551+579410581+580333536+581165040+581869802+582505065
1904+583100731+583638494+584105789+584505640+584878149+585244763+585582562
1890+585930561+586279723+586553607+586784908+587032110+587313596+587624867
1877+587955724+588312565+588620539+588827989+589029660+589289039+589597169
1863+589945478+590259348+590494604+590711827+590958292+591226126+591500670
1850+591772965+591959433+592033779+592122515+592241655+592409624+592721593
1836+593121755+593498491+593843891+594203137+594476130+594596667+594745748
1823+594997177+595270868+595544364+595826316+596106444+596365746+596604804
1809+596815007+597013730+597231768+597452093+597670014+597904534+598147974
1796+598341578+598431787+598460098+598510283+598643812+598863323+599050800
1782+599130149+599196972+599334380+599504675+599636304+599659962+599522632
1769+599393601+599483500+599680827+599856126+599990780+600065088+600200130
1755+600428328+600630542+600797036+600934871+601019378+601108463+601248081
1742+601435751+601652858+601762070+601696139+601565945+601405190+601302299
1728+601357798+601456461+601525340+601587043+601586966+601438195+601103848
1715+600714545+600469903+600401568+600391096+600371627+600330905+600198190
1701+599926206+599400543+598583777+597763674+597108128+596612134+596256805
1688+595795871+594961536+593764619+592530277+591612055+590965002+590347385
1674+589675549+589011044+588455479+588086655+587912558+587899489+587969336
1661+588123653+588525444+589131116+589677178+590032313+590188336+590331290
1647+590666955+591100974+591602553+592364093+593339055+594343182+595360223
1634+596347441+597328182+598476309+599754515+601001228+602238207+603442841
1620+604481950+605495618+606644831+607771783+608863909+610019288+611112073
1607+612034407+612862615+613667514+614430528+615151191+615864562+616574793
1593+617260008+617915826+618539532+619108089+619614670+620115202+620660566
1580+621154156+621511850+621795547+622020797+622209903+622394431+622495848
1566+622612546+622923546+623265262+623317502+622861648+622065398+621429785
1553+621057005+620745229+620442529+620187842+619943200+619474160+618520878
1539+617263344+616125532+615174848+614222690+613183077+612148739+611170984
1526+610128423+608827530+607190467+605376167+603607281+601941053+600342346
1512+598790916+597096377+594748463+591561055+588268003+585371700+582346405
1499+578403507+573375621+567816564+561858393+554752327+546355413+537772186
1485+529913190+522814726+516319994+510570087+505526533+500360114+493865033
1472+486054632+478637217+472819518+468197455+463681619+458795910+454513469
1458+453487972+458231930+467487380+477931486+487538425+495478555+501398175
1445+505285807+507637483+509134540+510363724+511663609+512866575+513684855
1431+514142260+514372940+514561812+514961780+515631909+516451429+517419333
1418+518568391+519822435+521138298+522511677+523914569+525311450+526722719
1404+528209266+529711015+530930154+531115691+529426233+526110144+522184194
1391+517595136+511507779+504550562+499184024+497753518+501390341+509594078
1377+520315985+531445035+541835039+551191014+559689811+567043040+572464689
1364+575722332+577230985+577647319+577550323+577206319+576625468+575746649
1350+574613375+573605564+573428869+574483879+576338824+578233638+579892575
1337+581522075+583388034+585645584+588333314+591389557+594707896+598210453
1323+601835253+605532733+609267716+612967328+616556991+620022705+623329408
1310+626340974+628924029+631050686+632808713+634341062+635720219+636957509
1296+638101874+639249110+640438619+641585544+642534444+643099898+643060262
1283+642247025+640719988+638825679+637221038+636770575+638103154+641213423
1269+645521112+650254404+654766944+658655157+661780202+664184429+665904991
1256+666900857+667115482+666508142+665161601+663189493+660411167+656639457
1242+652463630+648953278+646568016+645487836+646358007+649635352+654971717
1229+661462260+668143693+674335685+679689658+684209877+688063652+691294418
1215+693950035+696199286+698170773+699926085+701521534+702997532+704365093
1202+705601723+706786306+707841743+708799447+709632657+710321363+710886972
1188+711344998+711688071+711878262+711904479+711872755+711857242+711767188
1175+711479031+710945922+710190588+709239710+708053265+706576724+704867951
1161+703080062+701321337+699635136+698026346+696415616+694642542+692531436
1148+689978361+686949032+683424602+679500398+675431301+671462496+667761759
1134+664388737+661223746+658190927+655371491+652701834+649930722+646808392
1121+643050411+638266353+631990860+623629432+612401137+597567549+578696589
1107+555776970+529723503+502882705+478147545+457247931+440403297+427574201
1094+419438528+417130212+421311313+431222969+444399676+457494241+467189334
1080+470368480+464176565+446917925+420441220+392217232+372549710+366784950
1067+370138309+370934870+359262511+333595515+300536643+269374059+246990671
1053+236909728+241070663+260616387+295444183+343534048+400585175+460608698
1040+517354023+566228406+605134549+633823001+653013571+663403497+665256154
1026+657326845+635704745+598632953+554791770+522697020+517598161+539301394
1013+575169909+612916368+647330060+677704907+703917927+725411849+741745247
999+753069297+760013910+763287881+763446735+760832693+755605773+747780790
986+737141955+723062073+704282330+678563559+642782344+594867332+537799412
972+483217356+448852646+447776305+479736052+533374715+594379715+651902365
959+700494797+738712273+767271267+787888852+802561957+812987486+820363131
945+825626740+829476171+832301346+834293234+835594941+836363152+836709871
932+836642311+836129524+835219446+833941861+832196865+829874703+826913012
918+823183498+818548714+813000284+806639741+799828774+793332491+788163978
905+785129220+783955728+782867869+779426899+771562357+757757213+737312367
891+711303112+682962000+656489523+635323005+622726064+624234523+645163728
878+682872877+725817673+762602743+788622546+804623886+812869508+814968591
864+811952371+805624716+799702109+798924979+805231148+815553670+825208118
851+832059807+836447388+839149157+840628878+841213956+841180913+840706366
837+839885023+838856036+837725206+836477561+835133658+833691091+832062289
824+830270211+828361784+826246102+823796034+820934015+817638403+813829306
810+809408759+804722162+800765845+798670796+798844155+800578757+802694362
797+804271660+804844948+804491016+803539517+802255883+800842946+799297216
783+797520419+795498513+793229717+790812769+788289867+785506887+782691019
770+780478768+779035193+777890711+776294486+773576118+769637254+765222525
756+762027050+761705695+764076569+767244119+769610572+770848675+771242399
743+771069583+770523055+769769892+768918143+767993792+767024376+765982125
729+764878055+763817965+762764312+761468965+760573314+759537424+758326778
716+757355733+756527254+755593751+754630540+753752186+752917889+752078628
702+751275978+750476508+749616382+748739347+747925605+747228755+746695025
689+746329303+746038974+745695358+745293956+744948556+744738818+744397141
675+743217522+742074669+744551187+749613512+749002450+743634670+742127026
662+744717875+746942537+747687168+748005575+748485242+749256865+750296013
648+751413269+752456916+753451541+754489215+755667050+757085262+758706385
635+760367067+761989819+763567660+765137435+766780121+768639992+770641730
621+772629429+774639389+776713341+778711899+780597986+782640834+784946475
608+787309902+789689695+792177072+794820046+797655461+800551144+803301158
594+805968953+808816623+811783511+814606282+817331631+820150601+823166588
581+826220117+828925144+831485743+834503359+837770582+840859946+843815355
567+846516115+849073224+851984807+855198277+858259252+861043473+863662324
554+866261241+869057795+872093096+875176876+878137171+880935974+883658220
540+886461522+889326489+892039505+894661303+897373776+900193212+903114414
527+906033754+908780976+911244696+913523731+915799121+918053103+920292968
513+922652594+925098319+927342294+929136700+930651403+932250420+933833846
500+935039295+935757863+935882744+935271681+933988900+932347454+930803509
486+929720924+929400268+930101617+931732591+933822366+935651986+936271581
473+935291693+933520170+932119256+932079697+934329568+939331160+946875666
459+956077441+965207079+972612743+978046763+981781940+984052133+985339879
446+986019897+985967695+984862229+983234823+982326373+982858164+984904735
432+988524184+993635996+999899892+1006947435+1014242334+1021138701+1027532132
419+1033925407+1040065431+1045250000+1049495482+1053235545+1057451629
407+1062446317+1067536644+1071918176+1073741823+1072599590
##END=
