##TITLE=11
##JCAMP-DX=4.24
##DATA TYPE=INFRARED SPECTRUM
##DATE=16/11/2015
##SAMPLING PROCEDURE=Instrument type and / or accessory
##ORIGIN=Default
##XUNITS=1/CM
##YUNITS=TRANSMITTANCE
##RESOLUTION=4
##FIRSTX=3996.3359
##LASTX=399.24785
##DELTAX=-1.9287336
##MAXY=0.78268588
##MINY=0.12391551
##XFACTOR=1
##YFACTOR=7.2893303e-010
##NPOINTS=1866
##FIRSTY=0.28042027
##XYDATA=(X++(Y..Y))
3996+384699641+384744983+384701481+384719389+384864816+384953495+384977495
3983+385101703+385329963+385535532+385651195+385729531+385808480+385844172
3969+385863224+385981750+386222398+386458549+386610395+386732068+386849572
3956+386901618+386851984+386765471+386765185+386872140+386950925+387043979
3942+387297261+387508922+387486149+387338227+387218925+387289983+387529200
3929+387677858+387722422+387840988+387928318+387873615+387877662+388014218
3915+388090059+388051177+388017284+387930853+387696910+387562440+387704147
3902+387905914+388053467+388121990+387937068+387651855+387730272+387975213
3888+387840539+387714368+387899699+387904891+387791436+387713591+387537459
3875+387507286+387558433+387518693+387502135+387357975+387234175+387373266
3861+387481856+387296852+386810526+386505403+387025417+387665470+387450947
3848+386840454+386544080+386656840+386823937+386848672+386966748+387103794
3834+386973289+386789593+386743966+386743884+386759052+386667797+386660724
3821+387017486+387135970+386922674+386905257+386781989+386352003+386061802
3807+386208579+386285565+385947202+385864328+386047002+385976435+385858850
3794+385766450+385637499+385621513+385635782+385550292+385382010+385153136
3780+385045486+385143487+385164134+384932031+384618076+384509241+384571222
3767+384556258+384472362+384316428+384148473+384172063+384199456+383946747
3753+383663496+383793919+383987795+383549060+383095687+383337072+383354897
3740+382677354+382115391+382115391+382326030+382333594+381966039+381378605
3726+380952585+380729108+380456652+380118084+379769991+379352842+378881563
3713+378574967+378383912+377883686+377010917+375995746+375022196+374038424
3699+372791150+371301020+369754223+368146671+366515897+365201980+364341354
3686+363557182+362663726+361883152+361278628+360721981+360437136+360343428
3672+359914301+359489221+359350867+359067248+358621890+358276658+358000276
3659+357708522+357583864+357555572+357192964+356683007+356513335+356414353
3645+355905663+355151419+354513738+354007788+353466146+352867959+352211389
3632+351409147+350668681+350088320+349213957+348011901+346849749+345859273
3618+344925176+343803214+342539443+341346627+340190996+339023120+337831183
3605+336504838+335037623+333560229+332139296+330753095+329361272+327887250
3591+326283992+324657490+323134284+321647955+320089057+318467666+316811175
3578+315134834+313475113+311870117+310261298+308560140+306845511+305199323
3564+303483366+301636576+299863727+298254356+296629285+294855373+292998832
3551+291134708+289232519+287293657+285378120+283550853+281832606+280117138
3537+278331942+276560278+274841438+273104609+271319801+269472889+267573419
3524+265733519+263985527+262228010+260413540+258596658+256860237+255205504
3510+253543780+251834814+250048922+248163129+246371493+244809344+243283398
3497+241681939+240091211+238504756+236837860+235096656+233378654+231758734
3483+230164981+228508184+226904168+225469682+224049670+222388559+220499760
3470+218663928+217091006+215743114+214406792+212944586+211437488+209999834
3456+208600836+207170356+205705738+204240609+202838197+201513017+200190616
3443+198821301+197418173+195964614+194490613+193180846+192071027+190991667
3429+189945157+189014945+188093891+187046850+185926053+184904075+184024233
3416+183123253+182126930+181155281+180273804+179422192+178567638+177736776
3402+176930056+176233787+175679654+175103873+174409075+173752546+173356699
3389+173140480+172833843+172367163+171874827+171485747+171220936+171019557
3375+170854893+170653965+170311758+169995739+169999449+170280093+170541051
3362+170675705+170823422+171082632+171419943+171736166+171990164+172301992
3348+172759310+173257574+173685965+174087005+174541297+175105549+175823957
3335+176624483+177408143+178161712+178863848+179533563+180295554+181221515
3321+182245394+183268906+184214552+185081699+185968430+186890425+187744980
3308+188564271+189582713+190889720+192237183+193412888+194516350+195682059
3294+196875202+198098354+199447330+200884187+202280241+203641073+205033939
3281+206450517+207876990+209306243+210688948+212045814+213548292+215284610
3267+217057889+218694142+220289203+221950355+223649325+225392512+227287116
3254+229288778+231148344+232851402+234673375+236714408+238816871+240888302
3240+242970752+245053631+247070992+249099576+251312264+253633564+255838525
3227+257973103+260224632+262597282+264980093+267338413+269691295+272037943
3213+274399964+276815870+279288484+281761384+284189188+286600127+289001193
3200+291401849+293885502+296448554+298970843+301437467+303920466+306399355
3186+308839670+311295317+313770588+316195735+318588215+321015773+323459482
3173+325839921+328151183+330481619+332849813+335190594+337501999+339792001
3159+341989030+344078982+346139947+348222581+350345404+352488507+354602418
3146+356658640+358629044+360501244+362349076+364290289+366309837+368258450
3132+370050474+371763386+373510723+375250292+376879636+378394460+379830786
3119+381244339+382722818+384289239+385832193+387246359+388580677+389921210
3105+391238806+392462408+393617283+394776409+395934391+397039550+398059504
3092+399000633+399933584+400875898+401712934+402402621+403056206+403748836
3078+404464444+405183241+405886951+406545238+407095180+407487348+407789650
3065+408064315+408299321+408498512+408630120+408677915+408692920+408647783
3051+408476393+408195392+407819374+407345396+406808291+406219876+405539430
3038+404688452+403631701+402461495+401254942+399929782+398340547+396443735
3024+394333340+392095589+389685550+386996471+383939551+380481510+376680608
3011+372584845+368102188+363079565+357483287+351310573+344406797+336579739
2997+327983330+318531323+307865793+295628281+282014686+267527975+252251185
2984+236145230+219817882+204582733+191923310+182779146+177435413+175908016
2970+177539465+180927614+185259875+191007469+199067652+209617499+221643412
2957+233221656+242363735+248049551+250357521+249656898+246188186+240382802
2943+233396132+227240753+223822615+223752805+226354615+230380485+234827020
2930+239487791+244611972+250300916+256420337+262730628+268874150+274395323
2916+278887956+282057145+283815991+284346983+283910067+282784589+281267884
2903+279634002+278311745+277464202+276477752+274679432+271937060+268380486
2889+263994236+258523413+252111563+245791787+241270167+240425056+244230271
2876+251955424+261932597+272853678+284088387+295286034+306127369+316375117
2862+325915435+334741944+342990014+350904178+358745035+366666435+374575488
2849+382175451+389195177+395502320+401075498+406037816+410574441+414777935
2835+418720094+422555871+426388581+430174150+433849290+437367187+440674322
2822+443778505+446711584+449468900+452067460+454550806+456929732+459275174
2808+461744333+464354913+466963816+469457588+471811289+474040903+476111967
2795+477938620+479525402+480957844+482243837+483332805+484242493+485025888
2781+485697053+486302844+486902216+487462298+487898989+488168625+488328444
2768+488442839+488505066+488564022+488694568+488871395+489054927+489243161
2754+489404860+489504333+489546322+489559773+489587084+489659164+489763216
2741+489908235+490208084+490794986+491657207+492663588+493680149+494602838
2727+495385579+496076615+496812706+497756165+498956380+500343849+501846817
2714+503331305+504614272+505673149+506614032+507482386+508296362+509118189
2700+509966264+510778278+511507255+512180546+512817778+513376224+513836342
2687+514220128+514512905+514677262+514742841+514817947+515023475+515471614
2673+516219807+517165719+518128966+519022954+519855206+520644448+521375633
2660+522035310+522631288+523173544+523691228+524231726+524808816+525391425
2646+525955309+526475855+526930903+527357455+527775789+528154219+528495976
2633+528810217+529080629+529328310+529598027+529895669+530186033+530428603
2619+530617532+530780744+530931609+531030183+531053119+531074297+531163426
2606+531303375+531413764+531413028+531344669+531310694+531297897+531249325
2592+531198383+531205906+531255254+531312533+531373452+531427543+531489401
2579+531563894+531637650+531759364+531946044+532130353+532288251+532448969
2565+532609565+532729235+532775639+532791625+532861906+532946006+532905121
2552+532767135+532703927+532761043+532854506+532951771+533101001+533353424
2538+533724822+534171489+534632261+535091071+535547305+535997856+536426207
2525+536821236+537236463+537716697+538196153+538581943+538923004+539347716
2511+539855220+540366321+540849621+541310271+541767323+542248497+542780000
2498+543325036+543810053+544235215+544645576+545069552+545511231+545922206
2484+546272834+546638099+547066573+547506535+547925359+548331346+548757693
2471+549223249+549686188+550132119+550591665+551069895+551568731+552088214
2457+552594083+553053669+553452583+553820179+554212673+554616248+554973050
2444+555256750+555489630+555729910+556007069+556276418+556490164+556683999
2430+556883313+557037612+557138598+557239175+557343758+557409256+557429576
2417+557442986+557511304+557677297+557925345+558229610+558574515+558943746
2403+559327083+559713117+560106103+560428562+560703144+560974456+561274020
2390+561546313+561707072+561773019+561839662+561974132+562152594+562324474
2376+562443122+562415934+562155579+561762185+561421287+561069023+560734585
2363+560392951+560200628+560799265+562250554+563391569+562747469+560508083
2349+559315144+561245441+564563411+565900305+565109142+564311315+564290750
2336+564765872+565285805+565842248+566487166+566857378+566854394+567063274
2322+567815760+568558311+568811429+568909307+569297509+569891771+570445556
2309+570890383+571264030+571628641+572057073+572511795+572891165+573233903
2295+573577459+573842597+574048452+574276140+574516134+574709683+574851553
2282+574989213+575135172+575218740+575188894+575109455+575055201+575017791
2268+574972573+574937371+574898571+574826246+574774894+574823220+574991257
2255+575273362+575670477+576130146+576428809+576736182+577016734+577257668
2241+577459966+577685651+577941794+578192255+578460623+578741666+578973933
2228+579157301+579336050+579523630+579720981+579928676+580126354+580308946
2214+580492764+580645551+580749153+580851406+580943929+580983832+581032567
2201+581184495+581437327+581764569+582170393+582604794+583006856+583375515
2187+583711792+584024439+584345140+584667967+584974930+585287658+585617967
2174+585922191+586166438+586395924+586654235+586930330+587205853+587461261
2160+587701868+587936711+588150007+588366493+588613274+588858133+589076949
2147+589270661+589416784+589542341+589725914+589940396+590131982+590358893
2133+590677509+591075564+591502402+591900825+592275903+592665862+593076714
2120+593506046+593931944+594314626+594676334+595060202+595444070+595782188
2106+596075782+596384831+596756842+597166958+597574784+597873203+598180821
2093+598550256+598984617+599397922+599702596+599905916+600039896+600131764
2079+600235366+600378463+600520457+600602553+600622505+600639799+600715477
2066+600893449+601193217+601577943+601985238+602395068+602855718+603413265
2052+603996078+604501824+604956627+605417399+605827352+606117307+606324798
2039+606523825+606760467+607054797+607395654+607766562+608190497+608701026
2025+609281713+609885010+610455804+610983341+611537658+612120431+612629488
2012+613053628+613458756+613850923+614222240+614590285+614934086+615223019
1998+615502917+615798596+616040798+616248861+616492657+616734573+616949914
1985+617168689+617393964+617606852+617797130+617975469+618176582+618423240
1971+618664993+618873219+619081405+619288855+619489231+619670106+619786178
1958+619842313+619862306+619803472+619624519+619343068+618999799+618585921
1944+618078458+617536979+617012222+616512078+616046154+615609872+615249308
1931+615052407+615107274+615483987+616275804+617515106+618972324+620482570
1917+622022539+623408617+624580950+625647635+626627564+627488967+628226284
1904+628882364+629488604+630019821+630473112+630915077+631349397+631716011
1890+632090312+632508319+632858906+633142320+633415554+633695247+633986715
1877+634276425+634564868+634803881+634987904+635240981+635575255+635911779
1863+636264983+636608416+636892320+637146665+637403381+637644561+637859002
1850+638059256+638149570+638124099+638190047+638335597+638485399+638745140
1836+639119155+639492107+639804467+640105502+640349135+640506582+640751728
1823+641080442+641358623+641605731+641871196+642118672+642317659+642535453
1809+642801450+643061191+643260873+643386716+643511292+643704882+643912128
1796+644016670+644030530+644088464+644200693+644299757+644409410+644505571
1782+644532024+644565836+644667516+644742172+644735589+644691556+644563750
1769+644437294+644495963+644597848+644628839+644665635+644728966+644898516
1755+645109645+645197956+645274207+645443347+645595848+645682237+645733752
1742+645812374+645946599+645914545+645625939+645378545+645260142+645182870
1728+645175592+645160547+645103758+644995208+644705048+644209851+643639630
1715+643142511+642812775+642612275+642396935+642138992+641849936+641374077
1701+640662068+639749395+638681237+637722365+636924701+636177081+635484573
1688+634588254+633206755+631535873+630024114+628857628+627852392+626811464
1674+625742447+624716442+623834760+623200677+622783079+622525341+622425950
1661+622528489+622899928+623365688+623723267+624099857+624442432+624666971
1647+625090170+625795884+626630139+627634149+628742824+629898475+631300376
1634+632858130+634341269+635892277+637547337+639143563+640741262+642353106
1620+643743682+645036706+646537099+648080012+649494055+650838799+652081167
1607+653178271+654171119+655105420+656012124+656905867+657764326+658548007
1593+659219827+659804153+660376091+660937849+661433864+661898643+662396948
1580+662790915+662970236+663087493+663189092+663224948+663269758+663306595
1566+663358028+663492621+663472506+663071385+662361951+661573977+660991817
1553+660612283+660221751+659760774+659244399+658618819+657695271+656371501
1539+654974221+653777766+652653228+651467240+650202345+648879147+647513797
1526+646024485+644251104+642174235+640000387+637896493+635872897+633882459
1512+631851136+629530266+626454784+622641331+618899345+615494045+611726137
1499+606838557+600773616+594126269+586914876+578261514+568098602+557718713
1485+548105375+539291704+531167147+523976400+517730093+511494049+503824663
1472+494645563+485890112+478971862+473492556+468224419+462499558+457274760
1458+455561439+460393088+470514012+482131730+492902601+501906223+508705007
1445+513169061+515778741+517309593+518502449+519859172+521224440+522144390
1431+522579324+522756151+522899411+523231233+523818993+524569926+525503368
1418+526656280+527916433+529247071+530714511+532306240+533946377+535669796
1404+537545512+539416730+540878854+541053146+538958247+535012122+530565894
1391+525435826+518415364+510236758+503852219+501934474+505760234+514847425
1377+526904778+539495760+551307273+561987542+571707222+580148514+586431494
1364+590285914+592149895+592679436+592486296+591947393+591150056+590007611
1350+588535429+587198330+586876894+588054827+590165672+592271691+594104519
1337+595978599+598178163+600807019+603892885+607412703+611279307+615398415
1323+619698848+624141478+628665224+633146613+637505675+641695678+645618989
1310+649162070+652225654+654733163+656717919+658361040+659841440+661224861
1296+662533790+663837076+665177773+666482327+667582088+668231176+668173978
1283+667234281+665412738+663042356+660903670+660086177+661451118+665038928
1269+670066334+675540694+680756293+685319370+689058249+691977265+694065827
1256+695204633+695306437+694398221+692662086+690208831+686683166+681744194
1242+676210878+671579442+668389605+666769870+667576855+671452208+677972484
1229+686021486+694412694+702285318+709151930+714947686+719865643+724011613
1215+727476686+730445581+733033838+735295506+737334843+739220780+740899430
1202+742318544+743670933+744963548+746154851+747151542+747941683+748550377
1188+749027749+749399228+749602999+749628674+749588443+749516650+749313207
1175+748900351+748287733+747467991+746350526+744872212+743056352+740969343
1161+738725828+736479205+734374207+732413696+730419578+728208280+725599336
1148+722385540+718499026+714021562+709130588+704097090+699160162+694490457
1134+690203843+686298440+682728947+679455337+676327564+673106041+669543294
1121+665254064+659684647+652279500+642408873+629234260+611906521+589934917
1107+563479880+533787457+503569337+476123414+453411631+435467104+421890265
1094+413191848+410546435+414699764+424871957+438515929+452186312+462336387
1080+465530066+458645588+439973637+411811739+382244506+361725623+355376327
1067+358473805+359524586+348287424+322786905+289740759+258774037+236672256
1053+226597839+230347144+249117974+283035418+330565188+387921245+449427974
1040+508833017+561295607+604364083+637194051+659711631+672017809+674274326
1026+665183619+640350239+598172644+548947521+513025268+506434589+528780739
1013+566884199+607963299+646463792+681467812+712594598+738900488+759505965
999+774232282+783662456+788626368+789780547+787545372+782108340+773462093
986+761379473+745118257+723127682+692926284+651400802+596954275+533781284
972+474768899+437787769+435315544+466908622+521689015+585972889+648909524
959+704203145+749291047+784029683+809676918+828170528+841436601+850939469
945+857805263+862844975+866513328+869138381+870982370+872166069+872745407
932+872731997+872150287+871105025+869579202+867397014+864448643+860698193
918+856006820+850162002+843085242+834987261+826415096+818217274+811599732
905+807669880+806193855+805031662+801119962+791864448+775504455+751338152
891+720885475+688180043+658121414+634475208+620490256+621973804+645025013
878+687154160+735630517+777604301+807799976+826729746+836474079+838749076
864+834813336+826693931+818889993+817389273+824747485+837367822+849467532
851+858107156+863558743+866924466+868800673+869490073+869300613+868518485
837+867420645+866138905+864626002+862899025+861029851+859014146+856796960
824+854387698+851897728+849309798+846309667+842625288+838327553+833494473
810+828079437+822412632+817527873+814735192+814579175+816317927+818528734
797+819959868+820135346+819402198+818162161+816504443+814535265+812358555
783+810038258+807631612+805033788+802065793+798653297+794914459+791310377
770+788472886+786551380+785022286+783012877+779698669+774853241+769262482
756+764914623+763940582+766358758+769931031+772664266+774087386+774390015
743+773874294+772968204+771960964+770834505+769531586+768173391+766847250
729+765552263+764236915+762814776+761235394+760112614+758753111+757107087
716+755710297+754511553+753227359+751917654+750706154+749537337+748351758
702+747220720+746152480+745086367+744024096+742986520+742002912+741121926
689+740346912+739656939+739023306+738428186+737866592+737376055+736797289
675+735470575+734059557+736176493+741157005+740630163+735197301+733540319
662+735889809+737859641+738450673+738647410+739005235+739702158+740640465
648+741495695+742263104+743257260+744543252+745885829+747193654+748596495
635+750184136+751926976+753740873+755559513+757271280+758899561+760625801
621+762562517+764666043+766863113+769079808+771213017+773313844+775588105
608+778142264+780829299+783387791+785916111+788696363+791626090+794521964
594+797345309+800119919+802939093+805843962+808835671+811910376+815041011
581+818140328+821090334+824091610+827459541+830825346+833796775+836656589
567+839541343+842517270+845731637+848913052+851877367+854759831+857599203
554+860482158+863615982+866953004+870238021+873327689+876240735+879222713
540+882499226+885753906+888560651+891077604+893633644+896320597+899115404
527+902045294+905136108+908111708+910749272+913158207+915488154+917853915
513+920345275+922890112+925227172+927199866+928844337+930251103+931560400
500+932757099+933502021+933401935+932482353+931088507+929253267+926914653
486+924638757+923369364+923719175+925525386+927873730+929684194+929967117
473+928246273+925390956+923040650+922579141+924841464+929954115+937746687
459+947921047+959009021+968403216+974730638+978352546+980488861+982074785
446+982758298+982165713+981070081+980148699+979261825+978699740+979541968
432+982727144+988336219+995429251+1003236051+1011725137+1019840373+1026237871
419+1032093809+1038896804+1045590228+1050974436+1055450510+1060390219
407+1065676140+1069975674+1072943342+1073741823+1071978459
##END=
