##TITLE=28
##JCAMP-DX=4.24
##DATA TYPE=INFRARED SPECTRUM
##DATE=16/11/2015
##SAMPLING PROCEDURE=Instrument type and / or accessory
##ORIGIN=Default
##XUNITS=1/CM
##YUNITS=TRANSMITTANCE
##RESOLUTION=4
##FIRSTX=3996.3359
##LASTX=399.24785
##DELTAX=-1.9287336
##MAXY=1.1398143
##MINY=0.034047298
##XFACTOR=1
##YFACTOR=1.0615347e-009
##NPOINTS=1866
##FIRSTY=0.38717878
##XYDATA=(X++(Y..Y))
3996+364734907+364910796+365153726+365426080+365695681+365980724+366287048
3983+366606904+366921593+367227019+367584354+368029283+368478816+368875933
3969+369292085+369754616+370180426+370555870+370917697+371219220+371452774
3956+371697698+371962639+372235245+372582193+372955362+373222185+373503887
3942+373893845+374190062+374305983+374359212+374520165+374891510+375257829
3929+375413447+375572856+375927384+376277785+376480035+376726110+377133531
3915+377490866+377630510+377636462+377543226+377407512+377534382+378073221
3902+378759705+379254466+379302726+378957744+378764140+379047752+379306517
3888+379271170+379435436+379726262+379782720+379891398+379998194+379876771
3875+379761945+379805910+380098533+380434223+380414795+380341773+380462831
3861+380393037+379871633+379274034+379659557+381301873+382310374+381678440
3848+380651578+380231636+380344777+380593800+380953578+381539386+381975190
3834+382021457+382014635+382057589+381981479+381745314+381446346+381527903
3821+382043720+382353357+382577085+382869006+382645194+382012894+381740092
3807+382025640+382250716+382357624+382808056+383156800+383111263+383026196
3794+382875884+382604822+382384576+382276965+382274467+382288897+382270705
3780+382360712+382465122+382288588+381932095+381789728+382014074+382278790
3767+382286314+382068707+381725184+381559796+381690793+381625912+381197969
3753+381069021+381606147+381937822+381579055+381534950+381923701+381421500
3740+380185902+379529205+379807988+380287898+380249182+379588387+378763495
3726+378286224+378127574+377963252+377640168+377019182+376038503+375045528
3713+374558515+374356012+373628062+372192459+370474285+368780310+366916091
3699+364600373+361911486+359012768+356062898+353375274+351202513+349312044
3686+347349254+345478128+343984018+342766191+341795254+341354003+341053491
3672+340388316+339756353+339081521+337908024+336503837+335198811+333952741
3659+332833401+331958844+330965335+329654385+328575388+327869392+326743089
3645+324850514+322709955+320733857+318884826+317003902+315019074+312932783
3632+310977742+309481414+308003362+305762520+303005944+300441850+298297276
3618+296189844+293690658+290933409+288227368+285648506+283088369+280309615
3605+277259883+274173317+271192930+268250415+265300264+262314823+259189458
3591+255950137+252801751+249761704+246613262+243345866+240141414+237013269
3578+233841637+230589893+227284049+223900873+220547232+217411563+214334023
3564+211033289+207600828+204266867+201048743+197847267+194607539+191313276
3551+187980340+184619750+181238582+177909815+174737537+171690093+168619558
3537+165482682+162350494+159275144+156265755+153321486+150375968+147393404
3524+144494223+141733970+139006368+136222125+133411337+130685686+128125465
3510+125662285+123168798+120633788+118092771+115610156+113242044+110946252
3497+108693962+106519938+104423842+102304367+100104436+97917968+95842465
3483+93806294+91710206+89666546+87775979+85933910+83989123+81902376+79841493
3468+78053033+76522559+74970622+73279532+71619437+70120604+68678671+67184062
3452+65671317+64171810+62713706+61338794+60033564+58736949+57399759+56010631
3437+54649448+53481559+52506804+51571855+50638391+49748656+48874426+47958084
3422+47010210+46090632+45207173+44281117+43337433+42496499+41781783+41188058
3406+40632841+39868745+38868312+38064872+37704764+37422360+36853190+36170500
3391+35754913+35590753+35391314+35056463+34650519+34259807+33941467+33697297
3375+33469604+33129040+32619750+32170624+32073654+32250009+32380378+32358785
3360+32338455+32415067+32498860+32455593+32321687+32341192+32591461+32848984
3344+32966361+33009978+33067489+33220599+33565220+34042873+34476898+34797319
3329+35033487+35262570+35632479+36169767+36705216+37171881+37627457+38086448
3314+38555921+39002857+39353528+39669618+40184077+41026011+42004668+42824153
3298+43448030+44064590+44771235+45564080+46458580+47390132+48273992+49164832
3283+50124693+51125684+52114368+53054651+53969386+54898527+55931032+57168107
3267+58517569+59850250+61182165+62538196+63904749+65274004+66704433+68257451
3252+69846145+71366680+72916730+74665604+76575269+78492312+80390158+82292390
3236+84163867+86073491+88218135+90581657+92945235+95262658+97610409+100002195
3221+102458708+105006253+107614004+110271672+113022471+115870528+118758999
3207+121645925+124555311+127523907+130562929+133670593+136815232+139982260
3194+143214057+146538711+149917858+153320981+156766946+160240059+163700440
3180+167198723+170810230+174480442+178142583+181816136+185491106+189145147
3167+192805884+196507807+200246184+203998206+207756404+211486388+215125338
3153+218722654+222432704+226271239+230108172+233857808+237508283+241103985
3140+244726610+248405217+252083149+255719672+259312622+262858154+266374966
3126+269876617+273327734+276667562+279920218+283194352+286533675+289900595
3113+293220771+296427497+299530066+302587041+305616812+308610142+311576211
3099+314492588+317326987+320087071+322781152+325409398+327971388+330463555
3086+332897383+335289296+337593896+339782744+341958087+344162910+346264866
3072+348195455+350023682+351790005+353485046+355083286+356560944+357923945
3059+359177932+360304038+361277390+362116319+362868610+363519748+364000163
3045+364275576+364347335+364215047+363883709+363323702+362475648+361342270
3032+359973037+358371962+356477871+354241829+351656285+348668486+345209256
3018+341271828+336833210+331832929+326228732+319963402+312943114+305063543
3005+296225584+286311042+275181565+262755541+248963989+233592796+216225068
2991+196564476+175101540+152798510+130278700+108168326+87677085+70369185
2978+57405065+49029002+44788526+43857076+45189089+47831776+51392142+56277327
2963+63379484+73236515+85259323+97721185+108498394+116017366+119643845
2949+119335865+115411274+108691386+100653656+93284266+88350311+86594986
2936+87565207+90138055+93425468+97295558+102002002+107624518+114032916
2922+120967134+127991015+134566515+140156787+144285024+146692125+147468182
2909+146925609+145447501+143430597+141283988+139512654+138280116+137002518
2895+135029972+132175206+128396808+123527804+117417657+110351664+103269661
2882+97739770+95645942+98178214+104962231+114606238+125958333+138447708
2868+151678453+165236564+178724699+191787150+204203096+216026959+227526812
2855+239032377+250778516+262715113+274526834+285818807+296309050+305937117
2841+314799866+323004656+330661426+337979306+345207431+352487663+359799479
2828+367015335+374010748+380742372+387218767+393394145+399200200+404675029
2814+409951734+415171476+420475498+426014899+431853324+437864071+443840624
2801+449666977+455255817+460487631+465325949+469797415+473853262+477429928
2787+480580084+483419003+486026248+488408896+490546227+492466540+494178538
2774+495637864+496848110+497855151+498693239+499386573+499975805+500527530
2760+501085095+501641873+502171868+502678898+503184581+503678584+504153216
2747+504620099+505102423+505663637+506387517+507398152+508840408+510711814
2733+512828314+514970136+517000277+518883026+520674420+522581762+524902309
2720+527795019+531184876+534802476+538295424+541410599+544073769+546365960
2706+548492623+550666900+552993959+555475711+558019452+560496543+562863189
2693+565111302+567163959+568974107+570602779+572070583+573319068+574386413
2679+575446516+576708476+578312892+580268803+582488786+584824605+587090069
2666+589164905+591083422+592927708+594699281+596359622+597906484+599400285
2652+600875670+602303215+603717003+605144604+606525938+607843766+609085793
2639+610186099+611150467+612047792+612923443+613785057+614623818+615453652
2625+616296287+617163404+618045850+618900782+619695017+620392843+620979324
2612+621521953+622061606+622556788+622976169+623323678+623610153+623854122
2598+624103258+624375695+624642630+624896369+625125122+625332763+625547086
2585+625768483+625998247+626246428+626528972+626855538+627229550+627652636
2571+628089591+628483368+628795727+629024817+629187483+629292931+629315223
2558+629223194+629047221+628823802+628568041+628307901+628090939+628010982
2544+628158824+628553723+629181868+630006984+630944793+631947792+633040573
2530+634222408+635415810+636544471+637621699+638670403+639670594+640630189
2517+641593995+642581889+643548952+644487772+645479204+646554747+647663195
2503+648791126+649977059+651219535+652517094+653887647+655266061+656571818
2490+657821032+659063789+660310308+661535041+662729846+663948627+665258763
2476+666634707+667995939+669348917+670728623+672103050+673458331+674833488
2463+676281528+677828053+679421295+680967540+682391042+683655024+684794016
2449+685880060+686926630+687883193+688717912+689458748+690141582+690774836
2436+691358679+691859083+692222876+692469372+692664323+692808852+692837600
2422+692732826+692573529+692459939+692461062+692633385+693016605+693605782
2409+694386091+695353154+696439310+697539447+698604603+699587444+700501726
2395+701401915+702317714+703183820+703835491+704090297+703943242+703584222
2382+703188143+702712781+702108669+701446329+700619472+699384408+698018515
2368+696884744+695639517+694478513+693886192+694438872+697315916+702189356
2355+706301296+705961984+700979896+697237251+699657238+705315704+708088647
2341+707447981+706594902+706797096+707934573+709390866+710974731+712560898
2328+713637453+714342073+715750807+718212458+720317502+720970802+721019876
2314+721756670+723162036+724583461+725719702+726616859+727406321+728262039
2301+729170145+729959831+730683542+731430274+732067796+732572804+733043618
2287+733446715+733657669+733708147+733750147+733830272+733863401+733760366
2274+733519822+733182813+732761579+732245509+731653019+731037340+730473824
2260+730056745+729870722+730009074+730529300+731391194+732469826+733606797
2247+734638432+735499934+736266150+736977508+737601161+738144407+738678333
2233+739232303+739775718+740294427+740793260+741262782+741694796+742105810
2220+742496892+742861863+743213247+743527965+743769351+743943471+744089011
2206+744225454+744356956+744531188+744828163+745298471+745939024+746686936
2193+747443213+748151764+748802031+749389692+749947986+750539577+751203545
2179+751908727+752581679+753205163+753812363+754405470+754972468+755536827
2166+756117019+756691204+757217718+757677582+758114875+758584958+759058579
2152+759468022+759802111+760069327+760271465+760419812+760533178+760664848
2139+760876251+761199223+761669138+762320135+763160862+764164366+765255463
2125+766387156+767571630+768787322+769976962+771104668+772172632+773212577
2112+774215070+775139628+775986530+776794353+777572305+778270580+778912088
2098+779605983+780386798+781171993+781925519+782677586+783430831+784130847
2085+784746863+785310548+785859858+786390471+786871392+787310818+787739631
2071+788129927+788439647+788724999+789138372+789780497+790601628+791509172
2058+792481569+793524770+794615306+795718531+796803059+797824587+798723035
2044+799455842+800017169+800429194+800768674+801145100+801599911+802135408
2031+802796569+803623932+804584706+805619710+806685090+807729920+808780870
2017+809871237+810872832+811699521+812471184+813272325+814023886+814640464
2004+815166584+815699331+816227866+816646404+816931475+817225979+817619700
1990+817958899+818125382+818223700+818368903+818551276+818684575+818735559
1977+818795133+818964312+819207551+819436866+819700488+820048446+820374731
1963+820614265+820843804+821067167+821136455+820970140+820628695+820136096
1950+819384310+818255088+816776615+815113411+813313707+811242577+808888902
1936+806356616+803715287+801077720+798653690+796840679+796189794+797152365
1923+799646133+803088322+807149166+811469027+815347442+818701083+821846859
1909+824788924+827393980+829618511+831525179+833196919+834676514+836022642
1896+837303917+838461832+839495545+840561936+841551009+842292183+842961766
1882+843687442+844383527+844990054+845560252+846138255+846705028+847441878
1869+848463069+849360899+849872814+850286412+850820450+851464653+852141254
1855+852727792+853153574+853471380+853767905+854118671+854699594+855379733
1842+855608879+855539310+855768007+856279809+856792061+857428740+858324999
1828+859080827+859531314+860005048+860482712+860841731+861200976+861604242
1815+861985048+862372142+862833691+863274240+863582164+863781270+864002274
1801+864365169+864727614+864824696+864808637+865123243+865634484+865677495
1788+865266593+864963891+864908359+864899543+864789827+864444676+863973975
1774+863824561+864072293+864077852+863548923+862839531+862287132+862104758
1761+862112788+862035301+862035582+862172699+862503420+863262729+864130632
1747+864537155+864530473+864442374+864425136+864332770+864018389+863981892
1734+864422553+864365786+863481432+862409145+861408729+860359127+859216260
1720+858211970+857546205+856734339+855133966+852972604+850811129+848850332
1707+846954950+844870736+842700334+840717639+838503720+835590459+832150516
1693+828315169+824253595+820193031+816324612+812737389+808917257+804242362
1680+799137081+794424735+790273097+786304619+782503522+779168691+776161661
1666+773295510+770952391+769339272+767978713+766520455+765419419+765592247
1653+766746232+766862686+766082826+766191812+767086947+767753891+768423530
1639+769825639+772619582+776703223+780421443+783138292+786168232+790140135
1626+794614969+799288685+803604672+807250628+811415405+816659656+821425906
1612+825104484+828568235+832070840+835294215+838205510+840916183+843381427
1599+845557725+847529864+849375667+851025508+852419026+853611978+854663771
1585+855560141+856216529+856580209+856859441+857504598+858274745+858261887
1572+857748512+857549181+857330647+856531527+855358621+854478028+854616942
1558+855095616+854124623+851999926+849922001+848143241+846407267+844654673
1545+843090629+841879372+840813991+839065889+836231799+833180972+830439360
1531+827581969+824412217+821181319+817958169+814689426+811201026+807256636
1518+802872932+798179171+793255253+788220496+783205615+777840587+771214834
1504+763212239+754630798+745502069+734916821+722025289+707082055+690295320
1491+670518118+647988356+625647313+605715981+588122715+572154976+557898281
1477+545401761+533099743+518017594+499215597+480117300+463993662+450459274
1464+436997797+422281519+408416158+401037355+405518085+419803585+437535316
1450+454918724+470508436+483203388+492049517+497263785+500042343+502004599
1437+504132160+505792388+506201606+505726469+504929707+504113518+503644501
1423+503716036+504434020+506008283+508156058+510365428+512781822+515741518
1410+519213410+523115519+527473731+532007747+536137094+539311730+540210347
1396+537079675+530296816+521752097+511065500+496205254+478302885+462785746
1383+455132176+458332248+472035983+492648071+516315366+540731190+564736560
1369+587964935+608911056+625050444+635501662+640824747+642337134+641907197
1356+640775167+639071086+636476530+632935462+629179565+626753963+626713143
1342+628417111+630410643+632049759+633691402+635937888+639148516+643402290
1329+648622340+654650719+661389726+668812465+676839036+685246188+693735543
1315+702181888+710618238+718939257+726877954+734211808+740785960+746562845
1302+751701142+756372219+760644634+764567968+768221897+771567789+774359599
1288+776235273+776714116+775205098+771253015+764995659+757478252+750711451
1275+747267072+749167284+756643253+768001286+780943408+793699901+805193479
1261+814981572+822999271+829241523+833724331+836356002+836963932+835853464
1248+833431960+829030738+821734897+812894102+805295278+799820196+796568410
1234+797265450+803392540+814406825+828399505+843226398+857256474+869601503
1221+880148007+889206606+896993587+903569367+909078194+913793854+917999732
1207+921838280+925214887+928089123+930652404+933012199+935129091+936893982
1194+938387728+939714203+940890816+941769556+942245198+942489224+942698549
1180+942806805+942568732+941920935+941017265+939814992+937983732+935266714
1167+931713686+927505674+922709777+917410668+912018800+907064168+902701127
1153+898658363+894497910+889785732+884133948+877293086+869245459+860212015
1140+850605678+840926122+831695874+823213088+815349239+807938965+801073116
1126+794736084+788468227+781524275+773188152+762695495+748794339+729749327
1113+703848237+669708779+626369676+573759224+514129466+452941279+396675859
1099+349200783+311053178+281993342+262804672+254668328+257990301+271569496
1086+292320133+315916259+337302789+350789253+350666341+333076388+300033951
1072+262590265+236064174+228269024+232561414+232599722+214746315+178614505
1059+135869506+99389450+75471862+64513873+65529835+78985564+107046494+152140255
1043+214658427+291232012+374777133+457093815+531501054+593731432+641732628
1030+674376094+691236666+689883070+661925897+602586826+527515450+471330633
1016+463018935+503483633+570404852+641249406+706160080+763821124+814329058
1003+857073089+891176948+916308004+933301144+943717999+948774936+948890042
989+944002565+933982855+918447244+895893618+863091867+814823567+744410073
976+648142711+534330484+428192152+361849553+355745625+409299726+504506228
962+616161304+723236771+814391609+886241294+939828243+978374257+1005797447
949+1025577793+1040083567+1050646299+1058258262+1063881185+1068037483
937+1070891562+1072686774+1073634465+1073741823+1072902613+1071032385
926+1068139563+1064334873+1059525331+1053232432+1045050889+1034867840
914+1022709115+1008789205+993666797+978502053+965216969+955658527+949580344
901+943533941+932349354+911357471+877088252+827707463+764773644+694523545
887+626238792+568508235+529175510+519867046+552457676+624749763+716135937
874+802311606+869625310+915802714+943924517+957330435+958276105+950315116
860+941035794+939957668+951026081+969210883+986673939+999447164+1007320783
847+1011265398+1012573906+1012458575+1011496285+1009593603+1006643733
835+1003041293+999286688+995432924+991134567+986293357+981212951+975988689
822+970245830+963596831+956070552+947715507+938140950+926828960+913857359
808+900403209+888799634+881801834+880810403+884514080+889697240+893565884
795+894992138+894141080+891818905+888805923+885378894+881358478+876674150
781+871598123+866369594+860843809+854611215+847812802+841318382+835923370
768+831648652+827735762+823155984+816971173+808733143+799290033+791446116
754+788324092+789981288+793257443+795356929+795695286+794612611+792534349
741+789941422+787064939+783937636+780639134+777313062+774054314+770881025
727+767688814+764393568+760879901+757801897+754469537+750901966+747821605
714+745057758+742147080+739178849+736399730+733786139+731099666+728259905
700+725423064+722736254+720258265+717962536+715710717+713398986+711106177
687+709040100+707321083+705891798+704578292+703210378+701415560+698207458
673+694576887+696376310+703651713+703590791+695507397+692281440+694721641
660+696664077+696789515+696489564+696473112+697008329+697971911+698859971
646+699659259+700778543+702192276+703590173+704940232+706386475+708069444
633+710031869+712223271+714535058+716759028+719017922+721301466+723554240
619+726064572+728978170+731932082+734758368+737646080+740695110+743974971
606+747432938+750855081+754307546+757932782+761451503+764807334+768457893
592+772373647+775959635+779267290+782851649+786699181+790479446+794255612
579+798321285+802634128+806890317+810828306+814442256+818149021+822105203
565+825830722+829194301+832837449+836983023+841099118+844924864+848638592
552+852328850+855899846+859553550+863608273+867723358+871325798+874524185
538+877940770+881570779+884901624+887986702+891058978+894156633+897238567
525+900076194+902675467+905420223+908248698+910784465+913170538+915606135
511+917847623+919714931+921245005+922314428+922864075+923242018+923614513
498+923433488+922015039+919508413+916537655+913349599+909991578+906583584
484+903790034+902776592+903682901+905105224+905624832+904463435+901145898
471+896326699+891447644+888109051+888474865+893340332+901117430+909738849
457+917295112+922214370+924697862+925605912+924959912+922364626+917909331
444+912711853+907531781+902099934+897078822+894040853+893401535+894857267
430+899186281+906982639+916889319+926928962+936314463+945905696+956170162
417+965031788+970690085+973701944+976002839+979190783+982346721+984194489
403+985482559+986286395+986556362
##END=
