##TITLE=28
##JCAMP-DX=4.24
##DATA TYPE=INFRARED SPECTRUM
##DATE=16/11/2015
##SAMPLING PROCEDURE=Instrument type and / or accessory
##ORIGIN=Default
##XUNITS=1/CM
##YUNITS=TRANSMITTANCE
##RESOLUTION=4
##FIRSTX=3996.3359
##LASTX=399.24785
##DELTAX=-1.9287336
##MAXY=1.16842
##MINY=0.038650434
##XFACTOR=1
##YFACTOR=1.0881759e-009
##NPOINTS=1866
##FIRSTY=0.37324506
##XYDATA=(X++(Y..Y))
3996+343000673+343206544+343499946+343860063+344137716+344270846+344408331
3983+344669771+345061959+345484848+345803966+346062312+346369215+346744395
3969+347190591+347682962+348088570+348330291+348588089+348952560+349299696
3956+349613473+349872065+350033487+350190417+350474534+350801320+350987637
3942+351233603+351595610+351840180+351996151+352092938+352275859+352669772
3929+352982180+353084883+353252192+353584648+353788712+353906615+354232607
3915+354696577+354925317+354940818+354972588+354951938+354976915+355413689
3902+356064880+356457122+356636619+356527672+356178099+356094732+356497491
3888+356670717+356585624+356996024+357273870+357237883+357435866+357449533
3875+357296875+357318402+357357018+357720860+357978329+357765145+357807787
3861+357978110+357856701+357347131+356843586+357564395+359168860+359481432
3848+358698782+358109734+358114143+358426414+358675667+359086834+359739915
3834+359936063+359673801+359543848+359491264+359437694+359391875+359252172
3821+359651590+360223932+360139031+360304260+360524865+360125529+359692890
3807+359855736+360436733+360407592+360296153+360760178+360816076+360623104
3794+360586432+360427311+360284404+360256250+360259372+360300562+360291086
3780+360260686+360476006+360668457+360535656+360264959+360149137+360346491
3767+360414713+360278488+360116656+359881206+359887505+359996644+359750185
3753+359360024+359563238+360253182+360301494+359658711+359846808+360184166
3740+359267810+358209999+358122113+358641762+358871076+358608814+357870888
3726+357203292+357033463+356976388+356815404+356438800+355774491+354866407
3713+354107173+353819167+353370123+352246581+350681993+349021631+347440337
3699+345644736+343295142+340672387+338042894+335498138+333321003+331767726
3686+330418978+328870575+327516186+326469302+325385746+324616762+324699390
3672+324376712+323428970+322916278+322213846+320954737+319688041+318614866
3659+317589892+316730256+316158872+315174733+313756010+312834779+312134401
3645+310808467+308888007+306954757+305240852+303591829+301916705+300247141
3632+298465453+296628606+295274655+293751121+291440335+288939316+286716499
3618+284827370+282829102+280389021+277855521+275369100+272882240+270456346
3605+267866427+265026764+262189975+259482182+256785535+254048273+251318925
3591+248487560+245475108+242560403+239827523+236989091+234028128+231072287
3578+228105751+225107432+222105895+219077189+215988834+212978437+210177416
3564+207297260+204133343+200969316+197956495+194974718+191954599+188900313
3551+185811835+182611985+179376874+176346882+173517200+170656133+167651761
3537+164642309+161810368+159085786+156307635+153492140+150649272+147760201
3524+144983350+142411275+139867806+137236067+134582241+132000484+129560334
3510+127229638+124905816+122484604+119953377+117522265+115286973+113083436
3497+110880749+108780627+106778601+104773746+102697095+100604307+98581972
3483+96576748+94545773+92603615+90778723+88945451+87003937+84937303+82870786
3468+81057828+79569329+78122315+76506519+74861939+73366593+71960619+70516817
3452+69042689+67583885+66165039+64772512+63379725+62027260+60693034+59263418
3437+57827098+56640580+55707758+54800574+53864338+52988410+52119914+51189215
3422+50270155+49423524+48593329+47678087+46741814+45944641+45272626+44647950
3406+43999919+43180522+42218707+41480377+41131868+40806622+40166082+39430956
3391+39023589+38886166+38672345+38325514+37971895+37633948+37287364+36974127
3375+36731837+36461178+36048395+35645468+35518555+35642352+35764107+35763004
3360+35749598+35822818+35903005+35841719+35677751+35700212+36002110+36324973
3344+36503913+36578988+36631836+36825324+37257077+37753648+38139571+38437755
3329+38683191+38922961+39326915+39958229+40614359+41147270+41617656+42095625
3314+42577239+42997739+43319657+43679610+44309250+45239395+46223243+47024965
3298+47650812+48238289+48907994+49770300+50808622+51830874+52748983+53668097
3283+54647002+55637718+56621368+57607493+58571160+59523201+60600204+61917662
3267+63355289+64742941+66104369+67508549+68927724+70331650+71782950+73343821
3252+74955693+76533756+78137070+79909980+81846613+83802197+85717769+87625542
3236+89535629+91496910+93635997+95952103+98316410+100704449+103114295+105509057
3221+107954739+110531231+113195355+115888524+118621253+121387149+124184048
3207+127040267+129952412+132902940+135898028+138964514+142108480+145289678
3194+148480572+151717011+155007020+158307998+161634801+165034853+168476903
3180+171912928+175376614+178892610+182432926+185991030+189574564+193175105
3167+196775235+200370531+203949121+207494011+211034273+214580340+218069031
3153+221520283+225076142+228759940+232447765+236056796+239584213+243039546
3140+246450046+249898121+253398999+256851703+260216329+263549760+266885301
3126+270197206+273438835+276586991+279690286+282812314+285951267+289084141
3113+292160870+295143853+298086165+301014975+303872824+306636625+309358742
3099+312047063+314662013+317239552+319793346+322268812+324667785+326993743
3086+329220614+331377071+333508880+335598376+337619320+339606606+341551030
3072+343365720+345037420+346632463+348190040+349687639+351094037+352392009
3059+353544334+354524174+355361160+356102483+356773365+357363646+357808034
3045+358048851+358077855+357906711+357563355+357046417+356302931+355299046
3032+354026462+352488549+350671997+348542817+346080032+343250939+340029330
3018+336403127+332318240+327680839+322439737+316587814+310049151+302678979
3005+294381332+285085907+274667708+263001629+249979872+235405469+218867374
2991+200035008+179348227+157692986+135622264+113739488+93255607+75755556
2978+62502890+53873116+49489730+48569205+50005527+52744423+56420820+61508104
2963+68901576+79056137+91279790+103847921+114684436+122225108+125850052
2949+125549844+121633225+114904193+106849164+99456589+94525109+92815731
2936+93829380+96417956+99734948+103660728+108410822+114079482+120526637
2922+127454379+134460038+141010327+146540626+150593963+152966945+153774354
2909+153289268+151867245+149903965+147807129+146068289+144831665+143554467
2895+141628584+138833151+135100903+130277679+124212955+117150892+109998867
2882+104408234+102369207+105037891+111947735+121659558+132987102+145368184
2868+158493342+171958459+185243779+197965081+210005820+221469658+232609323
2855+243737487+255051802+266488457+277771661+288553866+298569142+307709965
2841+316038586+323734039+330972203+337905738+344717782+351564388+358425428
2828+365168620+371713911+378020465+384047832+389763174+395161261+400266138
2814+405160761+409994503+414912077+420042096+425433993+430968003+436456988
2801+441791289+446904136+451716050+456185730+460289241+463979312+467247726
2787+470147888+472752486+475114979+477254977+479191541+480955016+482533189
2774+483880704+485001561+485937280+486716068+487391004+488015820+488587998
2760+489120573+489654409+490195639+490716055+491162415+491535267+491928495
2747+492400600+492929724+493522662+494249907+495214273+496520543+498183068
2733+500087973+502056854+503917281+505608946+507247754+509054666+511239744
2720+513915658+517026923+520333132+523513687+526348887+528790584+530892787
2706+532811549+534792535+536963591+539249399+541525128+543720120+545814545
2693+547807691+549678964+551379448+552881429+554197011+555341092+556344786
2679+557302250+558391941+559807103+561599007+563640957+565770603+567864754
2666+569812601+571579144+573226004+574820226+576373256+577830650+579165293
2652+580465374+581807138+583146602+584423348+585646470+586864717+588052399
2639+589096791+589993236+590841479+591689612+592530680+593329242+594076699
2625+594824540+595618775+596443410+597230962+597935093+598567523+599165993
2612+599749399+600286795+600736222+601109951+601465221+601827063+602164038
2598+602454618+602695080+602897911+603115860+603354678+603586540+603829686
2585+604080390+604315593+604559012+604850907+605205410+605602747+605995154
2571+606367348+606763918+607179495+607519208+607743785+607903399+607997283
2558+607980467+607848350+607624486+607379040+607180043+607051650+607065947
2544+607308325+607764928+608367889+609097709+609966986+610943402+611972073
2530+613053383+614179772+615272804+616298846+617281780+618207365+619092198
2517+620007978+620935097+621812644+622694574+623657187+624694238+625762457
2503+626836098+627947589+629137518+630387041+631647957+632867793+634015435
2490+635133334+636287276+637473151+638626818+639722369+640835175+642028554
2476+643266246+644523054+645793337+647037876+648277978+649567104+650876551
2463+652193940+653573882+655011009+656422830+657731182+658887150+659902127
2449+660874216+661843566+662732288+663519292+664253932+664942781+665566009
2436+666126410+666621246+666999082+667255483+667482415+667693792+667789483
2422+667744403+667670074+667673963+667773105+667974403+668332849+668887609
2409+669615073+670486979+671459561+672440030+673368299+674230017+675080779
2395+675967255+676892785+677805772+678580453+679047572+679123874+678879906
2382+678448938+677900916+677253532+676510019+675643426+674609442+673501676
2368+672425460+671354010+670637719+670710789+671686986+673785300+676843652
2355+679889790+681329491+680385502+678762360+678747351+680337300+681915144
2341+682787488+683469161+684312748+685297982+686195742+687110153+688195023
2328+689241222+690146814+691273916+692844858+694381949+695359735+695966804
2314+696703142+697647843+698630559+699616177+700623431+701572350+702414677
2301+703195164+703928051+704645437+705353018+705993774+706557736+707076179
2287+707511311+707796797+707956520+708079764+708212538+708307244+708284841
2274+708127582+707871839+707555569+707198601+706812439+706397519+705978163
2260+705644365+705513947+705696018+706238234+707075796+708056923+709033010
2247+709969057+710792377+711537808+712216906+712823045+713380159+713922156
2233+714480859+715066950+715635896+716140318+716583008+716999242+717426814
2220+717845458+718223952+718601405+718981488+719301975+719540574+719728397
2206+719904389+720097306+720330208+720662472+721156706+721784754+722479244
2193+723186770+723863952+724498244+725093208+725676231+726305485+727005288
2179+727714841+728353899+728941194+729540760+730140161+730704177+731249680
2166+731806301+732390749+732980674+733515495+734005127+734508836+734997592
2152+735416291+735783337+736103989+736350695+736533369+736695831+736882613
2139+737136330+737501295+738000512+738645705+739458837+740419369+741452915
2125+742508481+743588859+744704403+745830629+746921634+747934804+748886954
2112+749824699+750738508+751584341+752356228+753079200+753754629+754411324
2098+755115016+755873538+756616942+757314390+758002362+758737440+759481501
2085+760154027+760739734+761253576+761707441+762145146+762620427+763109183
2071+763550340+763915085+764198874+764520347+765114380+765934250+766801226
2058+767723579+768718509+769745318+770781055+771811643+772762370+773587607
2044+774304774+774886757+775351083+775756362+776151727+776615450+777161172
2031+777820003+778637299+779562938+780527578+781536366+782579224+783572949
2017+784524990+785504145+786376489+787129423+787897038+788613438+789214920
2004+789775650+790358728+790903792+791341608+791693755+791935969+792187714
1990+792676689+793059784+793219069+793385092+793579050+793777882+793941166
1977+794089058+794296271+794603065+794940752+795191182+795477326+795936503
1963+796262687+796436981+796677497+796848285+796799590+796594130+796242476
1950+795646964+794740221+793543884+791985650+790370614+788869784+786981696
1936+784779309+782535349+780319598+778302296+776820637+776353079+777167854
1923+779440462+782774441+786190090+790010360+793899701+796970378+799618248
1909+802185215+804619683+806698168+808423685+809982302+811410392+812643866
1896+813737062+814929072+815950239+816666584+817695803+818673753+819283670
1882+819974271+820697683+821343040+821975744+822670343+823347743+823657659
1869+824179609+825444195+826398427+826751835+827140298+827761718+828483979
1855+829131691+829629923+830050155+830500514+831011508+831030789+831284451
1842+832337443+832708378+832653548+833182454+833985727+834437017+834867930
1828+835940366+836540096+836782201+837536012+838048595+838254110+838685078
1815+839303979+839682911+839976066+840553557+841129295+841434501+841435541
1801+841522140+842169195+842934673+843089084+842686927+842894359+843811673
1788+843869844+843212656+843061915+843216161+843266554+843464675+843440738
1774+842862973+842554317+843049646+842993556+842619390+842266366+841637989
1761+841688546+842019550+842072408+842597151+842841502+842811649+843650635
1747+844581917+844866143+844764098+844550750+844759332+845332113+844489676
1734+843711600+844666708+844727727+843701466+842701990+841835671+841268916
1720+840197904+838506622+837767052+837360404+836047616+834160897+832125793
1707+830136590+828763057+827166644+824321202+822576569+820518733+817135511
1693+814377763+810929578+807161454+803637460+799078497+795027515+792336428
1680+788588132+783793034+779099215+775706845+772643563+768914000+766302610
1666+764494165+761958748+759843727+759127930+758780493+757865041+756016446
1653+755976241+758526228+758417610+756713346+757276157+758811715+759744804
1639+760815104+762298242+765257342+769810062+773226970+775523898+778780151
1626+782895110+787024365+791605841+795708311+798708822+802968879+808450086
1612+812404500+815259857+818335025+821487207+824362666+826985668+829430543
1599+831600557+833471939+835199811+836840536+838285112+839528830+840635500
1585+841585679+842418311+843273072+843858999+843676708+844190167+845737830
1572+845525797+844274904+844331267+844521172+844307112+843440574+841291210
1558+841095937+842500419+841322541+839009290+837122571+835771222+834564423
1545+833134471+831593655+829609711+828499918+827881675+824973460+821347202
1531+819164042+816699613+813488439+810667152+807581960+803775383+800587160
1518+796979142+792644153+788495946+784274833+779517421+773063577+766324958
1504+760930953+754292079+745221752+734430399+722256475+709190871+693865532
1491+674591640+653080416+632417325+613916963+597154497+581787474+568210876
1477+556223898+544174532+529302016+511466566+493833345+478318978+464740079
1464+451807770+438085143+424390258+416358735+420841178+435824722+453594580
1450+470369179+485307753+497733531+506556825+511757859+514577612+516127301
1437+517712759+519838296+520756486+520088233+519223229+518609861+518178947
1423+518334179+518870753+519887155+522236009+524948239+527282250+529962053
1410+533326213+537132899+541183443+545617191+549866020+552824080+553586545
1396+550485687+543866807+536082811+526053869+511348472+493939170+479264501
1383+472032307+475184434+488605252+508709092+531575007+555242826+578548419
1369+600735237+620729144+636123170+645799855+650924917+652811745+652590071
1356+651462477+649859875+647463641+644142369+640667564+638519459+638660833
1342+640326590+642053531+643655804+645557915+647953437+651077629+655144605
1329+660181643+666026665+672561466+679690190+687240243+695128256+703281653
1315+711447868+719504094+727454770+735016928+741940740+748167487+753668797
1302+758559750+762967755+766968344+770641763+774068804+777231558+779909773
1288+781733446+782270020+780949344+777295151+771472423+764502326+758254983
1275+755104500+756906591+763918974+774599901+786739700+798660182+809405524
1261+818549359+826019769+831828146+835986706+838416901+838961527+837927159
1248+835692017+831571417+824680086+816358147+809286936+804232698+801206280
1234+801832356+807547288+817898141+831115416+845155464+858460653+870174468
1221+880163589+888722210+896088658+902335836+907572802+912044729+916030036
1207+919677217+922909151+925661805+928086796+930329716+932387278+934088036
1194+935470881+936715146+937880754+938796151+939337546+939632344+939845637
1180+939970414+939829971+939335574+938572561+937487581+935804898+933341565
1167+930191903+926480579+922154464+917288378+912369324+907898165+903934932
1153+900226074+896427933+892142624+886942905+880548218+872997946+864556653
1140+855571335+846486438+837834261+829906536+822522944+815492595+808971378
1126+803014561+797143248+790596506+782731114+772849681+759727659+741670097
1113+717001816+684342107+642683551+591837778+533842028+473896787+418353169
1099+371143349+332925255+303578217+284046582+275669457+278952222+292713028
1086+313785095+337708877+359297526+372776433+372462573+354532773+320911793
1072+282659876+255417342+247344820+251771338+251915533+233560570+195996296
1059+151113174+112427987+86825391+75041395+76277513+91024477+121262249
1045+169040865+234207708+312826728+397454108+479819808+553436462+614412237
1032+661070036+692570929+708704142+707190933+679792126+621669573+547931647
1018+492537482+484231153+524002114+589674118+658869896+721869764+777496229
1005+826008321+866916681+899426855+923273185+939308515+949123507+953951688
991+954104072+949433642+939847171+925027403+903586017+872368145+826160102
978+758357960+665096095+553889998+449109644+383000346+376830619+430272965
964+524768578+634643209+739013902+827086016+896015862+947127622+983677110
951+1009551752+1028182314+1041840088+1051786758+1058987676+1064369412
939+1068402592+1071134760+1072745688+1073579251+1073741823+1073061520
928+1071378837+1068697062+1065148091+1060659404+1054819421+1047266301
916+1037849194+1026548600+1013516573+999272160+984989405+972559902+963711686
903+958165078+952650348+942236339+922511267+890212633+843406011+783288120
889+715709514+649643953+593491485+555025096+545859899+577826104+648544293
876+737330288+820368267+884775903+928651087+955100755+967539460+968280783
862+960675846+951853922+950845079+961396902+978669705+995238104+1007510732
849+1015282404+1019220057+1020469799+1020312157+1019343519+1017478217
837+1014697190+1011425161+1008061767+1004592549+1000703536+996220107+991396855
824+986505573+981217392+975011404+967943699+960154718+951218753+940596929
810+928393097+915710205+904740999+898143207+897280503+900854232+905746445
797+909379002+910794986+910070699+907846512+904949253+901668624+897727466
783+893182086+888421058+883513453+878180028+872121220+865624050+859474863
770+854349473+850377860+846799804+842434251+836391492+828357285+819270689
756+811881784+809057758+810749095+813956216+816058200+816512557+815610964
743+813695269+811154374+808273109+805301739+802338804+799231045+795934093
729+792697065+789627046+786568146+783239808+779994783+776751073+773665278
716+770908625+768209596+765338026+762451666+759756635+757178768+754543058
702+751865719+749272734+746831146+744567193+742428345+740257619+738004730
689+735838550+733905163+732200023+730683691+729290055+727959082+726577442
675+724704416+722477929+722045318+724043996+724317816+721770239+720532327
662+721180971+721686871+721596548+721463773+721618403+722145008+722949814
648+723797619+724592402+725524779+726779232+728251086+729693527+731065855
635+732602344+734469125+736537696+738610704+740689080+742997182+745378955
621+747679936+750262241+753237226+756255374+759140364+761930977+764701542
608+767591572+770643241+773771596+777019524+780478390+783952429+787412390
594+791151703+795072430+798790436+802228214+805698637+809375123+813055937
581+816642483+820235876+823838635+827611087+831463456+835226486+839100326
567+843116745+846847294+850124801+853511692+857435816+861567207+865480868
554+869258140+872962836+876369611+879691485+883317852+886983767+890386051
540+893720085+897200915+900677693+903716929+906441264+909447580+912599050
527+915487327+918369414+921149674+923664167+926102524+928642104+931405603
513+934024935+936096738+937519679+938681562+939902712+940639982+940979366
500+941138980+940749969+939435045+936902805+933804850+930827291+927596452
486+924058546+921330431+920501907+921325721+922635496+923206579+921928901
473+918781156+914551827+909596568+905912632+906240624+911093126+918635400
459+926513992+934171622+940231361+943072093+943659827+942377877+939462104
446+935500788+930746114+925727207+920552191+915995199+913653685+913057844
432+913778900+917784857+925240697+933944635+943043282+952359494+960894617
419+970264618+979633633+985161179+987581022+989015903+990510708+992261311
405+994808669+998855762+1001801005+1001432260
##END=
