##TITLE=28
##JCAMP-DX=4.24
##DATA TYPE=INFRARED SPECTRUM
##DATE=16/11/2015
##SAMPLING PROCEDURE=Instrument type and / or accessory
##ORIGIN=Default
##XUNITS=1/CM
##YUNITS=TRANSMITTANCE
##RESOLUTION=4
##FIRSTX=3996.3359
##LASTX=399.24785
##DELTAX=-1.9287336
##MAXY=1.255625
##MINY=0.060819145
##XFACTOR=1
##YFACTOR=1.1693919e-009
##NPOINTS=1866
##FIRSTY=0.30203232
##XYDATA=(X++(Y..Y))
3996+258281520+258402065+258564483+258784676+259025462+259220093+259424154
3983+259704594+260007768+260250388+260410334+260575733+260834537+261159118
3969+261473326+261735723+261932597+262067669+262222824+262440902+262681661
3956+262950328+263209819+263397264+263528768+263724393+263993595+264148520
3942+264284994+264533730+264768068+264942668+265044201+265206492+265552327
3929+265854660+265956907+266056758+266300041+266475100+266567611+266814003
3915+267199163+267395808+267373304+267358523+267352126+267400803+267735247
3902+268219315+268556970+268807134+268860933+268674279+268622926+268966493
3888+269189643+269188317+269550413+269843239+269849177+269996202+270042254
3875+269970131+270011213+270054385+270379934+270719475+270723145+270859007
3861+271073313+271113045+270912476+270655940+271120206+272183020+272443098
3848+271999373+271645892+271633047+271822913+271965784+272210901+272702768
3834+272992052+272985043+273023450+273081250+273146569+273199044+273079263
3821+273321934+273805722+273857992+274087105+274410539+274281558+273978359
3807+273979098+274367724+274407761+274379753+274802860+274942978+274892492
3794+274983041+274966323+274913543+274955823+275076292+275260219+275362747
3780+275355127+275503987+275681390+275653917+275535282+275526108+275753105
3767+275901557+275919601+275911369+275783484+275824235+276029060+275974828
3753+275679275+275768091+276380350+276633317+276214874+276293598+276678248
3740+276302187+275711386+275633783+275988845+276306494+276403797+276120680
3726+275769467+275702517+275701651+275659218+275533753+275273676+274827530
3713+274412247+274377587+274402282+274027571+273285847+272459842+271802346
3699+271110038+270066847+268858767+267627597+266348489+265235545+264605573
3686+264201249+263616106+263043273+262567691+261966824+261538110+261829942
3672+261889476+261362338+261108606+260804005+260142126+259472015+258938072
3659+258405633+257923324+257658047+257111158+256170647+255594450+255337634
3645+254748134+253717864+252637949+251710998+250825026+249887166+248938425
3632+247876299+246683509+245914617+245225673+243995242+242493265+241071184
3618+239918534+238768866+237316917+235826943+234355854+232775331+231212113
3605+229616834+227924431+226277799+224708770+223058723+221312495+219607706
3591+217856100+215900561+213979401+212252453+210468226+208568308+206700540
3578+204855543+202923680+200916418+198904213+196828459+194722773+192811209
3564+190957420+188898932+186790621+184779677+182795136+180763242+178695529
3551+176629766+174449026+172139190+169927765+167881613+165875931+163825561
3537+161721341+159638349+157604124+155537826+153411790+151244187+149037566
3524+146906905+144981387+143128299+141157966+139088532+137045553+135111587
3510+133259697+131431507+129542307+127540588+125591815+123812468+122092605
3497+120377264+118691589+117008093+115283311+113535872+111843099+110203870
3483+108501910+106734057+105051135+103501653+101982365+100359798+98550206
3470+96668059+94996222+93632503+92351681+90969083+89525990+88088796+86676292
3454+85334337+84066647+82794776+81492515+80222849+79019038+77825892+76580265
3439+75247319+73922147+72821340+71935585+71046772+70105396+69204687+68358377
3424+67501848+66618425+65772631+64959483+64069192+63132224+62308533+61643997
3408+61058835+60381123+59461931+58456089+57748942+57407611+57063565+56475071
3393+55861920+55526533+55386415+55175448+54811434+54360370+53929050+53593510
3377+53349912+53132908+52841652+52435700+52076685+52009206+52214710+52417248
3362+52476572+52517234+52642417+52782052+52804300+52726076+52796154+53110681
3346+53438646+53647947+53824407+54034100+54341084+54813161+55365027+55855670
3331+56275553+56675832+57068293+57518657+58116880+58794025+59439434+60041888
3315+60623201+61213091+61792895+62310087+62839666+63575210+64573916+65631639
3300+66522052+67246631+67966177+68796036+69765167+70862150+71994138+73062852
3285+74098600+75165728+76251033+77325150+78403695+79492752+80574183+81734224
3269+83096051+84596716+86098062+87563423+89006045+90449686+91915442+93440993
3254+95076379+96767362+98395874+100011770+101785427+103709881+105645287
3240+107564445+109478405+111354431+113268429+115360862+117601595+119855618
3227+122104264+124401409+126749460+129102863+131457171+133846025+136286600
3213+138813100+141429614+144074709+146701519+149337873+152027950+154758561
3200+157518570+160315469+163129353+165940486+168743195+171531735+174347938
3186+177234507+180159941+183083871+186015919+188979632+191934297+194831137
3173+197719311+200641763+203572536+206502328+209432821+212341269+215236388
3159+218138605+220992884+223742673+226470468+229305506+232199465+235020588
3146+237764235+240460352+243099229+245735405+248441588+251159342+253778188
3132+256303681+258796756+261279485+263741188+266134157+268422178+270656883
3119+272916055+275225534+277571712+279866818+282023844+284112085+286218931
3105+288300597+290289089+292197531+294087344+295975372+297828486+299599868
3092+301267296+302884238+304496388+306074719+307585616+309032825+310460589
3078+311916743+313355287+314685366+315898008+317023950+318085362+319139435
3065+320181835+321102543+321875003+322606559+323341122+324003231+324542500
3051+324988646+325351582+325563238+325606971+325579931+325527762+325358616
3038+324980949+324397336+323662721+322805319+321804358+320616844+319219382
3024+317600835+315722771+313561438+311117779+308354941+305209722+301659235
3011+297691655+293243117+288219452+282551033+276163062+268901149+260601754
2997+251182407+240504569+228124261+213558358+196984710+179019894+159939815
2984+140060122+120477027+102903780+88953940+79515307+74577508+73359220+74629606
2968+77303296+81018233+86250579+93882571+104350875+116861947+129484162
2955+140119643+147417503+150896746+150557957+146747685+140294523+132577213
2941+125408384+120518759+118764961+119783890+122494827+126012119+130119766
2928+134951629+140550255+146808353+153457536+160068490+166186878+171392534
2914+175306072+177725329+178697262+178454833+177383724+175851330+174162201
2901+172738197+171709966+170575360+168801607+166181029+162602903+157947806
2887+152101144+145195591+138054440+132392444+130268600+132824267+139525287
2874+148874282+159639025+171194819+183154848+195081390+206559071+217377333
2860+227483662+236964225+246064369+255057321+264100582+273150163+282002207
2847+290409226+298174424+305224274+311591907+317382910+322779910+327960973
2833+333017030+338001015+342926893+347749785+352435465+356959261+361272218
2820+365347676+369194481+372820608+376280036+379690965+383161683+386765332
2806+390505149+394290432+398021126+401646565+405112746+408365309+411398623
2793+414177745+416637563+418790358+420711237+422473139+424101957+425575390
2779+426895759+428112428+429223996+430159001+430931359+431621501+432217959
2766+432708603+433166880+433639428+434125841+434618116+435091429+435533701
2752+435933617+436273081+436596948+436968626+437388777+437848736+438385253
2739+439081869+440029005+441231657+442593643+443995794+445329951+446532807
2725+447659971+448859514+450282869+452041305+454135025+456381199+458518958
2712+460395238+462011262+463443384+464785135+466148243+467593974+469102195
2698+470635391+472133877+473537149+474836493+476040266+477139855+478116860
2685+478956296+479654390+480261450+480882884+481647800+482655031+483873178
2671+485209373+486618201+488022748+489317861+490497882+491645689+492806749
2658+493946860+495012147+495980487+496889956+497805286+498742840+499671321
2644+500575948+501475682+502348350+503140535+503869721+504566082+505234052
2631+505895345+506538696+507148152+507754091+508369358+508976112+509559624
2617+510106386+510607478+511089660+511595544+512101019+512547930+512923176
2604+513250713+513571012+513892688+514212682+514535173+514842322+515151000
2590+515470790+515776614+516077289+516386273+516714983+517064132+517415982
2577+517786233+518202255+518649777+519104180+519561846+519990509+520350361
2563+520666736+520975669+521243571+521436393+521606584+521800833+521982033
2550+522110581+522227049+522406873+522702197+523151707+523754996+524460786
2536+525211940+525990466+526805231+527643239+528488281+529328175+530149669
2523+530951947+531729810+532494216+533282681+534081442+534828773+535537622
2509+536302283+537156449+538037374+538894649+539744891+540641413+541619336
2496+542617442+543541948+544412475+545274898+546114945+546940466+547781634
2482+548649919+549523861+550369209+551224445+552140337+553077381+554002701
2469+554939287+555877096+556790081+557715963+558712388+559764167+560798769
2455+561768944+562659095+563452096+564165838+564871220+565609887+566332344
2442+566975747+567559004+568128957+568701816+569260862+569739272+570122775
2428+570471313+570792988+571076640+571314367+571500308+571701846+571985344
2415+572357022+572821466+573378219+574018818+574725831+575449614+576173907
2401+576913236+577602869+578266659+578954253+579667740+580348911+580919426
2388+581307771+581484996+581486525+581394880+581284630+581193801+581125092
2374+581063112+580986095+580955768+580959030+580805200+580641687+580800817
2361+581562012+583229466+585422987+587187080+587480824+586131988+584875511
2347+585536345+587658661+589383252+590042761+590348585+590844478+591593899
2334+592350711+593065268+593773811+594321898+594690263+595287741+596387738
2320+597539878+598216717+598592575+599130570+599900583+600724829+601510287
2307+602281472+603064942+603851724+604617049+605322788+606006610+606700065
2293+607358453+607956389+608516863+609026365+609436526+609761616+610075137
2280+610408332+610713187+610930526+611069880+611185175+611302204+611399558
2266+611449152+611457664+611476625+611574387+611803398+612195821+612753083
2253+613456223+614245452+615028921+615832117+616524960+617154295+617755544
2239+618324631+618881995+619466628+620083169+620690128+621263292+621816578
2226+622364513+622913314+623444326+623936498+624413940+624902290+625387530
2212+625836683+626236752+626621274+627004471+627372275+627753434+628210793
2199+628779829+629447086+630178514+630926152+631645398+632319587+632952693
2185+633562200+634196835+634910934+635655921+636328835+636937016+637559928
2172+638214289+638846835+639432793+639995458+640560417+641146171+641738093
2158+642310799+642872852+643419054+643939311+644462728+644979417+645439631
2145+645846224+646241399+646652070+647087359+647576677+648164063+648865622
2131+649656279+650481544+651311193+652159090+653037212+653937710+654844223
2118+655731112+656577479+657399788+658198294+658954443+659699226+660451961
2104+661188843+661896468+662584368+663276702+663992075+664698273+665352889
2091+665984364+666672671+667378156+668003158+668545740+669040665+669523714
2077+670013236+670482624+670924845+671374355+671826974+672229439+672629609
2064+673215618+673957394+674704776+675472751+676306528+677193978+678081020
2050+678938040+679774825+680579040+681291252+681877618+682409701+682929856
2037+683427024+683938412+684479261+685090195+685820503+686643678+687501769
2023+688374437+689235586+690034500+690829387+691712504+692546791+693278984
2010+694010872+694696579+695291814+695854479+696436564+697013806+697546347
1996+698026236+698387822+698742832+699337455+699877744+700245650+700633027
1983+701036612+701424907+701793220+702190027+702633013+703088588+703513683
1969+703858500+704261320+704866240+705387364+705755626+706159518+706525946
1956+706756894+706900682+706948696+706842116+706553827+706066394+705278592
1942+704536103+704063758+703341555+702375152+701441268+700569620+699819383
1929+699393319+699551991+700377001+702062957+704423152+706673353+709223108
1915+711938364+714001298+715703208+717394821+719073029+720555357+721830999
1902+723032632+724158165+725125027+725988928+726980817+727839876+728437965
1888+729389281+730366337+730993939+731662011+732379167+733052846+733732998
1875+734490167+735200443+735472065+735893644+737124890+738227946+738781181
1861+739299552+739996321+740772501+741478241+742055738+742586954+743160526
1848+743751684+743842004+744199971+745462870+746176306+746380443+746996831
1834+747836623+748316461+748745990+749840177+750594593+751048894+752013514
1821+752769153+753173197+753734282+754471012+754978679+755411980+756182707
1807+757029330+757617633+757839814+758058783+758822782+759804731+760230438
1794+760042815+760441355+761705324+762293831+762128330+762334200+762841969
1780+763296067+763876164+764185300+763877132+763781358+764586796+765114087
1767+765406914+765594893+765373171+765737509+766391207+766738470+767403280
1753+767660988+767549158+768329162+769435938+770071644+770321196+770418295
1740+770915666+771732726+771087030+770437868+771704845+772498254+772323985
1726+772032688+771768201+771753675+771189634+769957826+769762864+770263548
1713+770154573+769446030+768405159+767267851+766680772+765876506+763904197
1699+763128373+762352498+760571686+759487490+757685882+755403061+753155765
1686+749822541+747164015+746198580+744366594+741321098+738126718+736099055
1672+734329253+731791425+730281420+729525781+727848694+726274721+725940099
1659+725925878+725084200+722840472+722180199+724523880+724556297+722728541
1645+722942414+724219789+724824555+725245726+725679690+727286743+730659164
1632+733295008+734788753+736951692+739820421+742682065+746104080+749285616
1618+751398247+754622649+759242169+762667803+765043901+767579792+770231284
1605+772653000+774836888+776907978+778834107+780568842+782205305+783791154
1591+785240912+786559012+787789953+788889338+789905234+790977860+791759036
1578+791710002+792364567+794238757+794529799+793736391+794221733+794967280
1564+795288905+794723947+792643529+792572629+794643719+794585001+793349727
1551+792362630+791776366+791190102+790232211+789091080+787651313+787454362
1537+788074981+786432758+783934942+782861246+781557264+779447182+777640834
1524+775576727+772933390+771125054+769095709+766440649+763978258+761339814
1510+757992165+753064885+748450361+745751466+741908637+735577677+727755265
1497+719141177+710170906+699242191+684828257+668650587+653141192+639015446
1483+625835052+613544708+602654934+592939983+582974918+570523914+555773370
1470+541428400+528715101+517436625+506773926+495394528+483659407+476762367
1456+481457883+495818094+512272536+527359231+540537943+551392648+559045940
1443+563542620+566013676+567261284+568545489+570736156+572074441+571875655
1429+571477116+571340005+571312685+571773714+572415383+573336117+575745754
1416+578743744+581285904+583983321+587270927+590924655+594663656+598673567
1402+602442998+604888926+605524071+603168055+597978633+591763529+583360817
1389+570743598+555964000+543744607+537914229+540997647+552919881+570390269
1375+589811813+609603658+628861382+646877462+662942335+675207194+682778524
1362+686865095+688606455+688673074+687929107+686800872+685094885+682671537
1348+680130753+678721823+679252835+680986142+682672353+684358002+686445046
1335+688910342+691860115+695496309+699870048+704861194+710382129+716349821
1321+722603000+729077188+735745319+742390870+748913327+755385170+761554604
1308+767115143+771994154+776236644+780025953+783472536+786596425+789491454
1294+792243257+794776701+796926490+798527222+799301058+798735896+796402511
1281+792410594+787499420+783055852+780905554+782499507+788049852+796366424
1267+805733807+814860710+823043994+830010099+835752043+840267990+843525217
1254+845452876+845927055+845152913+843392388+840187151+834956697+828631854
1240+823142622+819227160+817108974+818050758+823056227+831649264+842356257
1227+853559194+864056799+873205620+880926957+887494217+893165617+897986216
1213+901959581+905293366+908285648+911065382+913532768+915621647+917452614
1200+919142698+920700462+922012446+923091699+924072374+925013801+925750633
1186+926154830+926396634+926681866+926964141+927030301+926810720+926422222
1173+925844724+924865782+923357765+921385915+919036169+916290789+913189226
1159+910038222+907158993+904556432+902053978+899424301+896408471+892742052
1146+888162340+882611129+876332872+869651744+862872446+856388370+850476796
1132+845024009+839860021+835088354+830752487+826484206+821685168+815840111
1119+808420928+798474162+784544755+765112762+738874559+704680044+661873684
1105+611707369+558509474+508072861+464233174+427877606+399316901+380084407
1092+372120934+376234417+391112541+413234254+437808622+459520735+472658517
1078+471584515+452413390+416949095+376474769+347668028+339770537+345637231
1065+346415094+325897733+282692961+229519812+181936484+149221175+133945162
1051+136284294+156867114+196728875+255728758+330845222+415666725+501643732
1038+581018054+648884380+703114583+743418591+769855834+782438342+779140237
1024+752912839+699384552+631475309+579902562+571794459+608285966+668062487
1011+729808515+784618152+831774703+871985893+905316608+931465766+950439583
997+963108436+970902253+974872356+975259732+971920544+964756520+953422792
984+936605236+911466419+873250474+815610845+733976434+633680554+536581449
970+474160316+468837912+520819444+610291252+710818233+802843161+877791346
957+934593222+975591042+1004268852+1024209379+1038408981+1048771616+1056295799
943+1061739564+1065859317+1068999413+1071166175+1072545644+1073395732
932+1073741823+1073421116+1072315155+1070505494+1068119355+1065006374
920+1060771836+1055169858+1048160988+1039772038+1030115652+1019524668
908+1008855495+999611156+993252773+989663319+986214443+978876405+964038854
895+938970274+901847649+853136953+797162738+741279455+692883452+659422609
881+652119231+681761100+744999445+821919888+891439752+943538771+977887982
868+997927188+1006799646+1006420424+999516044+991952003+991052371+999658049
854+1013703720+1027220520+1037333093+1043853154+1047314774+1048638481
843+1048883446+1048554176+1047520287+1045677801+1043348749+1040923668
831+1038433345+1035559825+1032238782+1028863507+1025508926+1021661255
820+1016994995+1011717598+1005919383+999232648+991214560+981881327+972121675
806+963725792+958729141+958167547+961120173+965199455+968266766+969453056
793+968842836+967011971+964712787+962234493+959223964+955579054+951738315
779+947990139+943990779+939151016+933704600+928614774+924584832+921569614
766+918800583+915340187+910475958+903873426+896280025+890107278+887933074
752+889703896+892741542+894731843+895189457+894506859+893092729+891176132
739+888959215+886627411+884154927+881526983+878926666+876477017+874033383
725+871448968+868538749+865886135+863245755+860629636+858276118+856011085
712+853642480+851274282+849061902+846993157+844934198+842803167+840632634
698+838530962+836610949+834841300+833055391+831196849+829418738+827850117
685+826510609+825396187+824381922+823315668+822069589+820222260+818084144
671+818172833+820849658+820926878+817673066+816333660+817328300+818077212
658+818115083+818084603+818292512+818913895+819840592+820663615+821317670
644+822114698+823174989+824365153+825600834+826917507+828370170+829948578
631+831650487+833533648+835595155+837694687+839625709+841364215+843325820
617+845827918+848705363+851580820+854229560+856777072+859489525+862246628
604+864841135+867517807+870552089+873670370+876580895+879587551+882915933
590+886242379+889302757+892316039+895481927+898770042+902176002+905623044
577+908949081+912267371+915515118+918682943+922002456+925376610+928430261
563+931222534+934322466+937925274+941615650+944980833+948035604+951038488
550+954121294+957275968+960487322+963661059+966596662+969367018+972396712
536+975623153+978395242+980806662+983457033+986043691+988234307+990599854
523+993043386+995126759+996967411+998946091+1001247313+1003282468+1004847980
509+1006224799+1007425871+1008372090+1008832762+1009199037+1009499458
498+1009156732+1008048120+1006103897+1003566782+1000757077+997700572+994566083
484+992022342+991197230+992192584+993587446+993972479+992466398+989294598
471+985553761+981562455+978618391+978880584+982947633+989226603+995543903
457+1001861815+1007157969+1009492118+1009832296+1008870175+1006603409
446+1003462599+1000045629+996689621+992349268+987199195+984102831+983994773
432+985670178+989413257+995240322+1001833475+1008535909+1014969423+1020252223
419+1026618251+1033959653+1039011148+1042479904+1044439113+1044555122
407+1044933324+1047373288+1051299556+1052973431+1050404512
##END=
