##TITLE=28
##JCAMP-DX=4.24
##DATA TYPE=INFRARED SPECTRUM
##DATE=16/11/2015
##SAMPLING PROCEDURE=Instrument type and / or accessory
##ORIGIN=Default
##XUNITS=1/CM
##YUNITS=TRANSMITTANCE
##RESOLUTION=4
##FIRSTX=3996.3359
##LASTX=399.24785
##DELTAX=-1.9287336
##MAXY=1.1988658
##MINY=0.04254951
##XFACTOR=1
##YFACTOR=1.1165308e-009
##NPOINTS=1866
##FIRSTY=0.35448483
##XYDATA=(X++(Y..Y))
3996+317487739+317684646+317901784+318150019+318358883+318526535+318747437
3983+319074252+319442547+319751506+319998619+320266526+320577940+320883883
3969+321198233+321551073+321880531+322167389+322479124+322806126+323075955
3956+323265627+323404238+323563002+323815107+324135943+324421894+324685876
3942+324992460+325257884+325398016+325461276+325591826+325913784+326289606
3929+326485711+326605291+326867432+327143746+327268344+327416297+327718903
3915+328001063+328153607+328268222+328330681+328321152+328448046+328809587
3902+329236658+329587069+329706969+329534379+329414773+329652010+329915726
3888+329945434+330083672+330350858+330503989+330687522+330814469+330735648
3875+330689604+330814816+331098578+331334267+331295110+331273516+331445092
3861+331475948+331139283+330730576+331049438+332263706+333004112+332606643
3848+331937397+331646082+331692979+331853585+332179573+332777685+333264385
3834+333364346+333353482+333370165+333340216+333268415+333206090+333396616
3821+333805163+333985039+334102644+334295626+334136142+333735657+333656809
3807+333966301+334156641+334232446+334579494+334851832+334813556+334746879
3794+334664962+334524322+334428418+334423534+334497470+334560089+334589771
3780+334718719+334855782+334759104+334515941+334407011+334529100+334685568
3767+334709457+334632585+334494507+334441070+334505184+334382241+334065569
3753+334086735+334648386+334982435+334668859+334530248+334782406+334500860
3740+333708271+333248343+333403022+333768194+333839355+333456406+332945683
3726+332716427+332712503+332647588+332424417+331975914+331272796+330569117
3713+330231144+330087862+329539477+328433552+327105764+325880899+324668527
3699+323134410+321193749+319008590+316793750+314796529+313196937+311815525
3686+310391779+309065646+308000319+307050781+306254829+305943174+305783023
3672+305271366+304736807+304213940+303351551+302311075+301324329+300348420
3659+299450691+298767832+298016375+296956574+295985496+295330930+294492351
3645+293145318+291573379+290063231+288604920+287096908+285525502+283896096
3632+282317190+281022259+279758879+277957496+275772951+273727791+271979312
3618+270254028+268286542+266185062+264092871+261975990+259779808+257434364
3605+254955328+252477439+250066600+247672017+245238917+242736339+240134306
3591+237489246+234957226+232550097+230021467+227264622+224468886+221786964
3578+219199932+216591106+213849955+210979536+208141573+205486544+202902154
3564+200169999+197307213+194471973+191678092+188846282+186003649+183216294
3551+180458100+177638462+174755150+171931935+169239150+166573323+163823391
3537+161056242+158382048+155790959+153226001+150656412+148025672+145329177
3524+142712797+140282340+137944210+135539257+133057004+130625292+128331137
3510+126116044+123861152+121538837+119225117+117050688+115016286+112982750
3497+110929590+108916200+106931611+104945287+102970453+101029359+99133080
3483+97225276+95255615+93359396+91629327+89939196+88134918+86167091+84187053
3468+82464651+81025091+79616139+78071432+76448038+74906895+73496702+72118139
3452+70717034+69303825+67907292+66581425+65346652+64128507+62823020+61424565
3437+60081595+58953629+57976826+57004186+56065900+55229859+54411626+53527447
3422+52623256+51761284+50935884+50076378+49190318+48367997+47628688+46959883
3406+46299835+45493907+44573791+43887469+43558381+43251050+42705351+42072316
3391+41653037+41453782+41235349+40896348+40505182+40145639+39842886+39586133
3375+39349753+39037454+38582605+38183227+38108677+38293254+38460352+38493323
3360+38487221+38517196+38541793+38507123+38451347+38545583+38834042+39097688
3344+39226476+39353363+39553105+39817185+40196757+40659895+41081820+41440659
3329+41760365+42032412+42356929+42864215+43486269+44087438+44636947+45157209
3314+45637046+46035079+46381489+46804869+47483754+48457922+49469438+50257186
3298+50869712+51508776+52264920+53119892+54050018+55012097+55968801+56938451
3283+57937982+58974002+60024842+61018260+61951776+62912097+64019491+65353171
3267+66781775+68140753+69496688+70926532+72347856+73725892+75179119+76766032
3252+78363348+79895997+81495756+83293782+85211881+87105331+88964228+90841109
3236+92726104+94653979+96769959+99071108+101392989+103711213+106092284
3223+108513152+110943336+113420871+115958616+118527671+121143864+123844763
3209+126611966+129393635+132195537+135048900+137959731+140946501+143994409
3196+147049323+150101528+153191355+156338556+159528972+162764123+166045411
3182+169331370+172601555+175912738+179291491+182697444+186096550+189474409
3169+192852976+196255098+199672115+203092708+206500756+209881471+213216530
3155+216482390+219732903+223082949+226529633+229951294+233294828+236583483
3142+239825240+243058857+246337903+249635713+252905977+256119575+259254325
3128+262340548+265401762+268398541+271307637+274199250+277128125+280067891
3115+283034828+285989167+288792457+291464476+294127900+296786173+299393010
3101+301929781+304393630+306817708+309212157+311538276+313789978+315993928
3088+318142972+320213890+322220640+324162662+326037287+327919706+329850918
3074+331726371+333424029+334942958+336356080+337726149+339088450+340419334
3061+341639154+342712835+343667818+344507412+345227319+345859276+346390071
3047+346746808+346915287+346942994+346831555+346532152+346015717+345304752
3034+344419996+343325628+341963834+340309444+338372760+336153622+333600836
3020+330665982+327332538+323551791+319278686+314524218+309255185+303332307
3007+296612168+289030415+280529046+270979140+260238722+248191548+234648988
2993+219192992+201457509+181805614+161056709+139726628+118357884+98102379
2980+80567345+67175033+58488116+54158987+53312380+54811054+57648596+61485462
2964+66770671+74349067+84661868+97024814+109667223+120474458+127927516
2951+131493486+131194310+127294571+120570736+112537062+105187249+100271889
2937+98532178+99504404+102074406+105378296+109270081+113985832+119622079
2924+125997024+132782691+139600909+145982248+151388758+155347833+157662034
2910+158473201+158040872+156679478+154764348+152687118+150954748+149760686
2897+148544403+146651627+143897010+140256356+135558248+129628697+122716163
2883+115716761+110210670+108167459+110805572+117668726+127287871+138487043
2870+150678740+163457218+176428278+189205262+201454506+212998351+223893342
2856+234432757+244973920+255677397+266451447+277075062+287236747+296628450
2843+305138494+312867052+320007775+326748519+333245060+339641185+345988598
2829+352235276+358366271+364383532+370219715+375791781+381066180+386064584
2816+390810804+395339377+399770873+404275530+408970662+413886882+418959703
2802+424038984+428967456+433644036+438020092+442080009+445815220+449180881
2789+452138663+454762690+457162612+459352682+461320622+463097075+464691862
2775+466094308+467320640+468393387+469319222+470104017+470765336+471315082
2762+471785180+472253943+472750626+473241490+473729044+474203519+474608435
2748+474974274+475406843+475938172+476536497+477208332+478062633+479251971
2735+480795616+482568545+484405642+486129244+487661893+489133204+490765146
2721+492740453+495157244+497964805+500941538+503795649+506345366+508574993
2708+510529641+512319546+514141962+516109048+518173345+520244049+522250960
2694+524173043+526015051+527720823+529221281+530532814+531693912+532720909
2681+533653097+534553628+535562795+536872460+538533550+540411698+542346914
2667+544227358+545956886+547536352+549045245+550476251+551814049+553104122
2654+554354850+555570506+556779382+557997120+559211921+560379425+561489594
2640+562545579+563506113+564370557+565178414+565953066+566715707+567452083
2627+568152372+568869263+569618237+570358510+571074494+571752842+572375830
2613+572948745+573480394+573971365+574418988+574825346+575213499+575604429
2600+575944857+576193092+576417891+576680699+576969879+577235997+577464480
2586+577710793+577991325+578269454+578548758+578867299+579226092+579599778
2573+580005815+580465610+580931704+581321993+581610853+581843232+582056287
2559+582224232+582293845+582256316+582166578+582088958+582020093+581941512
2546+581947811+582171543+582628454+583241781+583957070+584782597+585711742
2532+586684875+587676532+588690931+589697589+590658978+591570987+592447388
2519+593307882+594198323+595112948+595975577+596794484+597672647+598652080
2505+599650036+600610464+601598278+602676417+603840023+605005178+606089883
2492+607126917+608170783+609234028+610319801+611412888+612489585+613559984
2478+614661398+615810751+616985035+618140313+619267992+620400903+621566805
2465+622771304+624007299+625281143+626572603+627819862+629001993+630105436
2451+631106649+632038249+632932001+633764521+634499242+635146681+635754295
2438+636337193+636880640+637366325+637786509+638153363+638451885+638651914
2424+638764767+638808382+638813133+638858029+639013002+639294174+639695567
2411+640221291+640888908+641710218+642636053+643580999+644498507+645341330
2397+646146411+646960460+647787802+648585623+649266053+649696326+649784783
2384+649583953+649264612+648952156+648644879+648253469+647686266+646959179
2370+646311047+645892304+645523048+645318322+645618338+646567449+648345556
2357+650780177+653032600+653742444+652419113+650847761+651117243+652977187
2343+654668759+655545215+656226819+657001951+657773240+658467123+659340535
2330+660430045+661336502+661984955+662864559+664242342+665641851+666507309
2316+666957388+667488130+668288459+669236609+670191485+671110006+671969272
2303+672747928+673482542+674200554+674924759+675642237+676303662+676890777
2289+677413030+677840474+678131736+678324132+678497842+678676038+678813875
2276+678859037+678805600+678688796+678531047+678319594+678056092+677762267
2262+677461716+677223358+677169227+677418209+678006071+678847346+679781776
2249+680681720+681558922+682330692+683042885+683714507+684329221+684887615
2235+685427806+685983798+686552656+687109395+687633464+688132336+688609373
2222+689049789+689457321+689866775+690298063+690706502+691046236+691325701
2208+691584398+691843310+692099979+692394925+692795303+693309656+693918124
2195+694604213+695311868+695998491+696660236+697284720+697875785+698483399
2181+699152298+699842924+700479846+701069737+701669718+702291372+702918845
2168+703537350+704114055+704646878+705169079+705686154+706196076+706702314
2154+707191684+707654895+708090987+708481383+708817807+709112859+709368942
2141+709618618+709928457+710321148+710808382+711441567+712232021+713124491
2127+714078780+715087947+716132454+717194685+718261453+719285301+720245088
2114+721170923+722061685+722910594+723732598+724521290+725255798+725925124
2100+726569092+727252351+727986806+728707380+729388824+730067546+730780219
2087+731505758+732175138+732765723+733299400+733774943+734208580+734643764
2073+735085302+735505752+735897910+736288893+736757602+737385609+738154122
2060+738997533+739895235+740838046+741794149+742738402+743673419+744583880
2046+745419443+746149840+746776672+747300581+747741104+748182748+748690374
2033+749249730+749863857+750586033+751441561+752396064+753376243+754309712
2019+755226846+756186206+757108411+757917175+758677628+759437866+760139329
2006+760731516+761276297+761854550+762428960+762890730+763216638+763532029
1992+763949918+764391829+764741012+765019942+765304905+765614371+765898853
1979+766124880+766331315+766586436+766900600+767199656+767479867+767839674
1965+768276193+768684633+769042945+769360258+769557351+769587032+769486991
1952+769263527+768849695+768143962+767125826+765935581+764686934+763300344
1938+761699791+759929798+758083199+756273916+754646137+753480929+753176054
1925+754073649+756157058+758995154+762294967+765770785+768908685+771654160
1911+774226564+776608442+778737281+780622103+782284741+783739396+785010143
1898+786164194+787276392+788314493+789257998+790221683+791155579+791909838
1884+792585731+793300006+794003070+794649014+795278409+795899476+796435076
1871+797022297+797887221+798828378+799552208+800132704+800706740+801334960
1857+802020355+802651778+803140614+803544409+803934217+804335076+804889787
1844+805568562+805972036+806158826+806559098+807153046+807700016+808321457
1830+809193588+809992743+810515264+811040774+811607016+812082559+812529007
1817+813018110+813522533+814049057+814643860+815220191+815648970+815905479
1803+816125473+816527133+817036308+817331627+817454303+817798041+818367219
1790+818676845+818623781+818567301+818677966+818869027+819022879+818989033
1776+818808703+818841480+819173581+819303090+819046581+818726705+818537246
1763+818599065+818811852+818943817+819094787+819306240+819573479+820121197
1749+820858694+821363811+821557434+821668473+821861829+821987174+821830813
1736+821800651+822198894+822338493+821909287+821356124+820806645+820107424
1722+819242606+818441796+817924774+817376523+816298757+814831557+813349997
1709+811933885+810461293+808794010+807077401+805553668+803873413+801643305
1695+799027232+796088028+792871280+789560898+786339346+783288303+780077428
1682+776294599+772225633+768430579+765003767+761674861+758484752+755713546
1668+753270116+750958225+749025998+747654355+746493098+745219360+744156062
1655+744124085+744988315+745020132+744220336+744143250+744839481+745427610
1641+745977784+747061208+749300605+752726403+755955481+758327857+760896525
1628+764257889+768107928+772204546+776053358+779339343+783082615+787827099
1614+792225817+795674623+798894734+802133795+805150140+807912911+810487611
1601+812810553+814863481+816762395+818586466+820267522+821737871+823021111
1587+824172599+825203013+826041192+826628894+827128567+827933221+828861191
1574+829108251+828875444+828899574+828963101+828573933+827828695+827203464
1560+827340981+827852558+827284447+825758151+824229186+822939380+821691588
1547+820357527+819077811+818150321+817551354+816488376+814391301+811958975
1533+809789511+807586896+805085278+802466910+799859165+797215600+794378358
1520+791201222+787708961+783998200+780076574+775911410+771600509+767092194
1506+761875957+755624875+748638165+740941770+731916547+720921461+708160813
1493+693682915+676405305+656641931+637071006+619562991+603941719+589586338
1479+576677550+565345826+554179325+540418371+523196013+505681965+490862144
1466+478340763+465783187+451947389+438806248+431798985+436206298+450059205
1452+467128939+483693022+498397106+510307831+518602818+523503503+526126569
1439+527954217+529922958+531524792+532021795+531683769+531013482+530301662
1425+529898882+529981626+530627197+532074591+534167556+536416082+538833513
1412+541687517+545002918+548741491+552927902+557306440+561291914+564293471
1398+565085793+562148083+555982042+548352110+538692847+524975722+508333912
1385+493934222+486920979+490075694+503037546+522430970+544640175+567439111
1371+589673940+611034023+630224268+644956273+654473001+659438174+661075882
1358+660922137+660013438+658546772+656348374+653376551+650203953+648165760
1344+648214659+649779071+651603462+653227023+654975983+657249866+660300002
1331+664254513+669091031+674662964+680856178+687600847+694819563+702375505
1317+710053375+717739413+725443975+733042624+740252639+746872870+752815233
1304+758073323+762757644+766991673+770855752+774414368+777709269+780683921
1290+783183884+784953076+785525137+784320158+780949452+775552885+769027784
1277+763139018+760180702+761918397+768529072+778560154+789995122+801219918
1263+811271445+819803563+826823372+832345711+836349549+838738794+839364025
1250+838516984+836578886+832897860+826589604+818901110+812409534+807863958
1236+805229895+806013836+811579737+821462091+833945890+847128644+859598724
1223+870577794+879925563+887926566+894863576+900786774+905707052+909845683
1209+913534824+916952454+919994903+922562343+924799124+926863368+928750272
1196+930297761+931561462+932700352+933742831+934534406+935008240+935316692
1182+935578486+935739491+935629734+935198073+934543161+933617059+932152421
1169+929934645+927051386+923653721+919697128+915254743+910780754+906727643
1155+903130963+899758069+896307981+892402476+887649450+881787536+874817428
1142+866995208+858681857+850272842+842225663+834821385+827927295+821374221
1128+815317937+809826560+804405169+798291230+790898215+781607728+769275858
1115+752245682+728854079+697755725+657916149+608977573+552749013+494217956
1101+439558560+392678649+354374044+324709232+304813013+296180800+299431953
1088+313380044+334721175+358881371+380667883+394369741+394345932+376731549
1074+343353094+305212804+278035970+270151024+274874368+275049067+255922295
1061+216561332+169196696+127968341+100292562+87295044+88425339+104185388
1047+136304073+186385089+253731531+333870344+419014929+501003890+573776034
1034+633717490+679308635+709937799+725586724+724233445+697951910+641829210
1020+570235834+516210423+508128598+547140672+611357529+678644968+739451562
1007+792749405+838958735+877750280+908470517+930952887+946081533+955394442
993+960059011+960404831+956348090+947787252+934331013+914542496+885317113
980+841554415+776669300+686494040+577893846+474733940+409365568+403563391
966+457133198+550933964+658802800+760063898+844430894+909627771+957499258
953+991457649+1015280486+1032296249+1044734886+1053813974+1060372173+1065239066
939+1068872260+1071320761+1072775149+1073558396+1073741823+1073118727
928+1071519990+1069044370+1065870169+1061811934+1056380560+1049296851
916+1040530912+1030058934+1017961206+1004720318+991440032+979863116+971598345
903+966396308+961210606+951400587+932761423+902178917+857725220+800298194
889+735231840+671044131+616006723+578004297+568705641+599864746+668922819
876+755247399+835585413+897578836+939457993+964468406+976205366+976961494
862+969913873+961813309+961109818+971234801+987592022+1003163967+1014544537
849+1021711952+1025512344+1026901817+1026880036+1026049171+1024402068
837+1021872423+1018794314+1015591927+1012310852+1008615413+1004397453+999974819
824+995464850+990467166+984607334+977985822+970696479+962333695+952316867
810+940663399+928521149+918148785+912021180+911248182+914627163+919373195
797+923059346+924605768+923972529+921836644+919036237+915876877+912156134
783+907867707+903301898+898601242+893625018+888035202+881899642+875973454
770+871096258+867376422+864007905+859981699+854451192+846914094+838243286
756+831167104+828391040+829873615+832873730+834926444+835407325+834495263
743+832574034+830122970+827425647+824650011+821808712+818784894+815644806
729+812628461+809728494+806747650+803460703+800366952+797347778+794447170
716+791828108+789299584+786663173+783997560+781421471+778888357+776280986
702+773639396+771156035+768915891+766832696+764780996+762681038+760545313
689+758515981+756771933+755304252+753918409+752489379+751098998+749761467
675+747997079+745850036+745505764+747599263+747776230+745011324+743722639
662+744475511+745146918+745323512+745472346+745752077+746262907+746951718
648+747573479+748165879+749038971+750245337+751554308+752850253+754228676
635+755863661+757816333+759939460+762027140+764026043+766095359+768186989
621+770192511+772475202+775340310+778435663+781366593+784140522+786939754
608+789879226+792865995+795929584+799345506+802994075+806279794+809193535
594+812439109+816125900+819634176+822956410+826561417+830344139+833920747
581+837302930+840850710+844720661+848693910+852414920+855831270+859417112
567+863282632+866905203+870128143+873370621+876966820+880849210+884680671
554+888293846+891857428+895455335+899123122+902787812+906115331+909145715
540+912275393+915681920+919034529+921927823+924661500+927670211+930845265
527+933762049+936116274+938274901+940854726+943592354+945951170+948224786
513+950559152+952472534+954037106+955622391+956946736+957668271+957942024
500+958009501+957780164+956765552+954600091+951693024+948700222+945629479
486+942480369+940047136+939244885+940020017+941156238+941278914+939733346
473+936491349+932192779+927995425+925318335+925894346+930449371+937586570
459+945331384+952283982+957081477+959406661+959951923+958891935+956112134
446+952253447+948190406+943758591+938570647+933817355+931037340+930276408
432+931558259+935686855+942761061+951887661+961689032+971038989+979870590
419+987780787+993946721+998956897+1002671875+1004295490+1005154969+1006927631
405+1009880715+1013419954+1015892264+1016861394
##END=
