##TITLE=28
##JCAMP-DX=4.24
##DATA TYPE=INFRARED SPECTRUM
##DATE=16/11/2015
##SAMPLING PROCEDURE=Instrument type and / or accessory
##ORIGIN=Default
##XUNITS=1/CM
##YUNITS=TRANSMITTANCE
##RESOLUTION=4
##FIRSTX=3996.3359
##LASTX=399.24785
##DELTAX=-1.9287336
##MAXY=1.2243904
##MINY=0.04889828
##XFACTOR=1
##YFACTOR=1.1403024e-009
##NPOINTS=1866
##FIRSTY=0.32123342
##XYDATA=(X++(Y..Y))
3996+281708974+281788818+281965310+282233695+282509189+282751360+282985795
3983+283213017+283433443+283661789+283886319+284144328+284476588+284819590
3969+285084943+285277692+285457269+285669907+285982147+286346580+286639532
3956+286878149+287100509+287320152+287535717+287747179+287919307+287992329
3942+288186751+288537071+288770486+288898236+289032416+289326518+289791546
3929+290075377+290070621+290119468+290387173+290585881+290685300+290921434
3915+291278079+291480524+291534049+291621734+291678343+291737070+292065305
3902+292539872+292849760+293078027+293142295+292987311+292946017+293258205
3888+293417971+293352450+293673053+293921236+293926985+294135651+294213273
3875+294159251+294272784+294403566+294764026+295022401+294884954+294947784
3861+295139357+295122317+294785143+294401971+294944752+296213681+296536062
3848+296041814+295661805+295673461+295901702+296048113+296278784+296779383
3834+297061829+297026441+297041129+297044527+297043011+297086788+297025448
3821+297370332+297888676+297836013+297951532+298208313+298024685+297730165
3807+297821952+298287007+298337971+298346752+298823071+298949880+298853780
3794+298893689+298827566+298729846+298697333+298709852+298814969+298929129
3780+298974212+299101518+299172894+299084426+299023373+299103348+299346433
3767+299427898+299377456+299351086+299238442+299308668+299518745+299432158
3753+299098460+299172894+299773382+299983485+299544697+299671977+300002825
3740+299407747+298647467+298591093+299051521+299353621+299289014+298840111
3726+298444917+298415097+298420376+298337500+298133905+297747963+297141986
3713+296591730+296469913+296376426+295804530+294820557+293725455+292762938
3699+291745015+290357562+288770356+287157197+285552663+284167379+283246183
3686+282476442+281514395+280662641+279995743+279250621+278772525+279058760
3672+279013049+278357232+278009788+277519304+276587235+275645287+274835114
3659+274051913+273418023+273054924+272364738+271258529+270504129+269980087
3645+269067071+267739782+266384058+265168315+264000321+262806192+261588123
3632+260233758+258794766+257815836+256796789+255123440+253270489+251683439
3618+250383174+248913212+247018783+245106164+243307627+241497250+239684965
3605+237718795+235595394+233539344+231576833+229539312+227414787+225294941
3591+223079543+220713186+218493554+216480223+214336867+212041142+209782006
3578+207557317+205278122+202950695+200584443+198130219+195699374+193472920
3564+191252413+188843573+186414061+184037629+181621158+179130567+176644771
3551+174237369+171763544+169177898+166714317+164441448+162176588+159799216
3537+157372683+155023092+152734280+150412746+148055014+145674557+143283020
3524+140995841+138894824+136830881+134662802+132437159+130234162+128107141
3510+126067517+124065829+121991627+119809892+117709072+115787867+113909996
3497+112033914+110251633+108550738+106793664+104936858+103088264+101298201
3483+99492993+97699153+96038363+94472104+92866113+91132992+89241648+87346475
3468+85714329+84368725+83039469+81554355+80022765+78591881+77240874+75915441
3452+74623585+73312931+71954234+70657902+69485955+68309429+66995652+65592400
3437+64299185+63244639+62310002+61357829+60460912+59684056+58898424+58006702
3422+57112908+56322703+55562860+54685519+53728040+52863888+52136188+51518238
3406+50934350+50177940+49255813+48555213+48244560+47969962+47390758+46673418
3391+46230131+46080434+45907985+45579626+45182227+44805298+44489908+44243516
3375+44017314+43699392+43259696+42912764+42881852+43080390+43254838+43284561
3360+43265403+43310889+43385662+43390099+43344626+43437417+43698648+43939156
3344+44135737+44345010+44499604+44676679+45048465+45544304+46015539+46441335
3329+46817035+47151347+47542510+48069505+48652306+49197113+49745043+50340741
3314+50937012+51459502+51867732+52250227+52850196+53773441+54801427+55665684
3298+56328289+56952528+57705804+58641976+59695490+60716132+61654081+62628463
3283+63692960+64757424+65758510+66731017+67705928+68682310+69777209+71118304
3267+72572644+73950159+75293698+76703444+78130486+79518429+80961759+82548756
3252+84179759+85719921+87260561+88989029+90885300+92811000+94704415+96535165
3236+98302941+100137467+102197659+104446478+106738283+109032623+111339900
3223+113648837+115972031+118371893+120865241+123380844+125887953+128421015
3209+131021153+133700938+136433113+139183098+141946387+144744279+147590861
3196+150490093+153411606+156320103+159230325+162192309+165226060+168292703
3182+171356889+174427583+177537820+180669605+183762423+186837599+189955611
3169+193119007+196285683+199414568+202518427+205637184+208762736+211845061
3155+214838433+217792314+220847340+224005626+227135295+230189014+233170050
3142+236071451+238945593+241873392+244853774+247807917+250677146+253466165
3128+256227585+258973977+261650456+264246413+266823133+269409550+272001822
3115+274626004+277240883+279738857+282133309+284515869+286889779+289202453
3101+291451749+293646657+295763602+297829166+299875284+301872843+303812329
3088+305673932+307441969+309186772+310932960+312626041+314294084+315969811
3074+317582787+319078023+320449036+321705603+322910160+324087745+325202265
3061+326247004+327210880+328065666+328805430+329422906+329930823+330355236
3047+330665542+330838428+330897887+330839500+330639642+330279835+329713349
3034+328901739+327863743+326665354+325311747+323733975+321887113+319735199
3020+317259805+314459548+311282365+307660958+303586963+299064641+294027502
3007+288345837+281898325+274599869+266345874+257008225+246475244+234546918
2993+220761066+204698085+186660217+167356021+147141854+126480836+106558360
2980+89072225+75560214+66687064+62205114+61290850+62794599+65683260+69574796
2964+74928762+82635585+93101064+105540802+118111545+128762984+136113254
2951+139607983+139210123+135324577+128820364+121041225+113802579+108873746
2937+107090373+108019469+110546951+113817999+117665269+122282972+127763630
2924+133983763+140660627+147353943+153529843+158732040+162609953+164951037
2910+165812631+165439495+164178094+162428011+160560725+159008004+157912746
2897+156750946+154949560+152333349+148781057+144098472+138221954+131406716
2883+124468223+119027540+117061762+119645003+126268956+135575412+146426135
2870+158164953+170374941+182684962+194727108+206205774+216956319+227027983
2856+236687934+246289421+256048400+265865060+275460274+284578464+293009370
2843+300640687+307558298+313950481+319938741+325643772+331257040+336891374
2829+342485825+347942751+353230110+358342336+363270777+367973330+372379741
2816+376475794+380377765+384260240+388233012+392366517+396677821+401076314
2802+405442320+409681256+413715969+417515463+421081724+424351426+427212004
2789+429694324+431957367+434049118+435933014+437643135+439202925+440591031
2775+441830322+442933134+443856656+444600210+445243717+445841540+446366340
2762+446827839+447312861+447849683+448378247+448844660+449237110+449587012
2748+449961846+450389788+450844232+451345144+451964345+452777994+453860211
2735+455221189+456773164+458373699+459877115+461218282+462485172+463875422
2721+465576160+467667206+470083220+472647735+475114295+477291535+479187401
2708+480893889+482488204+484082415+485751948+487500253+489273857+490975955
2694+492575601+494111216+495579767+496917014+498081296+499101781+499994516
2681+500759396+501496678+502376867+503516373+504930667+506530471+508176220
2667+509775606+511291514+512708526+514035424+515300589+516518553+517685031
2654+518806974+519897867+520951074+521980654+523024713+524074470+525089048
2640+526034263+526886227+527665429+528407728+529135862+529869955+530581885
2627+531236160+531890278+532594681+533288420+533925655+534538897+535139229
2613+535682741+536151350+536581487+537005143+537418502+537806561+538178312
2600+538531402+538849784+539142501+539429102+539732378+540031629+540303699
2586+540601225+540933459+541236839+541522813+541858602+542250895+542683959
2573+543147864+543604450+544020945+544391702+544733345+545042423+545292801
2559+545488346+545626968+545696907+545721579+545730308+545765120+545870080
2546+546032016+546284171+546722410+547332568+548040316+548828248+549684759
2532+550586746+551522970+552466513+553376445+554246285+555092708+555908134
2519+556691988+557482011+558270465+559037018+559842565+560714444+561627826
2505+562558823+563477327+564412977+565408372+566449870+567498894+568516557
2492+569496114+570448333+571384296+572324388+573272060+574209538+575161026
2478+576177172+577241513+578301723+579331408+580328998+581348961+582433321
2465+583534564+584625040+585731615+586857217+587987314+589077110+590063358
2451+590955936+591805861+592614074+593350048+594013732+594654416+595307385
2438+595945456+596529792+597031645+597440038+597800341+598146479+598445835
2424+598663386+598805929+598922388+599071674+599274485+599540022+599916215
2411+600455703+601153154+601953944+602790802+603626143+604451762+605227828
2397+605961085+606669042+607377156+608092327+608749790+609215367+609394134
2384+609323672+609133458+608909739+608666470+608398164+608085009+607698831
2370+607349452+607094632+606739451+606445845+606649179+607576256+609392670
2357+611796609+613861049+614362536+613034593+611669329+612154090+614083984
2343+615732556+616579031+617265558+618041153+618775873+619336688+619963939
2330+620838483+621648892+622201761+622922211+624123396+625365510+626158146
2316+626650277+627241984+628030752+628925630+629830282+630660919+631397155
2303+632116194+632875324+633615480+634311363+634979228+635608204+636195415
2289+636755185+637251967+637618961+637880211+638136234+638425449+638694017
2276+638875554+638953176+638964728+638949361+638890399+638776135+638644255
2262+638535166+638496485+638605888+638933000+639485608+640217192+641048508
2249+641892526+642759178+643512925+644189938+644841129+645458709+646026476
2235+646583579+647178945+647804157+648397850+648922441+649410024+649897921
2222+650401394+650907586+651378756+651816943+652246557+652647841+652983682
2208+653277078+653586365+653931615+654299863+654721533+655265359+655927789
2195+656649859+657388551+658107904+658776449+659394552+659999274+660631177
2181+661301970+661978617+662625365+663263331+663917293+664549039+665136459
2168+665716457+666287778+666844045+667408414+667956945+668499936+669081659
2154+669656377+670166175+670616437+671021902+671395744+671761849+672139193
2141+672507024+672842707+673220365+673748824+674443034+675257728+676152345
2127+677092646+678047426+679009159+679997863+680990801+681920387+682776689
2114+683616578+684464151+685293795+686099656+686894278+687665013+688374067
2100+689033831+689713300+690435841+691156343+691850344+692519569+693190727
2087+693853522+694469326+695059099+695641815+696182819+696678922+697151346
2073+697595440+698018887+698424300+698794692+699210454+699848473+700649159
2060+701458522+702285395+703157954+704085605+705041013+705965685+706827215
2046+707627953+708353525+708963422+709492717+709985789+710461402+710970364
2033+711511995+712116090+712835808+713663570+714557298+715480507+716397914
2019+717276274+718160071+719095093+719947527+720699810+721447545+722130621
2006+722716055+723291349+723905689+724474240+724943789+725367602+725721842
1992+726088418+726657282+727122389+727405070+727736154+728118724+728481066
1979+728768243+729048572+729399937+729804618+730203236+730534268+730914800
1965+731482305+731986145+732364534+732751809+733050746+733180483+733217543
1952+733174419+732957024+732493800+731792063+730782659+729778012+728971838
1938+727881989+726525768+725135049+723784159+722620243+721863308+721813703
1925+722631638+724507327+727181716+729823017+732790542+735858478+738221907
1911+740225608+742195960+744112055+745781849+747196091+748519277+749775869
1898+750871833+751830430+752887504+753808518+754464361+755452438+756444174
1884+757087576+757775618+758504536+759172559+759816013+760524493+761225864
1871+761556792+762063715+763315237+764355585+764831564+765289457+765944516
1857+766705842+767415838+767984075+768479603+769030800+769640331+769743409
1844+770069684+771247975+771840257+771959382+772546280+773379949+773896019
1830+774395520+775501834+776173149+776520646+777382019+778034673+778382641
1817+778949728+779716751+780227386+780609904+781279181+781994822+782479060
1803+782676173+782922369+783673973+784557612+784868258+784619553+784958426
1790+786080212+786489702+786195887+786297554+786657126+786936305+787373499
1776+787609868+787322221+787274027+787991027+788244280+788242659+788237694
1763+787890615+788124841+788627425+788863899+789499618+789787369+789742259
1749+790561136+791588207+792059429+792177666+792217653+792662112+793403680
1736+792723583+792076051+793204632+793655887+793098993+792508175+792033973
1722+791878781+791224767+789910624+789523088+789607348+788954955+787768614
1709+786388401+784989631+784143940+783090629+780876747+779769493+778462406
1695+775986281+774153872+771655113+768818894+766181356+762515701+759350802
1682+757593559+754895491+751124981+747334765+744757653+742474198+739446719
1668+737420385+736177853+734179955+732431284+731920492+731725260+730875910
1655+728917424+728617337+731020074+730938897+729102411+729351638+730655902
1641+731417542+732202023+733184298+735405028+739222268+742130621+743964233
1628+746626599+750089756+753572671+757519177+761081544+763600689+767308630
1614+772284246+775908449+778491835+781279285+784154656+786766267+789146267
1601+791406983+793467555+795287942+797011104+798688217+800188653+801498667
1587+802706386+803802925+804807990+805857015+806665646+806701086+807381078
1574+809151494+809320120+808454932+808813406+809341969+809501448+808969382
1560+807088256+807068707+808767773+808158503+806489807+805186641+804343250
1547+803597501+802637075+801600072+800135128+799547237+799550530+797396759
1533+794548308+793131139+791457895+789020764+786927105+784582807+781613244
1520+779378245+776814043+773525471+770387439+767170112+763439119+758195981
1506+752998528+749322524+744405451+737125786+728369259+718588169+708181711
1493+695666225+679478656+661342062+643972961+628344795+613999880+600727773
1479+588973091+578548860+567973410+554740924+538803106+523082211+509198117
1466+496969599+485319249+472875532+460221842+452677738+456970591+471201347
1452+487850729+503384285+517145595+528575518+536669825+541438553+544056332
1439+545429071+546786180+548821348+549843558+549345678+548651363+548208890
1425+547961962+548304598+548902473+549807439+552106784+554947133+557439619
1412+560201719+563584587+567375744+571385446+575748655+579830752+582527670
1398+583233013+580605459+574915823+568194673+559253211+545843684+529964147
1385+516639038+510084736+513009555+525346953+543744902+564512605+585918484
1371+606947384+626856381+644741814+658452474+666964373+671501384+673308128
1358+673245612+672341377+671055774+669137850+666419083+663524529+661775597
1344+662074900+663714377+665360492+666934422+668812516+671089802+673995020
1331+677732181+682299142+687546358+693369180+699703578+706431837+713451664
1317+720650100+727827941+734944260+742029634+748768818+754880490+760347609
1304+765197826+769539030+773468182+777036769+780311228+783371063+786175920
1290+788525393+790190117+790848678+789945436+787033999+782261926+776481286
1277+771261409+768633123+770212279+776265198+785503350+796001858+806264990
1263+815468067+823298250+829748846+834818392+838484935+840695838+841342325
1250+840695002+839051761+835792722+830164191+823296577+817453682+813327730
1236+810993468+811873815+817178267+826443286+838084070+850311020+861782551
1223+871824315+880374477+887677246+893943064+899256089+903699639+907463144
1209+910792592+913824410+916467122+918677659+920655799+922540270+924251097
1196+925605332+926705007+927759834+928773367+929538300+929975389+930251902
1182+930519529+930724431+930671951+930322363+929796518+929055003+927862076
1169+926044407+923663781+920830907+917498636+913724781+909929600+906524986
1155+903493691+900554707+897473651+894038197+889894264+884704599+878454671
1142+871430872+863973695+856406801+849140151+842461288+836286839+830467153
1128+825110587+820267896+815497182+810093207+803507960+795193384+784097890
1115+768635580+747205447+718458485+681264544+635124071+581577071+525257413
1101+472130201+426115674+388146582+358450145+338372026+329685672+333167594
1088+347585401+369492793+394163643+416324758+430280673+430400059+412729382
1074+378946509+340118240+312469856+304808299+310210968+310651455+290567900
1061+248760319+197819155+152771640+122050785+107426815+108616416+126191451
1047+161585822+215619046+286565255+369088137+455023761+536301420+607316208
1034+665168083+708893536+738085010+752738689+750924157+725181361+670841934
1020+601459932+548820773+540718782+578402502+640332606+704788231+762497250
1007+812587208+855681490+891687575+920136122+940921022+954894918+963584748
993+968151030+968878432+965630213+958262942+946333466+928421061+901568554
980+860866503+799776811+713796391+609064722+508615244+444438432+438705254
966+491512045+583309381+687587547+784108187+863515122+924208862+968270103
953+999180610+1020699812+1036028570+1047215068+1055342044+1061187187+1065551076
939+1068918368+1071294708+1072712400+1073472732+1073741823+1073323656
928+1072015628+1069859872+1066987690+1063336148+1058581377+1052391979
916+1044601627+1035220253+1024392020+1012533424+1000613983+990203082+982841038
903+978417664+974092246+965471519+948653562+920660922+879497267+825908345
889+764777725+703917136+651168156+614436917+605486569+635746461+702212948
876+784512450+860263035+918028559+956714050+979702483+990364285+990833155
862+984106412+976471200+975754566+985116808+1000304540+1014855193+1025617251
849+1032408078+1035883362+1037088938+1037139954+1036604805+1035321659
837+1033050069+1030206323+1027378885+1024534093+1021246671+1017507732
825+1013657875+1009693231+1005220932+999947007+993917557+987175655+979432452
812+970287133+959793330+948878955+939453778+933842809+933192141+936331009
798+940640432+943954721+945349727+944796910+942895713+940412844+937591470
785+934231600+930399411+926379778+922187860+917543380+912187076+906403195
771+900964511+896557655+893204163+890094462+886239482+880962525+873987704
758+866040225+859453463+856848229+858356506+861302756+863210330+863598494
744+862854888+861278398+859097133+856556923+853933498+851298051+848500617
731+845554106+842695723+839926724+837075398+834005057+831221370+828417140
717+825583848+823037575+820649108+818139215+815567539+813137621+810840576
704+808522936+806149053+803811550+801593747+799562500+797723871+795908293
690+793967997+792050752+790366060+788925161+787662609+786481861+785271842
677+783894451+781949660+779695686+779450954+781666979+781714754+778852138
663+777753874+778725538+779395181+779464544+779592660+779925469+780481318
650+781226440+781953423+782647111+783511515+784599168+785819746+787159083
636+788658527+790326387+792100148+793907781+795727226+797581171+799601076
623+801654173+803532528+805683580+808463922+811541738+814546270+817322796
609+819927194+822722015+825776779+828769341+831722386+834900353+838114387
596+841133659+844334782+847958881+851469657+854473405+857482014+860909208
582+864468648+867952086+871407611+874791839+878340407+882043278+885665757
569+889252586+892756724+895960094+898945181+902121475+905643280+909323466
555+912986716+916466600+919680320+922851909+926185225+929555235+932817358
542+935985812+939064464+942144789+945287107+948209991+950917520+953799634
528+956712900+959367531+962056033+964556360+966580603+968437056+970559987
515+973222354+975850640+977735842+978957204+980157658+981446345+982120849
501+982496990+982864664+982610627+981370239+979149770+976625295+974211842
488+971433330+968285157+965863760+965241840+966056117+967100489+967437323
474+966039076+962807793+958887161+954813166+952019495+952641101+957134204
461+963782018+970323305+976632508+981915215+984725508+985706424+984500325
447+981015842+976761199+972901410+969305381+964739935+959440710+955924864
434+955313504+957059247+961519733+968255258+975653787+983476443+991759396
420+998956368+1006412814+1014434098+1019833683+1022566825+1023931932+1025223232
407+1027431678+1030665366+1034198775+1035409369+1033305779
##END=
