##TITLE=29
##JCAMP-DX=4.24
##DATA TYPE=INFRARED SPECTRUM
##DATE=16/11/2015
##SAMPLING PROCEDURE=Instrument type and / or accessory
##ORIGIN=Default
##XUNITS=1/CM
##YUNITS=TRANSMITTANCE
##RESOLUTION=4
##FIRSTX=3996.3359
##LASTX=399.24785
##DELTAX=-1.9287336
##MAXY=1.3589942
##MINY=0.15948293
##XFACTOR=1
##YFACTOR=1.265662e-009
##NPOINTS=1866
##FIRSTY=0.46142477
##XYDATA=(X++(Y..Y))
3996+364571869+364774230+364958060+365139206+365327934+365522972+365712595
3983+365903041+366123110+366377015+366622279+366858524+367146502+367490097
3969+367822720+368092872+368298271+368482125+368700145+368966672+369212830
3956+369362023+369458329+369607757+369812921+369998423+370198430+370439526
3942+370619541+370758656+370909473+371052049+371251679+371485428+371651198
3929+371803782+371989166+372139182+372276249+372486804+372707744+372849119
3915+372981429+373179152+373324318+373362652+373504286+373773450+373960577
3902+374093569+374205605+374212975+374332875+374699594+374917778+374846314
3888+374953640+375167587+375178654+375322289+375538379+375549681+375649331
3875+375886895+376144733+376317637+376218105+376205460+376461956+376565868
3861+376392069+376233010+376577712+377460671+377883572+377439408+377089643
3848+377167018+377329962+377393633+377494013+377780696+377999210+378000647
3834+378072559+378252386+378398305+378521761+378568572+378680208+378928698
3821+378978640+379101602+379472135+379466695+379207092+379270315+379561307
3807+379621327+379604374+379971257+380233003+380102695+380107569+380193939
3794+380163116+380156476+380223585+380356907+380493667+380570170+380683525
3780+380786424+380718916+380603560+380626871+380787884+380911152+380885768
3767+380822592+380751693+380752093+380871664+380845268+380697182+380843055
3753+381278412+381375142+380962649+380912235+381235768+380970207+380428395
3740+380404966+380600899+380604031+380565249+380571701+380562235+380559009
3726+380508807+380403176+380305386+380120873+379817943+379592082+379640683
3713+379746879+379451084+378810728+378200583+377783898+377354851+376595608
3699+375585284+374492382+373348194+372319245+371497696+370601952+369529370
3686+368685852+368142509+367610728+367203556+367132680+366936252+366443229
3672+366306775+366283911+365855477+365455298+365261320+364963264+364573352
3659+364269174+363858518+363314303+363067415+362943959+362328916+361350828
3645+360540582+359939478+359281274+358493421+357675239+356805702+355930631
3632+355287756+354553942+353201907+351772285+350754050+349868784+348753111
3618+347312517+345860996+344528387+343133426+341663987+340067041+338352196
3605+336756805+335222258+333505718+331701984+329955116+328083520+326082440
3591+324290739+322571561+320460400+318218601+316317407+314574730+312713047
3578+310747970+308723108+306633610+304558240+302554594+300425490+298094684
3564+295889547+293877777+291816441+289678436+287573020+285453382+283176333
3551+280813669+278491504+276087256+273599769+271249631+269059329+266863446
3537+264580370+262285684+260056012+257823867+255490612+253028038+250488678
3524+248010374+245696475+243482132+241207767+238834294+236489996+234264491
3510+232043649+229730927+227398002+225026766+222639165+220412224+218313307
3497+216176550+214008406+211880620+209749609+207561850+205386123+203280189
3483+201112021+198809731+196624114+194694028+192794329+190710694+188429854
3470+186111069+184004758+182178255+180405344+178491599+176542110+174731559
3456+173008874+171274909+169542934+167804684+166028947+164264890+162620839
3443+161065794+159430927+157663184+155942241+154478205+153179115+151842609
3429+150517252+149329492+148231150+147082748+145849989+144628215+143471983
3416+142276535+141019464+139876960+138914625+138021011+137056203+135881912
3402+134580361+133584295+133066217+132596917+131788425+130842738+130202759
3389+129889327+129578450+129120888+128572624+128036451+127583233+127241534
3375+127005218+126739963+126334086+126007515+126084596+126501068+126876051
3362+127034439+127181136+127478732+127823705+128079212+128264690+128587046
3348+129149980+129764905+130303433+130839689+131426464+132118128+132981955
3335+133926206+134829828+135701555+136562768+137435060+138422119+139582201
3321+140809238+141999235+143166346+144361429+145588207+146794982+147942701
3308+149094271+150460081+152144279+153913776+155512723+156954790+158381798
3294+159897142+161584861+163470502+165408229+167250792+169054078+170921860
3281+172837253+174750621+176675668+178613642+180540067+182567484+184844250
3267+187274671+189675893+192048283+194473653+196945422+199411776+201908516
3254+204505778+207163485+209793171+212450406+215298466+218313425+221319342
3240+224294412+227303555+230294355+233272605+236426090+239793121+243194436
3227+246554992+249908719+253275256+256689946+260178149+263710809+267252228
3213+270775162+274253311+277741397+281342106+285062599+288810382+292481144
3200+296061604+299659441+303329661+306986506+310588017+314205798+317893702
3186+321605035+325264376+328872174+332460898+336022285+339533164+343033776
3173+346572040+350093609+353544937+356945052+360310223+363636848+366911293
3159+370134853+373327756+376456846+379495423+382521920+385584278+388616898
3146+391568445+394428113+397183421+399883959+402610164+405359915+408067423
3132+410674056+413190741+415664947+418080522+420387828+422576364+424705845
3119+426842107+428973801+431080394+433155199+435165156+437103201+438983698
3105+440802455+442557541+444249616+445884425+447456317+448949892+450386248
3092+451754366+453033523+454281646+455508389+456649421+457690238+458673930
3078+459654231+460634392+461535152+462285071+462905624+463458927+463983645
3065+464479211+464920856+465271939+465499542+465615675+465642236+465592788
3051+465486827+465282535+464910307+464387379+463781142+463098991+462290817
3038+461311174+460157239+458855853+457397786+455746165+453889639+451815823
3024+449487843+446879514+443988058+440776836+437184391+433204224+428827811
3011+423975893+418564974+412525920+405754418+398136926+389577443+379976343
2997+369229077+357141103+343384859+327658099+309911140+290267460+268799490
2984+245771660+222181862+199881676+181049914+167220028+158715998+154879996
2970+154262081+155244289+157442268+162064639+170751416+184049085+200530344
2957+217264720+231217085+240530160+244755214+244115706+239059049+230491584
2943+220184620+210823509+205084795+204195290+207470653+213198701+219946679
2930+227264421+235299963+244080080+253385338+262933128+272368929+281192772
2916+288809181+294683973+298545676+300475739+300861506+300257671+299131945
2903+297788339+296491357+295218133+293425348+290481618+286079845+280172371
2889+272665360+263348447+252484012+241432286+232780994+229622541+233691291
2876+244035788+258055709+273598545+289685053+305889742+321757877+336790547
2862+350711501+363516406+375415912+386829905+398212841+409791333+421440277
2849+432769502+443358321+452967074+461545418+469188011+476095378+482431593
2835+488345708+494044699+499646301+505140246+510521637+515763302+520786216
2822+525551199+530023966+534166747+538034313+541743456+545385914+549026489
2808+552737657+556532887+560317192+563995112+567518141+570842858+573933332
2795+576769641+579345475+581614259+583522918+585168229+586690201+588076120
2781+589281435+590348200+591326147+592183205+592862672+593404720+593875232
2768+594284523+594653502+594990504+595283615+595592220+595990726+596424930
2754+596789858+597071855+597290228+597445543+597557249+597664199+597813721
2741+598081873+598604848+599500851+600759288+602261811+603825508+605228240
2727+606350105+607310203+608368868+609728556+611458353+613521102+615784140
2714+618011905+619991723+621690673+623164233+624468162+625724433+627022475
2700+628329230+629562141+630662579+631664355+632622475+633489610+634191635
2687+634719885+635098848+635346984+635500651+635655965+636016044+636801471
2673+638011637+639429627+640858542+642206786+643450812+644626835+645782749
2660+646916010+647998976+649017517+649970128+650878187+651775463+652689739
2646+653619415+654513676+655343890+656135628+656894542+657593318+658216132
2633+658810030+659439154+660058482+660586402+661051734+661505293+661927676
2619+662305226+662644112+662927286+663161813+663401943+663680031+663965466
2606+664212660+664426607+664639941+664841313+665002892+665123593+665241186
2592+665400739+665559303+665672799+665787189+665944341+666149387+666389800
2579+666662425+666997025+667406787+667862277+668338818+668826802+669294724
2565+669712351+670087216+670444704+670774925+671056639+671298748+671495034
2552+671656848+671824690+672020693+672277401+672640775+673132810+673733301
2538+674401701+675112344+675864100+676660972+677488313+678327899+679170640
2525+680004621+680820095+681610986+682386194+683183396+684009889+684814531
2511+685598970+686443124+687365170+688296542+689205590+690104325+690982481
2498+691839585+692678182+693483107+694251675+694995660+695736585+696465830
2484+697165171+697876285+698638119+699427832+700212648+700999724+701804272
2471+702610374+703409318+704219611+705046623+705887668+706755651+707659520
2457+708581472+709451056+710195701+710855295+711536316+712250915+712925720
2444+713542035+714134567+714712124+715282616+715844208+716351642+716788435
2430+717193959+717594773+717971899+718306546+718619908+718937083+719252940
2417+719551608+719836337+720165521+720591907+721096468+721657071+722257751
2403+722865400+723467022+724015804+724526534+725039526+725585247+726133888
2390+726594699+726845049+726795554+726478472+726046105+725672982+725433935
2376+725295951+725244195+725341726+725683673+726247902+726894074+727619693
2363+728585442+729928459+731596233+733201938+734230840+734211485+733066968
2349+731591665+730737575+731067419+732685651+734819652+736417540+737224207
2336+737518966+737693731+738065535+738611351+739060483+739341961+739710234
2322+740342843+741059043+741552019+741779011+741969457+742356143+742996664
2309+743778277+744560550+745258478+745863490+746448346+747066215+747689688
2295+748295830+748896981+749460503+749948488+750371530+750740367+751044121
2282+751292776+751535826+751798797+752022774+752152141+752232718+752334676
2268+752452033+752557853+752666403+752808579+753009104+753287004+753653204
2255+754106574+754636237+755185160+755661607+756237656+756765388+757305269
2241+757850190+758377968+758896658+759411627+759939170+760480700+761018557
2228+761547748+762066532+762571941+763059878+763528130+763989036+764453332
2214+764890361+765250533+765545481+765836802+766122943+766386338+766685524
2201+767096793+767667756+768391209+769195898+770010241+770811446+771590375
2187+772316323+772980956+773632214+774318227+775014413+775641936+776181770
2174+776715294+777288141+777862354+778429785+779005976+779585652+780158452
2160+780706151+781254274+781853070+782465287+783020286+783530075+784016458
2147+784455842+784862307+785292084+785755580+786229106+786715395+787233190
2133+787821107+788493322+789186305+789864501+790548112+791243685+791965725
2120+792704248+793412348+794088424+794766290+795431724+796052041+796653427
2106+797276288+797893309+798469264+799053319+799702835+800397749+801060262
2093+801632733+802134469+802628952+803115994+803525427+803814205+804022265
2079+804217892+804404665+804536904+804623368+804722076+804833688+804930701
2066+805116156+805546780+806188855+806886877+807601759+808386057+809220556
2052+810019453+810754585+811439891+812051920+812576167+813017246+813369130
2039+813664501+813978710+814348395+814768471+815267381+815898718+816647601
2025+817444426+818241533+819026396+819828966+820656213+821430809+822098409
2012+822718067+823354773+823954370+824433500+824834267+825245583+825660855
1998+825998988+826240484+826493377+826865605+827294251+827629935+827868606
1985+828134308+828449741+828723167+828932828+829160008+829460183+829769965
1971+830003926+830216318+830510842+830855002+831149997+831395543+831614717
1958+831724539+831677728+831545018+831347413+830989784+830388775+829604383
1944+828812551+828137134+827551665+826981738+826447978+826029975+825756361
1931+825621108+825693067+826151006+827178495+828757357+830692341+832859591
1917+835077984+837003832+838528253+839825495+841047858+842208999+843246849
1904+844145019+844960587+845712295+846391480+847039112+847657169+848242449
1890+848869360+849544306+850164435+850708178+851238359+851750832+852219508
1877+852662094+853034228+853303886+853701357+854491494+855488466+856295840
1863+856842220+857308542+857854075+858473544+859036596+859452056+859723410
1850+859860453+860008044+860473235+861248020+861930878+862390135+862820194
1836+863274554+863702541+864270302+865097549+865929505+866603698+867297105
1823+868055219+868716884+869261099+869806066+870377972+870956753+871578671
1809+872218580+872741696+873057318+873318311+873820517+874508085+874967154
1796+875194333+875653685+876450886+877134592+877434673+877557399+877813776
1782+878266441+878702057+878854264+878782022+878955703+879620006+880347038
1769+880720397+880812512+880895397+881160534+881549716+881904614+882178228
1755+882359538+882557520+883054170+883869078+884563709+884860399+884989342
1742+885238373+885438898+885399151+885567652+886311072+887124097+887492652
1728+887528443+887402138+887029062+886420329+885930461+885960507+886398761
1715+886606820+886263602+885562001+884775066+883948478+883002084+882154775
1701+881709834+881534834+881262539+880598424+879375119+877612027+875493849
1688+873563104+872289691+871394253+870084013+868137727+866082842+864295450
1674+862646136+861109659+859835399+858696863+857457169+856175092+854984188
1661+853691561+852008057+850302796+849475926+849494198+849012901+847800240
1647+846780568+846225522+845582882+844633663+843883461+844123732+845475697
1634+846878334+847662632+848385614+849622199+851418539+853512511+855363951
1620+856880178+858942503+861956591+864928577+867222320+869226626+871224998
1607+873138507+874958300+876718849+878329546+879727568+880996836+882231349
1593+883397953+884438064+885353376+886148599+886800093+887231000+887360225
1580+887414665+887879385+888601519+888800443+888503187+888315943+888219589
1566+887652959+886422778+885155017+884869065+885561153+885759417+884857856
1553+883498734+882185197+880839826+879257385+877605528+876542719+876339463
1539+876028739+874746755+872892678+871003658+869079223+866895302+864450388
1526+862024688+859786610+857552864+855206941+852701935+849894023+846698907
1512+843068929+839253496+835616547+831943148+827655931+822470355+816311164
1499+809112146+800706495+791205351+780442521+767378695+752002336+735978297
1485+720541517+705851453+691955247+679383362+668376869+657819886+645413958
1472+630484141+615989092+604658595+596043141+587730170+578233547+569544345
1458+567408977+576838633+594848988+614744831+632962020+648133946+659294529
1445+666091085+669480980+671210588+673049030+675904271+679087755+681435326
1431+682795391+683606014+684232359+684938482+685877011+687214706+689218776
1418+691850746+694673351+697447167+700250841+703141402+706111269+709135811
1404+712019167+714415763+715985395+716110004+713853653+708926009+701911457
1391+692733564+680722093+667404574+657096716+653825355+659573794+673418339
1377+691541435+710014956+726738335+741239412+754037441+765094889+773539581
1364+779052646+781980835+782900244+782560464+781615341+780324787+778622634
1350+776487785+774505001+773977316+775749733+779085988+782609253+785828339
1337+789003158+792427054+796303239+800764420+805836595+811403347+817302957
1323+823429652+829726921+836088425+842326733+848293498+853924392+859122401
1310+863661569+867323948+870075442+872086718+873646648+874978645+876214853
1296+877499285+878948074+880529856+882120114+883579829+884645370+884857009
1283+883772254+881342692+878032856+874806753+873054492+874028012+878022025
1269+884132237+890987566+897578228+903384593+908167706+911814639+914305516
1256+915666522+915797725+914440392+911491388+907031619+900971231+893280273
1242+884807089+877076949+871201451+868111637+869051532+874586543+883919280
1229+895384229+907237701+918173223+927486181+935132965+941469887+946774704
1215+951140945+954689263+957647686+960242923+962574436+964581944+966251885
1202+967743246+969167170+970454051+971448104+972198023+972854697+973453728
1188+973849503+973933518+973822848+973705114+973604145+973337124+972763712
1175+971963026+970977921+969660335+967932280+965914694+963694605+961194215
1161+958387339+955483450+952708598+950003727+947116416+943870250+940133463
1148+935636962+930155543+923806283+916918366+909814665+902856579+896451560
1134+890775550+885607305+880773330+876436570+872577057+868705959+864228106
1121+858698935+851689233+842361206+829307411+811049956+786499188+754838127
1107+715787319+671165802+625988063+586421532+555814850+533485537+517765818
1094+508912118+508531695+517275244+533447721+553312529+572154746+584737416
1080+585541540+569595253+534414413+484122491+432555886+397881867+389121671
1067+397313823+401578860+385257543+347450336+300666750+259848847+234347376
1053+227865830+242147380+278379280+336017105+411223734+496584601+582964293
1040+662075503+728400835+779851543+816899270+840981644+852799325+851312013
1026+832649553+790118900+722061182+644244953+588546444+580673987+619237282
1013+681142263+744365865+800060182+847777258+888253779+921368433+946677503
999+964193138+974904307+980327611+981471140+978521947+971301077+959692493
986+943396206+921125618+890099568+845951814+783335484+699489996+601414643
972+510185718+453807884+451514047+503236626+591401591+691794705+785463929
959+863326545+923576466+967892251+999340637+1021416256+1037179537+1048608507
945+1056760889+1062479188+1066661198+1069795563+1071925515+1073151928
934+1073719689+1073741823+1073086845+1071617428+1069401672+1066596774
922+1063100259+1058475663+1052405103+1044907888+1036086117+1026078905
910+1015365382+1005028608+996763295+992167803+991125526+990850876+987224100
897+976899570+957790380+928834661+891241024+850169239+813226530+786064891
883+772106709+777267373+807391156+857671351+912402556+957605396+988564856
870+1006827680+1015305949+1015774437+1008901401+996720534+985164224+982024961
856+990218032+1004983586+1019403945+1030079416+1036846774+1040394998+1041665867
843+1041810068+1041495199+1040622837+1039029753+1036995024+1034861682
831+1032645361+1030105223+1027174397+1024159179+1021200285+1017891862
820+1013902182+1009497230+1004877814+999690825+993544162+986517789+979275822
806+972967156+968807657+967343233+967954979+969150216+969651198+969068085
793+967430733+964959635+962196274+959366793+956134756+952396367+948404333
779+944262729+939751628+934565204+928974811+923780947+919635670+916619415
766+914009297+910626466+905581229+898662230+890770087+884474608+882605084
752+885143055+889074433+891802663+892824972+892494186+891228591+889435171
739+887340163+885095491+882745989+880205663+877594132+875147428+872746500
725+870208905+867406739+864767893+862239247+859885224+857672293+855339556
712+852831819+850352621+848055393+845852917+843573961+841227096+838961797
698+836837780+834814354+832849607+830902755+828947898+827076679+825393175
685+823890040+822575468+821410747+820187537+818823611+817375763+815763088
671+814293296+813693699+813697561+813220220+812476705+811874283+811437160
658+811147911+810878912+810572897+810440093+810606428+810925252+811280056
644+811729800+812326571+813018659+813722709+814434859+815236676+816179773
631+817236931+818376974+819672709+821020906+822302984+823460169+824774176
617+826605177+828775818+830816385+832535115+834079787+835788156+837660035
604+839476719+841466426+843816493+846104962+848067261+850143054+852696661
590+855297549+857520463+859644764+861919764+864159161+866259632+868489234
577+871039826+873613211+875788938+877728725+879979331+882426788+884461987
563+886209915+888403066+891192988+894121272+896842908+899206067+901180233
550+902959337+904892249+907073909+909247752+911217020+912993298+914836732
536+916827664+918687486+920454722+922239477+923792343+925008490+926136100
523+927348479+928563872+929640810+930697403+931935024+933009984+933437123
509+933370250+933272860+933214558+932822928+931980611+930947470+929612836
496+927462634+924307454+920562943+916557063+912121218+907513858+903950941
482+902489154+902699757+903024703+902318581+900207655+896583422+891853336
469+886831834+882970531+882534821+886385763+892927448+900286207+907294778
455+912685683+916032723+917778484+917987768+916531727+913994698+911611759
442+909482467+906593366+903463522+901690634+901547281+902593984+904888952
428+907867720+910477367+912905516+915708907+918871622+922596071+926325134
415+928830611+929907642+929954077+929442263+928612567+927427220+926102852
401+924438186+922687715
##END=
