##TITLE=29
##JCAMP-DX=4.24
##DATA TYPE=INFRARED SPECTRUM
##DATE=16/11/2015
##SAMPLING PROCEDURE=Instrument type and / or accessory
##ORIGIN=Default
##XUNITS=1/CM
##YUNITS=TRANSMITTANCE
##RESOLUTION=4
##FIRSTX=3996.3359
##LASTX=399.24785
##DELTAX=-1.9287336
##MAXY=1.3681459
##MINY=0.15960027
##XFACTOR=1
##YFACTOR=1.2741852e-009
##NPOINTS=1866
##FIRSTY=0.46173358
##XYDATA=(X++(Y..Y))
3996+362375562+362516109+362714778+362993017+363262485+363479655+363667542
3983+363833115+363993425+364199532+364429636+364651460+364950960+365334241
3969+365656569+365881551+366087985+366283567+366467734+366714515+367009805
3956+367240657+367387192+367511693+367634978+367767362+367998916+368301410
3942+368489016+368583742+368696993+368838803+369054780+369289375+369439019
3929+369601716+369842766+370028875+370141097+370324001+370561005+370734390
3915+370859359+370994339+371080248+371124477+371307966+371592825+371765836
3902+371899389+372059021+372119552+372224804+372515346+372671353+372592204
3888+372728002+373005002+373098535+373270470+373438382+373386692+373451083
3875+373674685+373931593+374125490+374073402+374089073+374298010+374315786
3861+374134565+374079133+374532956+375416744+375713695+375126787+374746196
3848+374891327+375130833+375250259+375407459+375724571+375902728+375830782
3834+375866404+376058734+376225453+376356574+376423350+376589087+376909380
3821+376997044+377094998+377408976+377347743+377044781+377089338+377397936
3807+377480922+377446914+377770552+378005310+377887007+377904853+377951047
3794+377868155+377860554+377949152+378082238+378197711+378250617+378378534
3780+378552340+378556409+378455414+378454642+378604638+378737560+378721444
3767+378672046+378641546+378712299+378880468+378803588+378519407+378552527
3753+378981136+379181793+378927481+379010232+379371246+379016992+378338304
3740+378246080+378473143+378546071+378521302+378444702+378311196+378241800
3726+378230199+378208657+378145061+377956871+377669650+377443709+377429489
3713+377448036+377122551+376545279+376040678+375712643+375326111+374554637
3699+373514117+372433788+371361575+370409419+369584665+368585567+367388455
3686+366475242+365918225+365414490+365089682+365132836+364981460+364422058
3672+364217120+364194760+363786383+363383128+363187897+362925726+362608918
3659+362379679+362006619+361464993+361228948+361124889+360481051+359425000
3645+358556531+357966512+357393310+356710225+355939220+355063477+354212878
3632+353636635+352914771+351490829+349998029+348977109+348129410+347042999
3618+345584956+344096741+342767081+341436580+340050552+338469060+336693858
3605+335048723+333493778+331755905+329949174+328242853+326453664+324536652
3591+322766127+321009800+318873046+316647950+314777716+313049480+311173984
3578+309182524+307149267+305075032+303015954+301024096+298929419+296660655
3564+294504558+292519202+290483583+288352372+286209279+284035429+281748983
3551+279443521+277163437+274715113+272176928+269869735+267784695+265672780
3537+263424201+261131182+258878768+256604671+254239450+251785793+249280634
3524+246810605+244470433+242245291+240005483+237673521+235321749+233049032
3510+230808125+228524415+226219024+223849592+221463648+219226133+217108230
3497+215009062+212914268+210818608+208686134+206484965+204283189+202178641
3483+200042027+197714743+195434109+193436404+191545284+189506999+187246024
3470+184898321+182745042+180901122+179174511+177364400+175498914+173674863
3456+171895825+170155789+168440147+166698543+164922288+163154079+161486059
3443+159916565+158303310+156581295+154873513+153379239+152086360+150804227
3429+149530843+148381831+147297748+146145333+144916130+143691021+142505534
3416+141296131+140083090+138987851+138016995+137101993+136161368+135044856
3402+133770933+132725805+132100901+131537254+130715376+129826594+129232833
3389+128927474+128619506+128172548+127638301+127122122+126705851+126413952
3375+126209951+125956785+125570557+125256731+125283582+125583058+125876629
3362+126049266+126207729+126467151+126795221+127061836+127288257+127698353
3348+128317644+128924316+129446553+129959223+130496137+131142582+132001707
3335+132985742+133946061+134848117+135689746+136529470+137510897+138672902
3321+139906630+141124687+142305380+143494142+144732513+145921450+146979840
3308+148054018+149400669+151069720+152805078+154371730+155804478+157269561
3294+158860643+160588646+162425186+164280965+166105612+167949696+169846523
3281+171773370+173685751+175570193+177467780+179421186+181517652+183829230
3267+186252258+188645500+190997179+193372318+195811496+198282870+200796543
3254+203402090+206032710+208628573+211305668+214167959+217126520+220089549
3240+223089182+226119362+229118644+232152707+235363616+238713784+242058550
3227+245385166+248757976+252180348+255612239+259042259+262495622+266003622
3213+269561534+273126113+276681874+280242734+283832433+287458315+291083519
3200+294709518+298397125+302150666+305892068+309555490+313149563+316746185
3186+320385867+324024870+327620206+331200292+334793125+338349705+341854149
3173+345349192+348833288+352308356+355781857+359202076+362511010+365717732
3159+368887803+372059488+375179413+378227158+381295111+384399692+387440210
3146+390363197+393178031+395912663+398624841+401387073+404183734+406889644
3132+409436694+411885509+414319401+416755305+419112246+421314959+423438288
3119+425588094+427750342+429892243+431996860+433983081+435818113+437599303
3105+439391814+441161263+442864192+444487177+446046402+447562451+449026950
3092+450403879+451690057+452926931+454109121+455206080+456240028+457261253
3078+458294967+459304871+460195583+460914290+461515816+462074400+462619184
3065+463127293+463569211+463937453+464187438+464286655+464279171+464211762
3051+464078864+463825605+463414093+462891389+462307685+461634727+460829808
3038+459870424+458743527+457450753+455979939+454321683+452471775+450380723
3024+448023548+445440806+442632825+439506702+435953397+431956724+427562760
3011+422740678+417358281+411274954+404411172+396736903+388174027+378571355
2997+367800551+355681049+341876323+326112554+308397461+288836367+267445737
2984+244462247+220899498+198641568+179832955+165955979+157370147+153475662
2970+152828409+153800914+156005006+160623683+169254493+182452863+198856633
2957+215531626+229395691+238634635+242854863+242242858+237206577+228682948
2943+218431527+209081273+203348575+202505367+205808219+211515119+218237092
2930+225534044+233539787+242308278+251639821+261221021+270676807+279517852
2916+287154348+293043193+296902501+298835651+299247350+298667482+297577891
2903+296293396+295006680+293662893+291788029+288821679+284446753+278562118
2889+271060065+261740942+250877282+239827420+231148790+227943869+231992116
2876+242337538+256363761+271939176+288091066+304325147+320138221+335120575
2862+349069918+361930885+373859881+385270243+396650268+408264468+419982844
2849+431392574+442030690+451635420+460216586+467894223+474795195+481088746
2835+487002781+492724510+498334157+503855440+509284007+514549550+519561086
2822+524297890+528765063+532941132+536819128+540472305+544052508+547689968
2808+551435486+555258517+559068122+562764664+566275213+569568289+572622746
2795+575428856+577998875+580267919+582173961+583828990+585344056+586700777
2781+587901163+588973096+589926023+590766401+591471075+592040651+592493843
2768+592848752+593193324+593560068+593894021+594238218+594647484+595055535
2754+595402164+595672498+595848526+595966081+596086115+596212277+596357290
2741+596618502+597144481+598056244+599347334+600864880+602403523+603783352
2727+604923909+605909862+606953587+608280884+610001496+612063545+614309761
2714+616516496+618500098+620220148+621698727+622994215+624239415+625511981
2700+626791096+628026286+629157674+630174408+631098005+631915696+632601424
2687+633137554+633516133+633743664+633874504+634035937+634419943+635192258
2673+636342779+637713674+639150713+640556786+641865558+643049993+644163559
2660+645258225+646303728+647284629+648246445+649200308+650117450+650999321
2646+651861170+652716939+653585758+654429785+655177682+655830899+656451698
2633+657088355+657718276+658261657+658715129+659182681+659699679+660183043
2619+660580895+660904837+661179007+661433529+661693759+661969799+662249395
2606+662497649+662707498+662896812+663049871+663177764+663325865+663495017
2592+663666039+663811147+663922480+664040549+664189633+664372677+664615646
2579+664943283+665321910+665719388+666160884+666649300+667129483+667562980
2565+667959757+668341470+668715138+669055266+669326067+669532501+669709839
2552+669892510+670079016+670276048+670530991+670882346+671361265+671979351
2538+672681873+673401141+674141039+674917611+675715140+676534561+677367502
2525+678185005+678988990+679808037+680646123+681486735+682317149+683111637
2511+683895226+684742855+685654805+686561749+687435901+688302990+689179622
2498+690072158+690961607+691801471+692571961+693288283+693997353+694728082
2484+695454835+696172373+696905020+697645806+698383552+699145857+699948718
2471+700776139+701597525+702399124+703204605+704032587+704898038+705807602
2457+706708746+707529991+708277467+709007354+709724003+710399159+711027115
2444+711631355+712248412+712866077+713432005+713948207+714444716+714904550
2430+715335521+715762517+716153633+716492778+716797868+717085370+717374181
2417+717660607+717947968+718277476+718683796+719174036+719748524+720381813
2403+721021184+721611249+722105653+722570679+723068918+723624274+724212890
2390+724737278+725046485+725038533+724753557+724354863+724024933+723832626
2376+723734532+723721480+723853022+724203534+724758235+725375573+726015037
2363+726913327+728295776+729991034+731515690+732408086+732272989+731099173
2349+729704795+729000216+729471791+731143004+733179278+734570849+735257840
2336+735663505+736062573+736546638+737064057+737472247+737747586+738087901
2322+738641058+739275517+739732264+739986178+740239859+740650715+741244055
2309+741946764+742673190+743363081+743986406+744583348+745208919+745853295
2295+746470866+747044559+747570913+748046324+748469250+748825796+749114046
2282+749382181+749672724+749951945+750155339+750284214+750397605+750516142
2268+750608109+750679540+750783248+750943699+751163278+751467854+751865472
2255+752325072+752837626+753377404+753860768+754451348+754947108+755419339
2241+755927822+756467414+756995030+757498930+758032112+758602344+759157419
2228+759691163+760223177+760749764+761267276+761750920+762185120+762602104
2214+763014458+763384851+763687228+763964579+764257741+764536822+764802478
2201+765171655+765752833+766505127+767320759+768140133+768948562+769717041
2187+770413294+771065669+771731095+772434412+773143623+773791601+774365434
2174+774922568+775483350+776030520+776586577+777155920+777725403+778302886
2160+778862826+779406300+779980929+780575158+781140337+781664024+782142523
2147+782586031+783031083+783484836+783924648+784354263+784826868+785380727
2133+785988381+786625600+787302019+788015393+788732884+789429698+790129413
2120+790848682+791561494+792235575+792880371+793524607+794161545+794785759
2106+795407727+796011827+796588233+797184473+797843772+798527956+799157316
2093+799703503+800205157+800714764+801213985+801619462+801908554+802145628
2079+802368108+802560742+802720538+802859470+802974920+803055192+803121244
2066+803290863+803695030+804297071+804966941+805679006+806463016+807297360
2052+808128429+808908603+809611499+810216721+810710048+811102240+811428287
2039+811737120+812078136+812465370+812898259+813420683+814065386+814794665
2025+815581107+816409370+817215834+817984032+818758032+819517249+820208076
2012+820844172+821460527+822026642+822494990+822914033+823358523+823795716
1998+824122418+824327870+824557834+824930379+825362146+825699794+825937897
1985+826192467+826501954+826785152+826996498+827209621+827502455+827821205
1971+828069319+828295166+828603063+828948570+829224377+829451908+829675884
1958+829803029+829762706+829622370+829426274+829095549+828532615+827779011
1944+827003234+826330183+825746479+825185135+824666735+824268461+824007062
1931+823887683+823989380+824470451+825525497+827144599+829088812+831217989
1917+833365970+835213633+836708023+838036256+839293759+840464254+841504330
1904+842396960+843180876+843890602+844544286+845170839+845767735+846372115
1890+847056767+847763686+848363388+848869439+849383443+849900253+850371407
1877+850821699+851222779+851530769+851948877+852719414+853669956+854443113
1863+854981255+855451754+856005052+856642364+857236546+857673740+857946927
1850+858102793+858310116+858826552+859584553+860197634+860600959+861035626
1836+861547572+862031357+862597752+863363893+864145844+864827035+865538257
1823+866288493+866928425+867454404+867993106+868565396+869149568+869782109
1809+870437758+870991430+871342644+871622567+872120198+872784268+873229413
1796+873484918+873989192+874785177+875425202+875702038+875844994+876134554
1782+876598598+877024938+877186605+877167707+877388876+878027966+878689229
1769+879033613+879134561+879224470+879486991+879893778+880301220+880618099
1755+880794361+880965945+881443835+882240756+882924285+883241725+883416303
1742+883681351+883851625+883812425+884036307+884795524+885555958+885869562
1728+885872556+885746160+885415996+884880474+884475091+884553305+884957566
1715+885087517+884688588+883986909+883250520+882491302+881621033+880864341
1701+880470840+880257623+879894995+879141484+877892401+876200044+874198386
1688+872383001+871185655+870260748+868854208+866865554+864846869+863120176
1674+861529796+860055895+858791749+857558571+856212281+854917636+853782693
1661+852549234+850938832+849356872+848629278+848583715+847959501+846692829
1647+845639000+844983538+844257533+843316441+842644232+842946048+844244342
1634+845505120+846182100+846869091+848107041+849909796+851996591+853832184
1620+855356887+857457342+860492433+863460725+865768221+867794765+869786412
1607+871675614+873485292+875252589+876880299+878303773+879598979+880844601
1593+881992268+882993986+883891200+884706177+885373708+885790506+885929906
1580+886060980+886598092+887308941+887471449+887186100+887014422+886901124
1566+886341278+885186687+884046224+883850502+884486879+884545072+883556546
1553+882172085+880848998+879511129+878010751+876530488+875616901+875403404
1539+874949932+873559203+871671778+869747025+867793549+865662876+863329838
1526+860991748+858797082+856572383+854199584+851654920+848811808+845597741
1512+842005049+838300648+834761283+831045095+826625356+821382219+815259270
1499+808096151+799665238+790116877+779355685+766347623+751014288+734962106
1485+719461678+704742499+690855373+678294888+667282683+656683626+644196959
1472+629193507+614664811+603319401+594694357+586400879+576964833+568342969
1458+566247099+575700547+593747323+613698037+631970707+647175167+658351238
1445+665161412+668560675+670310524+672193878+675086669+678285813+680656461
1431+682038723+682844344+683454244+684170144+685157782+686549586+688567617
1418+691189138+694022661+696813848+699608263+702480378+705453535+708484229
1404+711334311+713678762+715238549+715406812+713199609+708257446+701162530
1391+691921879+679886905+666545545+656243252+653050002+658916184+672859211
1377+691035658+709524632+726234475+740703294+753465067+764491587+772914174
1364+778393776+781263599+782129986+781771100+780840954+779581065+777900636
1350+775755227+773734250+773191712+774993952+778361125+781884819+785104546
1337+788315525+791784441+795683441+800167641+805272312+810863950+816787435
1323+822942942+829256561+835608819+841817466+847750681+853355604+858531940
1310+863047014+866690509+869448858+871494207+873076167+874391301+875601277
1296+876877211+878333804+879928582+881511477+882939442+883979799+884190770
1283+883117762+880709598+877445759+874274448+872555333+873544140+877536790
1269+883631953+890492227+897108503+902932443+907738200+911418275+913916535
1256+915264882+915403066+914056683+911093444+906587258+900449246+892705417
1242+884226416+876465185+870532438+867419881+868367148+873926602+883279242
1229+894716337+906527194+917464881+926798342+934450952+940787960+946060942
1215+950349794+953821330+956738726+959349161+961730194+963754305+965399978
1202+966872289+968306709+969633351+970683157+971474464+972136756+972725606
1188+973120137+973209765+973102548+972988221+972883343+972595842+972009051
1175+971234864+970292462+968982473+967227338+965202666+963034382+960589169
1161+957770102+954825854+952036444+949321132+946426657+943204264+939481901
1148+934957845+929455275+923107694+916215143+909097493+902138891+895767828
1134+890154017+885049439+880237134+875879984+872025986+868186022+863696021
1121+858128615+851111165+841793328+828769034+810571490+786038060+754319573
1107+715202997+670520981+625256944+585611817+554983178+532691849+517058990
1094+508329021+508073282+516914397+533174417+553103051+571935755+584448900
1080+585143937+569033048+533657687+483149532+431314266+396400564+387526634
1067+395672268+399913546+383660871+345996023+299312817+258550054+233139806
1053+226791244+241176095+277461885+335187282+410575660+496192070+582850287
1040+662218334+728726420+780218003+817191789+841185955+852932538+851333738
1026+832473902+789715609+721438215+643385817+587450966+579384037+617869007
1013+679867960+743289264+799190622+847096248+887730697+920955877+946339181
999+963906242+974625286+980016430+981141363+978163154+970801507+958932457
986+942375253+919931332+888774328+844465324+781683531+697719155+599553020
972+508220214+451737818+449381345+501094518+589299002+689807110+783721863
959+861946874+922548783+967127326+998785422+1021044942+1036950894+1048465549
945+1056671831+1062433556+1066620244+1069715305+1071800884+1073030226
934+1073665106+1073741823+1073091132+1071635849+1069426120+1066548766
922+1062938484+1058257159+1052210833+1044724006+1035860484+1025848546
910+1015183860+1004895554+996667098+992098229+991058808+990804332+987310061
897+977156572+958082490+929096389+891550640+850488728+813440611+786262972
883+772475858+777826960+808012418+858238545+912920337+958150412+989145655
870+1007369769+1015741835+1016062643+1009027136+996766550+985250492+982162915
856+990349269+1005075184+1019474770+1030219355+1037114339+1040762417+1042088217
843+1042185891+1041746266+1040822013+1039246415+1037244103+1035215033
831+1033102697+1030524539+1027495716+1024457818+1021531814+1018270688
820+1014253526+1009631891+1004759241+999556989+993564084+986612592+979379867
806+973119108+969020925+967668367+968462669+969793147+970314073+969623153
793+967850711+965407088+962723959+959792716+956351119+952478783+948449552
779+944306649+939793072+934578751+928979255+923908919+919949482+916935815
766+914133775+910654006+905758247+899024275+891129071+884716001+882756537
752+885247593+889174753+891909994+892934820+892686425+891573936+889895705
739+887861303+885634452+883274096+880795764+878318835+875932564+873495864
725+870868963+867937159+865247668+862729200+860305131+857940378+855561591
712+853158759+850754805+848426726+846169657+843852243+841456709+839129753
698+836974193+834934271+832916240+830931610+829036982+827302711+825757051
685+824360428+823081874+821815764+820463861+819109058+817711594+816078084
671+814606802+814072122+814112913+813570842+812671196+811870720+811271392
658+810962372+810900156+810906799+810989129+811241266+811533165+811738804
644+811994215+812442074+813043741+813703787+814402099+815211369+816221881
631+817418853+818704985+820088977+821444061+822652914+823672689+824874245
617+826730982+828989735+831069888+832855615+834479676+836124600+837830430
604+839546083+841525380+843881340+846152629+848168040+850460755+853220694
590+855814850+857905762+859930434+862181703+864429791+866492448+868623682
577+871114832+873855966+876426920+878669956+881012630+883597804+885850663
563+887568562+889365984+891682743+894296546+896852437+899236931+901480434
550+903601939+905657205+907661296+909574635+911477964+913471389+915658945
536+917889818+919714934+921180789+922694639+924217003+925546826+926831367
523+928191971+929590184+930915797+932008546+932973589+933802974+934167754
509+934140716+934045849+933820095+933277463+932557353+931762116+930464758
496+928174288+924988850+921299420+917199740+912628999+907926718+904202764
482+902713987+903174102+903617283+902601531+900183263+896619199+892031805
469+887161775+883623813+883416490+887190684+893580552+900838912+907736141
455+913131215+916570754+918408874+918882742+917725906+915191159+912604862
442+910507401+908047032+905193442+903177189+902676471+903599320+906204141
428+910165449+913648587+915685235+917446918+920064744+923188060+925935463
415+928312005+930003052+930058345+929338983+929510006+930461202+931015436
401+929856074+927335454
##END=
