##TITLE=29
##JCAMP-DX=4.24
##DATA TYPE=INFRARED SPECTRUM
##DATE=16/11/2015
##SAMPLING PROCEDURE=Instrument type and / or accessory
##ORIGIN=Default
##XUNITS=1/CM
##YUNITS=TRANSMITTANCE
##RESOLUTION=4
##FIRSTX=3996.3359
##LASTX=399.24785
##DELTAX=-1.9287336
##MAXY=1.3507166
##MINY=0.16012742
##XFACTOR=1
##YFACTOR=1.2579529e-009
##NPOINTS=1866
##FIRSTY=0.46202761
##XYDATA=(X++(Y..Y))
3996+367285314+367385978+367520472+367677545+367855986+368076764+368312206
3983+368518153+368733198+369040092+369382026+369645875+369886292+370185938
3969+370488686+370749076+371011763+371274047+371481629+371664074+371860166
3956+372038536+372217949+372417594+372545361+372627237+372857965+373129489
3942+373208428+373322359+373663985+374026933+374238447+374253065+374227573
3929+374456240+374822978+375008883+375165434+375507107+375708221+375542762
3915+375415138+375665648+376097277+376546863+377090693+377449140+377238313
3902+376717155+376344683+376378490+376995099+377761650+377853026+377548406
3888+377749804+378033055+377886218+377857480+377914765+377956651+378434359
3875+379070466+379373712+379190983+378685390+378572123+378788470+378698468
3861+378645092+379374565+380902406+381819585+380422779+378231089+377970605
3848+379188211+380268218+380710034+380894991+380985562+380611124+380045498
3834+380036567+380403376+380696175+381003259+381446212+382038206+382327428
3821+381874856+381579664+381691416+381387719+381277342+382064148+382925818
3807+382966117+382766543+382950978+382692982+382053345+382020983+382286205
3794+382457065+382709210+382974480+383148870+383254983+383367658+383548563
3780+383534609+383211367+383091064+383487085+384004688+384046314+383621082
3767+383268629+383219209+383488743+383814685+383763963+383792819+384566002
3753+385361456+384878891+383711060+383560859+383656595+382692555+382225248
3740+383287108+384309404+383986209+382942662+382318567+382461875+382942781
3726+383103028+382826339+382461472+382159315+382055051+382406082+383041881
3713+383064577+381992648+380810816+380419036+380504514+380192762+379127467
3699+377888658+376947101+376270933+375716655+374783343+372920368+370841045
3686+369894702+369982502+370231282+370497618+370642845+369855470+368597471
3672+368173471+367848381+366998083+366666834+366979533+367174061+367147029
3659+367019239+366537835+366080857+366272921+366100568+364398858+362365615
3645+361545807+361585774+361482528+360950804+360218748+359470938+358930851
3632+358527131+357213197+354739417+352978645+352619914+352412379+351281246
3618+349398749+347763493+346609996+345427761+343981086+342163976+340200669
3605+338631771+337334800+335780876+333978170+332156228+330220331+328302889
3591+326727240+324983289+322416971+319763920+317903076+316423092+314700083
3578+312712374+310645347+308625939+306763034+304920646+302618674+299900472
3564+297543537+295667531+293737344+291613031+289491988+287361090+285073569
3551+282772734+280555742+278113637+275448101+273025256+270945554+268853415
3537+266508870+264066385+261797344+259659409+257388780+254886784+252295448
3524+249798427+247484041+245278420+243011819+240654315+238318535+236059302
3510+233811488+231553865+229304914+226913058+224411535+222112548+220022754
3497+217917489+215749206+213611650+211494398+209300125+207107180+205041148
3483+202920412+200576697+198299730+196316499+194404435+192327671+190052706
3470+187703174+185533339+183675564+181955292+180124074+178177931+176269765
3456+174422686+172604037+170875935+169247714+167591776+165844081+164128737
3443+162496276+160823860+159050295+157309648+155809644+154517874+153224338
3429+151913330+150701411+149554346+148352578+147096403+145890750+144768276
3416+143608903+142395289+141247975+140191541+139240200+138350254+137295407
3402+136058765+135035451+134405042+133821221+132976952+132060603+131451350
3389+131139315+130808918+130354451+129858916+129380580+128948466+128598891
3375+128351579+128110155+127742753+127367343+127292065+127574167+127924239
3362+128144590+128360381+128673115+128982948+129197092+129383494+129759318
3348+130366297+130969710+131477505+131999326+132574689+133242779+134091833
3335+135060113+136017946+136950938+137862146+138751926+139730653+140874722
3321+142077082+143253820+144447604+145701410+146982603+148173899+149224755
3308+150289825+151616777+153286776+155087823+156749969+158238009+159690879
3294+161222534+162915111+164796602+166738599+168610127+170444033+172317220
3281+174237232+176156012+178056052+179977687+181943127+184023788+186321093
3267+188762807+191189786+193557714+195914460+198306470+200745827+203260807
3254+205885002+208571007+211233487+213913759+216751483+219739100+222746523
3240+225736935+228734858+231720864+234757498+238014626+241454033+244857097
3227+248179209+251500516+254859563+258286982+261780334+265280366+268777034
3213+272318882+275899820+279476185+283050702+286662202+290322978+294016828
3200+297729133+301429901+305089682+308718144+312353335+316020603+319702512
3186+323356134+326974883+330595101+334233513+337857285+341416355+344904258
3173+348356600+351820599+355311700+358769491+362140193+365443258+368710193
3159+371935764+375100425+378200315+381282720+384409025+387537344+390580351
3146+393516226+396344165+399074212+401780118+404538855+407310054+409988573
3132+412541102+415020711+417483972+419924916+422298531+424567382+426741896
3119+428868365+430982040+433102301+435192569+437182529+439080331+440937099
3105+442747149+444485225+446173455+447836761+449443399+450952192+452372617
3092+453734857+455062698+456351874+457565097+458698433+459756479+460747479
3078+461731182+462727393+463669021+464482101+465140051+465690585+466214491
3065+466707219+467114801+467441549+467684099+467799901+467807387+467757589
3051+467639086+467421317+467096038+466637140+466024630+465300392+464500201
3038+463544785+462358238+460993914+459493318+457829632+455980397+453902638
3024+451565271+448964364+446072199+442849684+439238682+435197497+430744228
3011+425865562+420464695+414419667+407632159+400015271+391448701+381825507
2997+371074165+359014955+345286017+329560225+311809150+292193748+270794239
2984+247829197+224214330+201767555+182714000+168649975+159950534+155986688
2970+155311065+156304647+158543968+163145970+171712622+184883125+201359594
2957+218230709+232401297+241972063+246436395+245961554+241016197+232517952
2943+222174761+212666042+206748070+205712673+208895031+214572989+221302075
2930+228610717+236616423+245365343+254684059+264285149+273780174+282655155
2916+290319093+296233678+300114380+302065533+302484345+301877473+300722744
2903+299388483+298126433+296870543+295091837+292195075+287885588+282081877
2889+274639831+265355846+254507133+243412365+234625823+231264194+235123574
2876+245319761+259292931+274869682+290989339+307182959+323053078+338154537
2862+352185750+365100376+377085647+388542558+399927567+411495613+423151506
2849+434524622+445174542+454799110+463364780+471034403+477953871+484241876
2835+490131443+495858536+501499441+507035442+512429154+517639449+522645384
2822+527428623+531941735+536140988+540033203+543708598+547305006+550915439
2808+554599362+558379518+562194738+565950208+569541025+572883796+575968617
2795+578800797+581364272+583623979+585554901+587226973+588741689+590115206
2781+591327055+592391781+593357574+594243669+594985202+595538674+595966109
2768+596345783+596714370+597080113+597427710+597757774+598104376+598474052
2754+598840838+599159057+599371140+599489217+599568772+599663157+599856808
2741+600194881+600728784+601593842+602838432+604321686+605838297+607227213
2727+608387747+609368702+610412912+611749802+613457317+615524415+617818569
2714+620076902+622093159+623823322+625293878+626581443+627824564+629097347
2700+630386381+631655609+632846989+633927636+634894660+635723708+636400042
2687+636951098+637376353+637636861+637782941+637958492+638330822+639051932
2673+640147505+641500410+642960731+644392955+645694972+646861191+647974722
2660+649080434+650155301+651184491+652168194+653118919+654057466+654983458
2646+655874955+656726698+657562664+658361718+659091642+659785981+660450517
2633+661078332+661703352+662305533+662838915+663317191+663770166+664199828
2619+664595233+664939465+665228165+665483697+665728995+665974293+666227172
2606+666487254+666741080+666963540+667136343+667286640+667435562+667562878
2592+667684461+667820164+667952360+668093465+668269916+668471149+668689060
2579+668960276+669320144+669753881+670200033+670632301+671079637+671529294
2565+671952939+672357110+672722664+673013970+673265617+673527120+673757161
2552+673932428+674093196+674272443+674505895+674829089+675277705+675870599
2538+676568208+677317937+678097186+678887711+679693068+680537230+681387362
2525+682196509+682990067+683797887+684600116+685404667+686226038+687024335
2511+687812823+688671484+689609653+690545357+691437944+692326551+693222265
2498+694117127+694997679+695821230+696581336+697308132+698032654+698765847
2484+699489280+700192574+700900608+701654791+702459294+703272990+704071997
2471+704876168+705682520+706474656+707284514+708141422+709039316+709959716
2457+710875710+711730201+712471686+713141577+713834021+714562144+715246012
2444+715860039+716459946+717045116+717593803+718145427+718691413+719159407
2430+719566990+719994899+720437733+720818260+721095162+721309899+721531174
2417+721790355+722082845+722420633+722855129+723390548+723971265+724566386
2403+725181503+725805764+726362032+726878593+727403588+727952038+728508306
2390+729051448+729534842+729933801+730309921+730738731+731208289+731662732
2376+732096090+732507558+732862309+733198865+733474677+733410995+733133146
2363+732922437+732836959+732946649+733171383+732854396+731376354+729738965
2349+730379384+733981098+737795181+739027119+738475163+738060142+738261659
2336+738813046+739353393+739749225+740022194+740206321+740400399+740746148
2322+741206277+741559369+741784767+742206990+742922083+743648074+744252103
2309+744861486+745592026+746418609+747268789+748062679+748766779+749436811
2295+750111440+750740629+751312438+751856339+752364277+752801852+753191287
2282+753576599+753946465+754262031+754489750+754618677+754681317+754732347
2268+754796550+754875394+754966984+755086672+755250946+755471510+755787313
2255+756233464+756786747+757358556+757872180+758481421+759007553+759504688
2241+760022102+760551410+761074273+761605380+762168898+762737864+763273378
2228+763789845+764306169+764816855+765323087+765811172+766277176+766737163
2214+767168389+767512574+767760193+768003975+768276850+768526696+768804498
2201+769218382+769809571+770554704+771382614+772214599+773024173+773791528
2187+774473454+775089660+775718517+776403380+777109234+777764530+778346669
2174+778899335+779453613+780014714+780602443+781191547+781748051+782293137
2160+782818038+783344075+783935738+784552560+785127070+785663721+786157018
2147+786593219+786996300+787413453+787859889+788305471+788764937+789295476
2133+789900974+790561483+791255965+791950778+792644786+793351824+794068338
2120+794776751+795452279+796099142+796764957+797448399+798099621+798732174
2106+799381690+800008462+800586526+801184300+801851537+802542655+803174545
2093+803723610+804214775+804700064+805194640+805636337+805979385+806244441
2079+806444679+806578486+806685380+806811038+806950437+807074673+807185263
2066+807354039+807702772+808266432+808951579+809691311+810477288+811273404
2052+812051705+812819108+813553723+814215842+814780260+815211817+815519328
2039+815791871+816109332+816476355+816885927+817393391+818042339+818793632
2025+819592970+820409556+821213254+821986722+822738205+823476799+824176351
2012+824823308+825445722+826022458+826503673+826922342+827342812+827768874
1998+828150964+828463687+828740494+829029242+829357316+829673072+829922208
1985+830177408+830482171+830767223+831003660+831249195+831555190+831882506
1971+832154386+832369691+832583385+832838775+833137947+833445552+833687676
1958+833764909+833676683+833522501+833323685+832988124+832451852+831741971
1944+830885773+829985984+829264826+828761911+828339545+827957739+827659136
1931+827495952+827582661+828096285+829158785+830750260+832712928+834785712
1917+836775672+838649261+840357202+841800465+843006818+844105991+845146506
1904+846080126+846900313+847659471+848372100+849025122+849656633+850292977
1890+850857489+851372345+851954009+852565146+853130321+853643187+854112176
1877+854600024+855175624+855772451+856211874+856496451+856959471+857735971
1863+858521095+859129862+859702335+860334793+860937116+861414824+861798526
1850+862183838+862605635+862876946+862916179+863161524+863820611+864552098
1836+865194507+865889226+866620144+867207590+867685108+868208018+868816691
1823+869566942+870393288+871107813+871723877+872344110+872922363+873404051
1809+873898817+874503888+875083184+875473045+875775628+876225760+876868737
1796+877515031+877869450+877950853+878246802+878866847+879413164+879770047
1782+880108356+880468083+880856901+881292534+881593695+881569531+881436481
1769+881564318+882019283+882606065+883030894+883244399+883500073+883923291
1755+884470841+884956983+885169161+885310075+885709413+886282265+886809440
1742+887189066+887463978+887807878+888035313+887809016+887634838+888029248
1728+888611481+888943536+889003807+889037543+889028161+888499849+887485016
1715+886801764+886750970+886908658+886818253+886295247+885629906+885117040
1701+884303202+882963611+881654440+880512811+879550762+878717308+877735169
1688+876569850+874843619+872315871+870079523+868766087+867687477+866108700
1674+864183559+862495424+860953037+859450830+858338200+857382121+856108012
1661+854820257+854054275+853666309+852754390+850808875+849095532+848322349
1647+847571814+846618293+846127603+846173279+846432555+846651745+846801473
1634+847296618+848423178+849938368+851578647+853321935+855131463+856940707
1620+858834008+860904517+863171569+865674394+868306005+870751877+872828073
1607+874667926+876459923+878213540+879847659+881333377+882673442+883875530
1593+884953950+885926898+886806028+887600913+888291083+888848582+889342211
1580+889820961+890062516+889914778+889783529+889842283+889692839+889290564
1566+888983716+888891321+888783005+887997407+886366700+885031468+884386974
1553+883848428+883168587+882411324+881557401+880529206+879302195+877691293
1539+875812113+874408650+873315921+871801110+869999826+868254643+866332344
1526+864172851+861811509+858949620+855858118+853038968+850372010+847702494
1512+844958872+841876182+837756295+832377556+827173373+822730339+817676832
1499+810726424+801878166+792242416+781888113+769023262+753268141+736863788
1485+721508098+707170180+693618239+681359928+670603256+659969350+647008455
1472+631522181+617075663+606149409+597689734+589380639+580210277+571821675
1458+569131547+577427943+594978331+615249598+633887693+649091616+660115856
1445+666947620+670619792+672727165+674649226+677041035+679735806+682109373
1431+683683838+684526437+685151646+686008696+687199033+688589371+690131805
1418+692138017+694815873+697826731+700832235+703815611+706826327+709807145
1404+712653918+715176881+716925002+717062269+714604693+709441828+702517480
1391+693757116+681967511+668425993+657816822+654433871+660147460+673957635
1377+692068081+710465711+727041067+741511987+754466959+765788760+774484304
1364+780008459+782704936+783504512+783294229+782538672+781369230+779731273
1350+777614566+775594139+775022946+776828020+780220448+783655377+786664387
1337+789731677+793201622+797130559+801580985+806621699+812172341+818088394
1323+824264387+830578547+836870531+843015347+848929979+854517105+859672484
1310+864228098+867955376+870745528+872762685+874336155+875689582+876939242
1296+878217804+879644295+881212458+882805923+884272973+885332345+885525286
1283+884420710+881964035+878617332+875356011+873574154+874509195+878422496
1269+884422132+891218169+897814442+903612609+908366660+912009219+914504747
1256+915863292+916001648+914666037+911772402+907403284+901419379+893767713
1242+885311686+877613112+871792391+868688854+869488666+874860108+884105903
1229+895530618+907359124+918309543+927665548+935356068+941744333+947117196
1215+951550659+955125366+958088368+960737037+963151257+965197413+966859014
1202+968336582+969748668+971015290+971989943+972753651+973426763+974021410
1188+974414494+974519208+974453631+974359435+974230177+973928825+973357206
1175+972567249+971551184+970183163+968448973+966465172+964272890+961791955
1161+959018387+956132050+953291105+950473566+947572161+944424842+940775650
1148+936298406+930797610+924429814+917532000+910411110+903425070+896992834
1134+891302794+886136611+881311866+876984255+873151694+869308140+864802845
1121+859234198+852227121+842912053+829904866+811777836+787372752+755803139
1107+716843173+672338346+627209874+587548557+556744688+534211393+518303653
1094+509242460+508606448+517070151+533032664+552794951+571589928+584180768
1080+585136610+569569928+534926107+485053392+433555654+398671795+389666015
1067+397765088+402202910+386252763+348712157+301879463+260792698+234976096
1053+228180272+242115370+277964833+335234985+410105228+495162491+581323807
1040+660320832+726660872+778297012+815633899+839999655+852060998+850879095
1026+832738325+790932628+723568848+646071850+590158040+581758303+619851694
1013+681514063+744602921+800132130+847697377+888101743+921204978+946551073
999+964160973+974986018+980525573+981814370+979006403+971890251+960393231
986+944278241+922287378+891604619+847831279+785656851+702257304+604386126
972+512949553+456040525+453131965+504345930+592151458+692290730+785788147
959+863567685+923781719+968055321+999461797+1021529325+1037304110+1048691677
945+1056772436+1062482472+1066698356+1069831839+1071913247+1073098182
934+1073676720+1073741823+1073139405+1071728930+1069546029+1066708211
922+1063135494+1058473649+1052424167+1044949995+1036145329+1026154212
910+1015422320+1005050060+996757123+992094993+990947679+990646802+987098250
897+976863967+957846624+929024471+891582823+850573006+813546331+786210749
883+771951012+776623139+806252022+856310523+911110377+956489028+987647600
870+1006102609+1014708554+1015229759+1008391931+996299884+984886446+981846874
856+989997475+1004619355+1018961775+1029721338+1036592049+1040116152+1041315018
843+1041384196+1040963631+1040082984+1038644364+1036739124+1034629666
831+1032421463+1029835150+1026812825+1023726061+1020686489+1017360539
820+1013388769+1008856277+1004083367+998923345+992863249+985843568+978595314
806+972318208+968178609+966702178+967310567+968579274+969224241+968668068
793+966923454+964416553+961630287+958687944+955368911+951638222+947736104
779+943726427+939311633+934160992+928546953+923296146+919204593+916317972
766+913660680+910138283+905142772+898401035+890589312+884227012+882185310
752+884568827+888513305+891329328+892385289+892093414+890874742+889081229
739+886974330+884691168+882246339+879705133+877260872+874967382+872613526
725+870057253+867127324+864493629+861901440+859388191+857153075+854930278
712+852506865+850010389+847655491+845488037+843333187+841042918+838668783
698+836409786+834429682+832651615+830819059+828842176+826915235+825198955
685+823665475+822295465+821024199+819688588+818126963+816061950+814028967
671+814270522+816312792+815119327+811223748+809798395+810742060+811398114
658+811242701+810756748+810225688+810024692+810332487+810771531+811021899
644+811249713+811691505+812361680+813126619+813866161+814677156+815739372
631+816992158+818229688+819433671+820767387+822148580+823311435+824488316
617+826141388+828205643+830260801+832094779+833788979+835578322+837552078
604+839584492+841648653+843803977+845857619+847655017+849555898+851942637
590+854541744+856950089+859229744+861511674+863733428+865971671+868401907
577+870826836+873074366+875290718+877446327+879588194+881868892+884017203
563+885912967+888060900+890676021+893376620+895908728+898256898+900322764
550+902074012+903936514+906240808+908578933+910580549+912438597+914444856
536+916510817+918311248+919928405+921647433+923237487+924375040+925454313
523+926838538+928142593+929037738+929816418+930849352+931976670+932793351
509+933141800+933121141+932867078+932273378+931319289+930244375+928843471
496+926583906+923406642+919653398+915652251+911574723+907441759+903749449
482+901657807+901453779+901836817+901432646+899581232+895971652+891037737
469+885967931+882393318+882095758+885478756+891329896+898420935+905545142
455+911013054+914368192+916340999+916943607+915673099+913127251+910646695
442+908248868+905217351+902303343+900781709+900667612+901463445+903228339
428+905981438+909059199+911933312+914636565+917319633+920401659+923622326
415+925674356+925935527+925036875+924569402+925013279+924839955+923333768
401+921113814+919088791
##END=
