##TITLE=29
##JCAMP-DX=4.24
##DATA TYPE=INFRARED SPECTRUM
##DATE=16/11/2015
##SAMPLING PROCEDURE=Instrument type and / or accessory
##ORIGIN=Default
##XUNITS=1/CM
##YUNITS=TRANSMITTANCE
##RESOLUTION=4
##FIRSTX=3996.3359
##LASTX=399.24785
##DELTAX=-1.9287336
##MAXY=1.3441068
##MINY=0.16124716
##XFACTOR=1
##YFACTOR=1.251797e-009
##NPOINTS=1866
##FIRSTY=0.46458414
##XYDATA=(X++(Y..Y))
3996+371133772+371192862+371277974+371454056+371671372+371879022+372082648
3983+372332033+372637462+372922129+373125685+373297361+373551103+373922526
3969+374318138+374650230+374911495+375103075+375245683+375428335+375679482
3956+375918320+376105686+376280101+376446064+376559936+376692520+376913098
3942+377110130+377265760+377461983+377686156+377900877+378052674+378171212
3929+378390123+378668982+378841564+378950269+379136897+379340834+379476656
3915+379613645+379792155+379920692+380001424+380192790+380444436+380571617
3902+380652229+380737889+380747222+380871807+381190139+381304939+381181640
3888+381343984+381669768+381791496+381973172+382142182+382105185+382170680
3875+382332167+382492678+382632953+382611312+382712280+382991377+383037326
3861+382853078+382760681+383132580+383873688+384019486+383411963+383129009
3848+383379132+383692535+383833453+383942468+384206090+384401598+384397170
3834+384478306+384670720+384804638+384867275+384863038+385007026+385307264
3821+385335572+385421517+385820438+385894980+385725707+385861149+386167125
3807+386156054+386036111+386321255+386519335+386393345+386476219+386615256
3794+386586377+386597686+386703415+386833548+386902638+386892329+386963252
3780+387090004+387082004+387028675+387105740+387276203+387327318+387201304
3767+387090289+387036508+387095694+387264061+387228278+387051054+387197876
3753+387616295+387641293+387189329+387184853+387530064+387206851+386646967
3740+386710010+387004177+387005629+386876521+386813549+386816192+386875878
3726+386878473+386784671+386679750+386498717+386161863+385821343+385727183
3713+385731921+385408685+384831516+384345769+384031199+383610613+382780298
3699+381705646+380606400+379473204+378369363+377319161+376135207+374912019
3686+374107845+373695473+373302766+372961198+372807543+372445501+371886521
3672+371807670+371850119+371460888+371078704+370865436+370547413+370177157
3659+369877847+369405766+368806385+368568071+368430867+367720376+366664198
3645+365871333+365343422+364755135+364011242+363208592+362349470+361511203
3632+360868873+360006465+358476706+356988515+356035781+355223702+354093411
3618+352573937+351052772+349676143+348278564+346847916+345259447+343507657
3605+341891571+340364407+338647210+336803404+334992310+333093580+331103643
3591+329277240+327459123+325269511+323035808+321180884+319424761+317482606
3578+315448911+313404906+311315525+309227214+307190091+305020549+302681615
3564+300500265+298479616+296363832+294171982+292025248+289860753+287559365
3551+285211766+282878665+280389149+277826305+275505823+273394800+271218758
3537+268885063+266506657+264196983+261935020+259596730+257108356+254563772
3524+252114872+249813435+247588160+245306913+242923340+240529007+238223618
3510+235961179+233661409+231333761+228921048+226473242+224204875+222096305
3497+219966379+217796599+215667696+213530866+211285140+209013130+206866919
3483+204740850+202462508+200216734+198192513+196228467+194116968+191803176
3470+189438400+187334376+185568481+183844927+181943090+179965105+178070624
3456+176256554+174469160+172706705+170946214+169165332+167431386+165816098
3443+164230022+162541620+160751405+159001782+157492438+156199779+154928582
3429+153656219+152458945+151297430+150082634+148823948+147614556+146466136
3416+145266505+144032103+142901740+141873643+140891436+139907776+138781258
3402+137532084+136529639+135917367+135334675+134502550+133620037+133035298
3389+132718335+132358257+131858427+131304412+130764990+130310765+130005860
3375+129813864+129556182+129143845+128812550+128847845+129187235+129530910
3362+129736024+129916510+130179168+130483810+130731053+130924180+131272045
3348+131877438+132531886+133075521+133567041+134102308+134785218+135679028
3335+136682139+137674334+138629853+139526306+140404712+141410418+142571350
3321+143748590+144898010+146095760+147361612+148631416+149812715+150885284
3308+151990018+153359290+155071309+156905877+158576899+160046890+161491215
3294+163056234+164797465+166707718+168659658+170517570+172336211+174243333
3281+176222462+178164569+180048681+181943090+183896899+185994685+188312287
3267+190748248+193173103+195591530+198053310+200561444+203072269+205598163
3254+208212146+210906598+213595099+216299146+219149539+222150395+225191463
3240+228228413+231261862+234269147+237303144+240512389+243895882+247303659
3227+250692009+254106880+257549345+261006022+264507411+268055415+271609299
3213+275173516+278768778+282383776+286008250+289653032+293316193+296973974
3200+300622351+304286274+307985765+311702946+315394772+319045030+322702906
3186+326399207+330075772+333701008+337330981+340978334+344566097+348079199
3173+351584968+355112806+358631765+362089157+365470888+368796481+372076054
3159+375330367+378558158+381683767+384703741+387759165+390896463+393996598
3146+396963814+399777138+402486923+405217182+408018722+410800834+413480526
3132+416052893+418554503+421016498+423422688+425754360+428016180+430223814
3119+432401213+434564755+436708775+438776992+440723551+442592022+444431971
3105+446233352+447982070+449680982+451336994+452955913+454525264+456014574
3092+457382180+458632557+459846651+461061745+462227367+463294520+464274966
3078+465243365+466240762+467189258+467993146+468640047+469178148+469684822
3065+470182544+470613510+470933532+471151943+471292360+471333976+471260506
3051+471119089+470907772+470534135+469976894+469336849+468672569+467904344
3038+466903281+465652094+464239730+462706757+461037794+459188132+457080156
3024+454682728+451999084+449022654+445731820+442067207+437991578+433513553
3011+428602800+423143234+417002293+410118221+402424976+393787614+384100479
2997+373293219+361136613+347251717+331321792+313377289+293623216+272068072
2984+248891175+225112160+202649064+183722651+169865264+161370939+157554243
2970+157003548+158143577+160517959+165289426+174156816+187677230+204374070
2957+221296011+235405390+244822880+249095612+248472256+243392112+234738538
2943+224307962+214835334+209012011+208073014+211357515+217150126+223989249
2930+231385852+239466115+248289818+257674335+267309331+276794696+285628804
2916+293236604+299103186+302960355+304884440+305260839+304637365+303483814
2903+302097162+300749864+299466061+297691607+294750531+290345143+284431994
2889+276892189+267513862+256588921+245492207+236800827+233633697+237769392
2876+248246441+262427171+278141589+294381132+310677932+326609786+341751487
2862+355814846+368738319+380720057+392196788+403628070+415244290+426957550
2849+438404545+449109171+458751214+467294250+474895027+481756958+488059552
2835+493991938+499731339+505373700+510927116+516341162+521549986+526521496
2822+531265595+535761523+539950429+543843024+547543540+551165776+554793011
2808+558504335+562329317+566174154+569895383+573409675+576712079+579816118
2795+582697461+585304158+587573930+589500587+591183834+592715665+594099888
2781+595319362+596384563+597319013+598137853+598819370+599359803+599797959
2768+600162692+600507379+600859398+601185468+601524298+601926456+602358470
2754+602776294+603116695+603312822+603399863+603469191+603574468+603741503
2741+604020576+604542201+605445605+606723028+608211433+609722313+611114155
2727+612292823+613310980+614398942+615771166+617504885+619570150+621818114
2714+624012701+625991782+627727121+629216955+630506995+631756991+633084314
2700+634444730+635721104+636863966+637917073+638876901+639680028+640313597
2687+640813985+641225143+641535881+641716914+641872330+642249348+643039713
2673+644205716+645566370+646983162+648373766+649672948+650877281+652029190
2660+653141054+654205826+655220412+656177717+657092311+657997287+658902929
2646+659799715+660693263+661577383+662393985+663105500+663750068+664379065
2633+665024776+665673343+666258154+666766590+667258265+667745845+668187953
2619+668582208+668947274+669251869+669482279+669714594+669993524+670261217
2606+670477200+670679660+670897738+671089485+671226140+671337893+671468121
2592+671628346+671770430+671878136+671996841+672147829+672330529+672563796
2579+672876533+673242790+673621855+674042917+674522307+675002840+675439187
2565+675849630+676260645+676649471+676969446+677222616+677438980+677609586
2552+677742384+677895801+678110070+678374144+678700832+679145606+679710514
2538+680370271+681129211+681951193+682763366+683555208+684354859+685160033
2525+685977159+686809426+687624075+688414822+689228424+690077071+690906148
2511+691713131+692562826+693467040+694381729+695292942+696202537+697081562
2498+697932637+698774713+699590886+700369920+701110432+701832232+702572507
2484+703333351+704084958+704826709+705595028+706387585+707174712+707975220
2471+708819010+709666324+710469308+711249008+712054753+712920399+713832660
2457+714739588+715597377+716371934+717062593+717738206+718450340+719143428
2444+719775235+720388758+720992757+721556379+722083909+722587393+723063259
2430+723523366+723965759+724348110+724643229+724887019+725138237+725413216
2417+725694288+725977123+726298621+726712350+727234880+727840451+728478924
2403+729098304+729676448+730188979+730685749+731219516+731796423+732344665
2390+732753918+732932047+732871099+732672115+732464322+732312001+732238245
2376+732272861+732426468+732648974+733009041+733559616+734049101+734451783
2363+735081685+736336919+738469654+740790660+742007849+740776852+737413786
2349+734949029+735653021+738347854+740587962+741682780+742193787+742527665
2336+742944537+743506921+744221864+744913761+745313444+745482335+745892588
2322+746767804+747595310+747864003+747869193+748171979+748794834+749490350
2309+750154250+750815578+751492667+752154234+752777279+753354424+753938616
2295+754546329+755127521+755658146+756145964+756551598+756831576+757038465
2282+757273827+757586469+757932584+758207324+758358693+758435639+758504205
2268+758576723+758648813+758732997+758848892+759011879+759241575+759583548
2255+760054844+760607419+761149757+761610911+762197245+762704538+763183214
2241+763689269+764213418+764738472+765260192+765796911+766364533+766923965
2228+767447495+767964882+768477746+768968469+769449288+769921774+770350835
2214+770726186+771081015+771403323+771657541+771873810+772117743+772430099
2201+772864207+773471159+774202577+774969278+775747216+776543343+777318853
2187+778022464+778670650+779316885+779991736+780675253+781309250+781882252
2174+782443351+783009210+783559357+784100552+784644938+785206655+785788180
2160+786349183+786895568+787466666+788030811+788562817+789092917+789620495
2147+790118312+790571895+790985196+791390354+791818177+792270951+792757007
2133+793323867+793994195+794711090+795415653+796106503+796828493+797592052
2120+798318661+798968704+799606368+800278410+800947785+801580401+802206066
2106+802847539+803481965+804091059+804700154+805341150+805997860+806624667
2093+807192622+807719628+808246634+808755355+809168465+809468060+809706899
2079+809913739+810080012+810202097+810307422+810424080+810513215+810559593
2066+810710724+811122786+811740737+812429444+813166433+813964655+814788209
2052+815606906+816403224+817124309+817721500+818210604+818618476+818951497
2039+819235856+819526594+819865044+820280439+820819444+821497581+822257806
2025+823035458+823816254+824597239+825383939+826189684+826971717+827661281
2012+828268662+828857282+829418666+829895675+830325927+830772272+831197953
1998+831518118+831731625+831975510+832355194+832782970+833112182+833341782
1985+833586715+833886215+834171145+834385985+834578922+834854138+835182589
1971+835435616+835638362+835903198+836205936+836457630+836685612+836925974
1958+837061868+837010348+836831029+836562479+836160035+835552559+834765574
1944+833958400+833267693+832671931+832074835+831494024+831027300+830708563
1931+830543338+830609238+831069011+832109118+833726514+835695024+837855519
1917+840046678+841950527+843471168+844796491+846055248+847225632+848267263
1904+849193285+850033885+850783539+851456724+852102006+852702815+853264199
1890+853897006+854613806+855262802+855798379+856314528+856813727+857252168
1877+857673087+858065532+858352652+858698149+859400378+860372492+861220329
1863+861796569+862269865+862825821+863450914+864015059+864439692+864726241
1850+864884038+865031264+865440851+866155746+866820741+867254802+867658675
1836+868146445+868619074+869127320+869825836+870612440+871329907+872059944
1823+872832930+873508591+874063309+874605456+875151317+875686227+876281799
1809+876943651+877512654+877850246+878085656+878521431+879156237+879616677
1796+879840373+880234437+880981521+881718319+882111621+882270847+882488449
1782+882865276+883247436+883395138+883305431+883372283+883897003+884594853
1769+885051007+885220422+885306034+885529540+885915224+886325763+886664498
1755+886885718+887063133+887441769+888111621+888775568+889162966+889366569
1742+889578838+889697019+889622072+889756823+890441340+891268989+891727905
1728+891844848+891767330+891427167+890803026+890191075+890012803+890291638
1715+890492955+890249832+889653689+888893463+888010105+886998757+886060260
1701+885422311+885072053+884786933+884224882+883146015+881510431+879435072
1688+877395139+875871451+874802774+873582299+871805583+869769459+867857611
1674+866100227+864527114+863242073+862133876+860953588+859692546+858509687
1661+857289879+855697625+853953478+852897276+852706529+852271135+851183508
1647+850220156+849747336+849260137+848453629+847741400+847891579+849166239
1634+850678881+851667374+852512735+853773778+855546209+857604521+859472658
1620+861019297+863017805+865945001+868950191+871334859+873366031+875326542
1607+877196869+878990441+880739635+882357792+883775489+885053483+886272053
1593+887404058+888398265+889269148+890049753+890713033+891140713+891232897
1580+891201851+891518207+892114731+892292812+891979980+891722762+891608676
1566+891127096+889970806+888568537+887855641+888174283+888454356+887868497
1553+886738873+885516779+884209455+882644341+880901908+879549063+878997583
1539+878617137+877529509+875811741+873935319+872041374+869927542+867509353
1526+865024789+862664881+860315353+857918877+855430694+852704434+849634107
1512+846096864+842241266+838396905+834531212+830280692+825240140+819138340
1499+811894344+803465394+794017098+783290569+770185182+754772264+738820245
1485+723542698+709012043+695234804+682751748+671792286+661199461+648698216
1472+633733405+619307599+608048160+599447320+591148884+581683970+572965948
1458+570724460+580076716+598078143+617941470+636053697+651114976+662247711
1445+669079978+672480231+674159193+675903673+678657359+681790634+684147399
1431+685519862+686307799+686882420+687535749+688425536+689675722+691546573
1418+694083515+696878293+699615742+702347858+705169396+708080831+711077783
1404+714019597+716533969+718182362+718276687+715869498+710815376+703903591
1391+694980110+683115338+669760352+659352084+656014540+661732799+675544416
1377+693614028+712039850+728757902+743309651+756206626+767394261+775972531
1364+781571848+784518852+785434637+785115710+784234589+783024733+781369436
1350+779234653+777230146+776689094+778464572+781791736+785253746+788377784
1337+791500679+794934644+798819097+803240365+808244348+813758862+819628682
1323+825721436+831974272+838282818+844444424+850331670+855918750+861101767
1310+865651025+869345112+872111845+874130256+875730128+877116495+878371442
1296+879617343+881015042+882603678+884239262+885703907+886711256+886832865
1283+885663149+883172775+879805995+876522446+874731636+875666895+879594964
1269+885616200+892379663+898885336+904616690+909356123+912990215+915458972
1256+916785057+916891810+915507634+912553964+908176979+902254878+894673861
1242+886289385+878681703+872936350+869903830+870801568+876234184+885456403
1229+896838261+908651132+919572359+928870954+936522155+942911933+948283792
1215+952688109+956260111+959245683+961872141+964237096+966261411+967914137
1202+969377163+970798289+972084758+973056490+973793384+974458664+975049379
1188+975392019+975408875+975265553+975167084+975114803+974857299+974240777
1175+973416176+972433587+971091694+969323930+967303995+965126454+962651317
1161+959816209+956867967+954015337+951194513+948265508+945083284+941408148
1148+936930599+931478937+925151916+918228847+911088367+904137681+897743998
1134+892053498+886856292+881993821+877638548+873797044+869967348+865497323
1121+859940716+852901085+843530306+830424109+812166989+787665031+756034687
1107+717007360+672456138+627376196+587827005+557108161+534621138+518754780
1094+509724973+509090976+517537448+533481371+553205471+571908746+584374137
1080+585192310+569460084+534704560+484950989+433864620+399509302+390880702
1067+399080717+403363234+387076243+349191134+302182250+261093968+235409223
1053+228856934+243051687+279111869+336537925+411465352+496480645+582531140
1040+661299739+727307827+778665460+815863933+840156574+852087150+850708783
1026+832443949+790643604+723401090+646279504+591084889+583488207+622061714
1013+683757906+746625721+801889139+849225854+889426754+922327093+947472714
999+964906757+975609049+981089661+982386225+979625016+972557292+961111915
986+945023670+923026370+892363664+848580952+786270999+702713781+604877603
972+513800649+457535692+455375387+507239837+595406117+695519067+788685521
959+865972332+925648829+969458395+1000521641+1022302006+1037839342+1049107685
945+1057127143+1062731460+1066840371+1069923365+1071973202+1073117492
934+1073674685+1073741823+1073130824+1071675511+1069433499+1066575916
922+1063035055+1058380472+1052275053+1044753936+1035959206+1026010092
910+1015334369+1005023569+996750036+992026411+990773178+990371590+986758068
897+976479551+957395163+928534790+891113001+850115592+813050728+785626336
883+771340471+776169421+806054998+856271484+911012849+956199163+987188796
870+1005511530+1014022092+1014557669+1007809538+995806301+984505009+981614477
856+989882106+1004521895+1018778095+1029371063+1036109766+1039686720+1041034136
843+1041185934+1040818820+1039940414+1038344160+1036226042+1033974888
831+1031645168+1028948239+1025897053+1022914433+1020028282+1016721592
820+1012692007+1008155225+1003343607+998114689+992079836+985137435+977925913
806+971681076+967572354+966049523+966606241+967909851+968628366+968173164
793+966503011+963946452+961081727+958153198+954885077+951147374+947198926
779+943188768+938824163+933694189+928068351+922859717+918817752+915875605
766+913134394+909592485+904589550+897840276+890037944+883707780+881809264
752+884383536+888347316+891031484+891958934+891575727+890303066+888522541
739+886505368+884375251+882131525+879724763+877157253+874561840+872029661
725+869478435+866598759+864100005+861644772+859159540+856850486+854516481
712+852003823+849508498+847230584+845093611+842876072+840532830+838236346
698+836122419+834147814+832196445+830223554+828257044+826420142+824797890
685+823310770+821958306+820783542+819603065+818072805+815765750+813208811
671+813088439+815643760+815393113+811661029+809849840+810400558+810803383
658+810557593+810175718+809895645+809943737+810308946+810571401+810619778
644+810821381+811404954+812266600+813208525+814102740+814984574+815956497
631+817045268+818213746+819443934+820704215+821930880+823030221+824358591
617+826284724+828433030+830279359+831891041+833573097+835371621+837136624
604+838911340+840938893+843228330+845463295+847522465+849689912+852053724
590+854267548+856363096+858762143+861359747+863680419+865731114+867949604
577+870363222+872685894+874896671+877132779+879539826+881928303+883863292
563+885493638+887455387+889913287+892466037+894840134+897071195+899218548
550+901350093+903655148+906047910+908088700+909723046+911391866+913445513
536+915577819+917214070+918566344+920155741+921857035+923241782+924256082
523+925312284+926650939+927867129+928805911+929918204+931042495+931591404
509+931621783+931471414+931200768+930694332+929942392+929086746+927901697
496+925671970+922261955+918492921+914703127+910391946+905742410+902093177
482+900679670+901113064+901535411+900613961+898317667+894830420+890326683
469+885399932+881515193+880929049+884561332+891005010+898358330+905119793
455+910097207+913208293+914766646+914906539+913924141+912095810+909971598
442+907751013+904867908+901953378+900469877+900265798+900523873+901640546
428+904137205+907432276+910759345+914112126+917780978+921335076+923769645
415+924911840+925011832+924307411+923764788+924065907+924635290+924564439
401+923120839+920922442
##END=
