##TITLE=29
##JCAMP-DX=4.24
##DATA TYPE=INFRARED SPECTRUM
##DATE=16/11/2015
##SAMPLING PROCEDURE=Instrument type and / or accessory
##ORIGIN=Default
##XUNITS=1/CM
##YUNITS=TRANSMITTANCE
##RESOLUTION=4
##FIRSTX=3996.3359
##LASTX=399.24785
##DELTAX=-1.9287336
##MAXY=1.3383703
##MINY=0.16261257
##XFACTOR=1
##YFACTOR=1.2464545e-009
##NPOINTS=1866
##FIRSTY=0.46909508
##XYDATA=(X++(Y..Y))
3996+376343527+376500518+376685555+376868272+377046639+377283129+377575329
3983+377849262+378076404+378314138+378579081+378828651+379078244+379354233
3969+379613557+379841393+380092516+380337662+380510027+380704269+380974927
3956+381231932+381494149+381777526+381916513+381912234+382051412+382324843
3942+382462802+382575847+382853629+383210649+383495174+383524487+383412685
3929+383590884+384014540+384262722+384385690+384637530+384793971+384676288
3915+384634231+384911631+385304036+385728385+386296144+386669470+386422340
3902+385868472+385504232+385534597+386127151+386896684+386997319+386663325
3888+386828924+387114453+386991725+386971258+387025796+387081553+387587673
3875+388248178+388565627+388373871+387836477+387718387+387967885+387877267
3861+387757575+388410190+389883504+390758957+389354694+387193929+386949357
3848+388176306+389295063+389791619+390012377+390095009+389667385+389028231
3834+388953179+389309194+389671473+390060125+390516441+391061725+391305173
3821+390814164+390430151+390445549+390173266+390198658+391088289+391968858
3807+391948846+391637231+391723354+391447532+390884124+390963480+391313709
3794+391522943+391787025+392068538+392262063+392358825+392421731+392533533
3780+392461230+392112340+391984160+392363870+392867599+392912167+392499701
3767+392175533+392188062+392521626+392840438+392699466+392610259+393262946
3753+393938537+393411975+392364109+392414822+392632949+391646078+391086639
3740+392086279+393080610+392721941+391643328+391031695+391223809+391710682
3726+391823511+391545011+391265388+391057971+390972972+391257019+391761466
3713+391583219+390294966+389013670+388658062+388801854+388489737+387373132
3699+386065225+385051765+384299615+383678728+382716029+380838402+378702360
3686+377675726+377744992+378045035+378330038+378403465+377532674+376270172
3672+375905262+375640630+374808669+374454662+374742248+374924105+374855030
3659+374628223+374048294+373554965+373766470+373664376+372056713+370072927
3645+369263968+369307531+369178156+368600641+367860111+367143203+366620825
3632+366187294+364794365+362224242+360386712+359991126+359784785+358674205
3618+356798993+355151664+354006319+352862265+351412310+349517827+347476515
3605+345867011+344495552+342816424+340917182+339046155+337072722+335110550
3591+333471064+331677767+329129043+326512105+324618315+323062680+321299676
3578+319314289+317233167+315165506+313289194+311482220+309152605+306284233
3564+303749735+301787086+299867808+297763542+295612221+293416763+291058265
3551+288702396+286458282+283987576+281278514+278816152+276689219+274555520
3537+272224374+269817746+267509434+265252385+262893002+260384016+257782285
3524+255204391+252800345+250578371+248334448+245960313+243570541+241248218
3510+238928119+236592741+234277639+231863121+229374602+227071024+224940218
3497+222775675+220572518+218419093+216253809+213999078+211753721+209630063
3483+207471785+205122898+202829984+200779586+198775083+196633015+194330621
3470+191985560+189856463+188027923+186232748+184259973+182244196+180366749
3456+178591706+176824949+175055382+173288552+171494083+169673720+167953407
3443+166357699+164700651+162892936+161109621+159594692+158307049+157022979
3429+155712383+154456168+153243888+152013735+150748208+149503793+148307138
3416+147084206+145841978+144679932+143618761+142664418+141746406+140625102
3402+139334351+138351902+137792571+137194315+136282460+135321100+134691749
3389+134382752+134048232+133534593+132969212+132482053+132090388+131778774
3375+131514082+131183626+130755989+130460095+130512362+130802613+131070712
3362+131241021+131441958+131740183+132060394+132318654+132547506+132944334
3348+133560714+134165294+134659316+135172453+135771929+136497946+137408115
3335+138402375+139364716+140294850+141172491+142041117+143069747+144294891
3321+145569803+146810225+148005912+149179494+150398063+151628969+152783005
3308+153929522+155300801+157013930+158856349+160526452+161984883+163421364
3294+164992445+166727953+168598263+170527212+172433399+174313309+176213782
3281+178165576+180156332+182148115+184119922+186094192+188199152+190554877
3267+193051334+195516134+197945178+200398657+202868025+205340166+207900079
3254+210595177+213327217+216018872+218747540+221634968+224655310+227699585
3240+230750460+233835023+236918367+240012518+243255196+246665362+250096352
3227+253502214+256931459+260390663+263881117+267415971+270972440+274540911
3213+278157082+281820546+285496874+289177027+292862034+296551393+300256125
3200+303979149+307709871+311449297+315198238+318953205+322702935+326425074
3186+330108718+333770437+337431917+341089739+344731469+348348357+351932083
3173+355481068+359013794+362546927+366044506+369456130+372795498+376117748
3159+379433565+382684325+385811065+388876548+391990640+395121134+398193240
3146+401205022+404114113+406872859+409583833+412386382+415248609+418026292
3132+420635842+423127852+425599156+428050710+430406626+432641511+434826999
3119+437033767+439253828+441445915+443553409+445528061+447419125+449302491
3105+451143583+452884734+454536797+456150269+457755852+459313185+460795680
3092+462220266+463581970+464859751+466037972+467139587+468190130+469208682
3078+470236559+471254203+472163105+472918985+473586878+474208817+474753384
3065+475210154+475596200+475914198+476164485+476326592+476352415+476243721
3051+476056270+475799097+475418981+474891342+474236695+473475364+472622697
3038+471634319+470442995+469053460+467478674+465724086+463786685+461601388
3024+459129032+456391805+453379281+450019924+446242674+442054464+437471170
3011+432429863+426839111+420583145+413545332+405670919+396885740+387080453
2997+376164850+363939928+349976702+333907105+315802388+295930746+274323955
2984+251119925+227253742+204599181+185386191+171194280+162421509+158473089
2970+157901134+159038147+161394684+166117431+174891015+188353429+205150634
2957+222313979+236712242+246431310+250962432+250480270+245444510+236807235
2943+226333482+216721386+210764984+209765990+213011155+218750553+225542646
2930+232914525+240998745+249875475+259338948+269045583+278621743+287571086
2916+295280713+301212608+305110794+307068877+307448825+306787077+305586596
2903+304167987+302813456+301555329+299833474+296958431+292617032+286766573
2889+279293365+269953624+258999120+247795070+238924222+235533160+239480695
2876+249891040+264128128+279962406+296356194+312854898+329031085+344408951
2862+358659429+371737065+383871871+395512631+407105978+418840369+430614210
2849+442105152+452891476+462678089+471399717+479165866+486158442+492559732
2835+498564551+504349545+510014177+515598808+521100329+526446150+531541445
2822+536356327+540888837+545116067+549036680+552740959+556380681+560056745
2808+563811903+567646059+571481888+575220166+578798679+582167792+585296946
2795+588191882+590825389+593108620+595031149+596718216+598269619+599676512
2781+600903413+601964333+602907905+603748091+604457969+605027545+605493640
2768+605901922+606264488+606588656+606897330+607220015+607573113+607953898
2754+608340852+608655073+608834109+608933143+609024526+609133219+609300252
2741+609594580+610129440+611042454+612356004+613907886+615451686+616810377
2727+617940683+618925188+619976209+621337530+623105220+625211806+627494080
2714+629724805+631740726+633515158+635035192+636337743+637599505+638928118
2700+640252331+641493339+642648320+643716078+644669978+645514564+646238501
2687+646784789+647164283+647438958+647649411+647872201+648259299+648970277
2673+650066009+651446315+652927280+654382710+655732937+656930143+658022528
2660+659097076+660173920+661214135+662197061+663154022+664109596+665042839
2646+665919463+666743773+667565740+668390289+669145500+669810763+670443939
2633+671085435+671733962+672349970+672888894+673355085+673782160+674195845
2619+674598580+674962150+675270155+675541864+675800519+676054822+676297601
2606+676522926+676742178+676954543+677126119+677253367+677376980+677521585
2592+677665330+677768381+677869902+678032487+678210949+678363732+678541668
2579+678801422+679154377+679572988+680020481+680481938+680944303+681387684
2565+681799648+682174552+682525450+682851865+683135099+683371853+683547541
2552+683671058+683795149+683954770+684178756+684530802+685048973+685689274
2538+686379977+687088038+687824025+688597312+689398286+690217336+691048962
2525+691891061+692729956+693537529+694311007+695103613+695935574+696749746
2511+697555694+698431888+699361687+700254283+701097243+701960764+702869428
2498+703786794+704675469+705520724+706320120+707071410+707799125+708540277
2484+709289606+710019712+710737528+711469594+712243742+713068674+713906756
2471+714729774+715542273+716360653+717201174+718063405+718952701+719864855
2457+720754773+721575306+722327361+723042403+723750512+724465173+725143203
2444+725751561+726333475+726915388+727476979+728030344+728583710+729086100
2430+729515900+729914235+730314627+730682214+730952202+731150222+731359145
2417+731606419+731882336+732219032+732648928+733139937+733688712+734313568
2403+734961616+735549459+736034873+736530234+737103301+737736907+738398440
2390+739069824+739714381+740278601+740728151+741070681+741338900+741521283
2376+741582014+741542467+741449697+741369552+741285055+740966483+740295195
2363+739633088+739420627+739552608+739564419+739407859+739614008+740714953
2349+742725565+744885470+746070146+746131164+746082723+746427261+746977901
2336+747500758+747951216+748354142+748736793+749185529+749702839+750196861
2322+750661761+751184665+751786472+752433420+753077355+753681313+754289910
2309+754984869+755812957+756708804+757531393+758247488+758922984+759571558
2295+760160788+760691869+761176710+761628985+762058546+762460468+762831546
2282+763164178+763449277+763694542+763893136+764020287+764088669+764137014
2268+764173118+764208935+764281094+764395574+764546253+764776646+765129457
2255+765583072+766111858+766678470+767194010+767789409+768279270+768786203
2241+769360274+769924734+770444291+770958110+771489431+772022521+772538970
2228+773040452+773533756+774019601+774500042+774972258+775432136+775875039
2214+776276578+776610883+776879389+777125850+777373793+777620493+777913339
2201+778330419+778917880+779661615+780477221+781268010+782014183+782736829
2187+783428201+784075102+784708230+785386882+786108285+786793823+787397542
2174+787954972+788500065+789020101+789542862+790114542+790709702+791291137
2160+791850480+792388209+792929524+793486667+794026165+794535585+795024394
2147+795481547+795910821+796333783+796753589+797173252+797623949+798145898
2133+798750956+799408855+800080716+800763529+801462935+802166453+802868919
2120+803573681+804280642+804976892+805650284+806296802+806916732+807543739
2106+808199725+808842321+809433751+810006723+810623210+811298897+811944267
2093+812501554+813016951+813543250+814035312+814423126+814721137+814984717
2079+815220849+815402849+815525649+815612585+815700668+815802237+815903422
2066+816068590+816428001+816999729+817680581+818417381+819211661+820029945
2052+820839336+821622043+822339811+822967966+823504117+823925979+824233744
2039+824497994+824792657+825143555+825559297+826066182+826692998+827426643
2025+828219009+829031460+829840659+830634651+831400431+832129580+832816840
2012+833462210+834077645+834632062+835086442+835506870+835960771+836395927
1998+836738792+837012318+837285749+837581942+837888560+838166199+838395828
1985+838655678+838995482+839333565+839580696+839781059+840038518+840337293
1971+840591501+840798081+840998157+841217552+841468412+841733714+841946701
1958+842014127+841934842+841783637+841556782+841183887+840623540+839897547
1944+839036511+838118954+837338351+836761745+836265284+835802584+835437340
1931+835234299+835297708+835806984+836894491+838506769+840451103+842501119
1917+844490021+846376112+848119032+849601241+850833067+851961412+853024915
1904+853972790+854826652+855628487+856352568+856971924+857547000+858150958
1890+858738275+859298431+859896173+860496306+861059235+861587639+862073484
1877+862553686+863076447+863608867+864035320+864354371+864827974+865566687
1863+866325963+866933842+867491703+868104938+868699524+869166050+869545448
1850+869943019+870356847+870589345+870595466+870820312+871470751+872224193
1836+872897298+873585227+874269044+874818393+875294004+875817530+876406569
1823+877126059+877923877+878626917+879253829+879899390+880503922+880994549
1809+881460883+882007841+882550399+882943952+883224269+883594104+884162963
1796+884784041+885161623+885297047+885618010+886209345+886708196+887016726
1782+887319519+887668982+888042547+888418025+888627187+888576881+888554023
1769+888807848+889265192+889782120+890174716+890394590+890646693+891031735
1755+891518918+891973107+892182268+892306407+892703786+893309944+893828880
1742+894123160+894319602+894657781+894919352+894699383+894474250+894808412
1728+895376601+895727117+895789186+895777136+895705024+895162275+894181595
1715+893506004+893395828+893440874+893212297+892590741+891904534+891375173
1701+890488411+889088452+887808137+886742722+885816461+884964416+883922528
1688+882631501+880779935+878274488+876151309+874852057+873683257+872032246
1674+870088102+868357520+866754902+865245054+864135741+863142533+861839743
1661+860547377+859732153+859215799+858156409+856191990+854593294+853889776
1647+853190179+852359939+851998998+852105253+852342054+852495842+852662731
1634+853303510+854564220+856115384+857728713+859438829+861246113+863083620
1620+864976023+867014466+869299848+871849863+874465486+876853776+878900061
1607+880749331+882558815+884304222+885892876+887322483+888634551+889836538
1593+890914386+891880720+892754953+893541486+894212104+894727788+895132722
1580+895461624+895548081+895346379+895239073+895271303+895045213+894596476
1566+894276852+894147548+893936473+893013560+891351646+890151763+889670700
1553+889216321+888508116+887645838+886709726+885647850+884335400+882583299
1539+880652927+879280894+878215575+876731836+874964433+873215679+871233185
1526+868961287+866501556+863637655+860604091+857809528+855114429+852404315
1512+849650303+846553809+842337194+836812625+831508694+826990243+821841438
1499+814788371+805870062+796197020+785811470+772915930+757117469+740650923
1485+725248310+710898918+697349975+685111473+674414619+663848120+650898401
1472+635363520+620855989+609884031+601393848+593057692+583855002+575448121
1458+572772580+581074880+598568107+618765806+637382166+652603161+663636089
1445+670460150+674127655+676239644+678180345+680588814+683255412+685568004
1431+687113239+687966814+688591622+689404407+690509464+691811538+693297620
1418+695225265+697741759+700551863+703358094+706139793+708991787+711928230
1404+714839042+717463368+719300730+719460830+716896182+711584122+704649503
1391+696013472+684333021+670795507+660102861+656609466+662246315+676047363
1377+694206426+712704242+729424470+744044854+757135496+768593539+777455564
1364+783178728+786011690+786816250+786553722+785770919+784603888+782985394
1350+780900184+778918884+778384312+780202356+783604846+787073518+790073848
1337+793044290+796405991+800277063+804698775+809710721+815229743+821104255
1323+827233452+833528870+839829739+845965631+851851906+857440075+862619102
1310+867162515+870860672+873669963+875737385+877335795+878681718+879915362
1296+881189843+882624902+884194811+885773519+887202935+888183806+888266820
1283+887069806+884553647+881147284+877819822+875972847+876835413+880693765
1269+886669941+893407496+899884244+905576277+910263147+913832288+916226507
1256+917469906+917510648+916114323+913226130+908972886+903146098+895546551
1242+887080422+879452375+873723043+870616411+871349864+876637058+885786908
1229+897127267+908903070+919854179+929273826+937036915+943462306+948869144
1215+953358425+957007328+960030563+962690753+965110126+967195336+968896653
1202+970385174+971780829+973057415+974079697+974856379+975501175+976095091
1188+976505764+976597960+976489314+976363071+976235202+975965405+975459859
1175+974745247+973767054+972370155+970543838+968478138+966291742+963839566
1161+961001583+958016412+955165805+952394578+949477980+946241375+942523612
1148+938046190+932559589+926157056+919189968+912027108+905050743+898645914
1134+892939536+887693179+882778784+878410965+874576044+870724865+866190060
1121+860551011+853422294+843965443+830830041+812576726+788032583+756349490
1107+717315701+672746202+627574273+587900088+557047856+534360396+518215387
1094+508886693+507952303+516103207+531774803+551236036+569721467+582098884
1080+583017254+567615502+533357289+484028712+433050223+398439079+389372363
1067+397290817+401714442+385884037+348421401+301583328+260445775+234596857
1053+227766580+241561076+277155123+334124468+408690377+493444581+579271469
1040+657918712+724053687+775741815+813281105+837814631+849906328+848814038
1026+831161716+790154471+723554262+646692163+591303822+583258360+621455788
1013+682978108+745820051+801121935+848490780+888733346+921730419+946982001
999+964507506+975306263+980834085+982098333+979314290+972308659+960958258
986+944938011+923008917+892461055+848945159+787126120+704094081+606470255
972+515097757+458163177+455294733+506661658+594603070+694674482+787868898
959+865237499+925033493+968941699+1000104996+1022007024+1037622050+1048917650
945+1056991565+1062698996+1066867122+1069922491+1071946876+1073093775
934+1073652401+1073741823+1073154697+1071690277+1069414459+1066522057
922+1062951195+1058306119+1052293505+1044841146+1035977638+1025911474
910+1015143512+1004703305+996272945+991502008+990306429+989885236+986169576
897+975859820+956831544+928058354+890747688+849817671+812685371+785108191
883+770582154+774944570+804267540+854179752+908978720+954395244+985585511
870+1004092843+1012832594+1013542329+1006902899+995048195+983849477+980898832
856+989082827+1003733720+1018019846+1028652192+1035436228+1038943299+1040112865
843+1040148633+1039809786+1039031191+1037514170+1035467119+1033330550
831+1031118045+1028509212+1025466467+1022288775+1019154121+1015821782
820+1011933591+1007549799+1002821900+997533271+991358359+984289415+976979462
806+970679454+966576076+965119307+965720396+966996025+967651629+967061920
793+965281223+962828760+960112143+957106697+953690578+950008488+946193556
779+942144787+937693475+932626632+927108853+921930591+917846723+914871403
766+912231105+908857737+903924119+897139222+889323819+883049538+881101090
752+883456480+887230670+889870012+890861115+890607195+889475598+887746450
739+885656935+883407322+881035578+878447977+875747331+873266942+870975438
725+868558744+865760069+863063822+860486838+858099313+855846735+853501004
712+851036682+848566621+846186174+843939238+841770631+839591598+837396499
698+835246732+833210871+831298193+829412198+827459734+825551646+823859415
685+822403507+821122809+819866403+818450472+816952483+815639459+814593937
671+813670067+812578638+811330840+810556454+810403336+810294117+809963589
658+809641000+809380385+809118048+809027095+809199436+809458426+809726884
644+810148268+810786465+811504042+812150751+812735582+813408782+814283590
631+815361725+816608949+818040852+819469694+820740923+821859705+823195969
617+824963181+826895083+828697107+830406266+832213551+834147844+836034317
604+837823143+839718607+841810034+843884150+845889789+848133665+850688079
590+853106877+855232543+857428886+859752428+861978323+864118717+866326345
577+868684413+871123105+873357033+875325565+877453526+879843441+882035959
563+883880542+885791499+888067796+890589693+893141907+895487638+897457890
550+899249108+901256468+903557057+905873140+907983599+909865960+911716664
536+913546424+915062584+916460727+918062675+919600354+920811618+921869191
523+923026897+924329114+925502409+926416620+927403420+928413269+928959653
509+929095077+929215965+929300127+928907625+927905045+926739018+925450669
496+923302145+919957278+916113845+912357061+908409287+904143896+900442870
482+898580976+898651557+899115979+898478260+896334805+892729513+887987459
469+882879492+878983267+878539503+882193380+888450446+895764225+902707786
455+907772333+911019650+912907271+912906792+911155743+908865101+906795766
442+904616734+901721942+898608233+896582988+895878513+895785361+896716308
428+899575140+903534582+907025204+909616630+911903351+914537815+917408028
415+920081608+921878372+922198666+921733097+921290577+921182409+921512745
401+921333518+920379331
##END=
