##TITLE=павел 5-многокр
##JCAMP-DX=4.24
##DATA TYPE=INFRARED SPECTRUM
##DATE=3/2/2015
##SAMPLING PROCEDURE=Instrument type and / or accessory
##ORIGIN=Default
##XUNITS=1/CM
##YUNITS=TRANSMITTANCE
##RESOLUTION=4
##FIRSTX=3996.3347
##LASTX=399.24773
##DELTAX=-1.928733
##MAXY=0.7703802
##MINY=0.26268205
##XFACTOR=1
##YFACTOR=7.1747247e-010
##NPOINTS=1866
##FIRSTY=0.62572783
##XYDATA=(X++(Y..Y))
3996+872128002+870959706+869244937+867850176+867681200+868816681+869347536
3983+867334192+865192662+866568648+869736081+870837335+869639963+868554576
3969+868732608+868757448+867801244+867306860+867812626+868210061+868335755
3956+868870431+870088821+871452179+871847704+870684808+869003435+868774977
3942+869982401+870758247+869939368+867519451+865444133+865833510+867817029
3929+869221426+869535121+869352769+868751965+867894539+867686351+868040005
3915+867348564+865468474+864871076+866199542+866464554+864944764+864328424
3902+864583882+864547495+864988628+865166244+865345190+866997319+868029786
3888+866667508+864778280+863505890+863100895+864342713+866363700+867618311
3875+867582007+866142718+864717136+863788763+862167289+860217166+859380260
3861+859575239+859043719+857760446+857536142+860025510+863194023+863494176
3848+862087785+861128757+860816724+860867068+861246808+861104582+859741473
3834+857799077+856554766+857298295+859374112+860543820+860021356+858837691
3821+858315892+858757689+859443148+859860770+859931302+859207296+857220370
3807+855358474+854698353+854789903+855661036+856125347+856254198+857239228
3794+858214788+858472739+857887636+856622889+856290502+857248284+857340166
3780+856280201+856190396+857425900+857917377+856524444+854717461+854008408
3767+854772374+856338935+856231352+854426861+853586050+853541023+852291230
3753+850241084+849174141+849343366+849261453+848100053+846210741+845086725
3740+844690287+843454367+842173919+843934961+846254772+845505344+843756182
3726+843256979+843532791+844268760+845733803+847065675+846515713+844203462
3713+843025031+843483112+842420654+840062214+838493825+837378199+834810656
3699+831799904+830997889+831068587+828956632+824737292+820985919+819826844
3686+820963821+822107111+820763774+817113836+814087881+813475113+813683384
3672+813182188+813363958+814301386+814348323+813977224+814116957+813742867
3659+811902155+809758880+807790979+804546701+800022140+796114916+794300124
3645+793975380+793393849+791753932+789280597+786284134+783756717+781889421
3632+779828973+777832743+776366870+774548422+772311106+770168995+767825840
3618+765791894+763764427+760164750+756876441+755752840+753944694+749905213
3605+745749177+742002290+738606231+736293150+734193823+731595542+728849137
3591+725688267+722108279+718827613+716054956+713409322+710982427+708330396
3578+704980777+702293605+700822664+698769195+695253965+691079610+686778897
3564+682423479+678462214+675767981+674333676+672631618+669580947+665618395
3551+661523586+656983282+651895342+648583357+647796462+645878614+640902744
3537+635076343+630595771+627864984+625667005+622271154+617749086+613672304
3524+610698105+607824718+604245686+600361266+596582643+593030569+589688302
3510+586307115+582737096+579063855+575341807+571696064+568680119+566263318
3497+563470598+560118986+556884967+553788605+550500711+547524643+545474331
3483+543444705+540104432+535844758+532271126+530003778+527563383+523507037
3470+518904759+515865221+514671296+513265694+510119113+506438769+503188966
3456+499682791+496633823+494706422+492417059+489159363+485965719+483780367
3443+482340787+480352657+477674831+475003776+472144887+469075857+466434626
3429+464557651+462978130+460893590+458667614+456806673+454244780+450930468
3416+448535391+447303833+446339945+445393877+444071725+441939209+439542719
3402+437747907+436820448+436192104+435286161+434209872+433064962+431797308
3389+430640185+429506698+428096402+427118226+426870618+426494409+425889326
3375+425586930+425920646+426042518+424911025+423908880+424458967+425624646
3362+426544047+427569452+428401706+428302348+427458255+426731175+427552256
3348+429931548+431691054+431940863+431889189+432385069+433186959+434389067
3335+436515601+439232514+441491305+442924032+444639631+447287841+449695504
3321+451306511+452875108+454382187+455554014+456853569+458546406+460835728
3308+463801121+466912769+469850456+472574846+474623372+475683046+476671524
3294+478595478+481089208+483621734+486430030+489484024+492245092+494643035
3281+497225531+500287292+503227596+505753227+508600278+512081406+515980281
3267+519639690+522302936+524650120+527709845+531411290+535248440+538801719
3254+541792616+544575699+547684481+550928511+554502476+558387975+561443589
3240+563770918+566542038+570283941+575077584+580111649+584392839+588353896
3227+592416389+595921152+599177933+603374885+608037683+611908354+614859873
3213+617376366+620470360+624538045+628621182+632458664+636557212+640919235
3200+644954686+648626972+652887684+657695741+662263709+666579043+670573579
3186+673973002+677228081+680739448+684265852+688131746+692355032+696251872
3173+700213552+704329961+707639122+710422994+713732487+717416569+721026382
3159+724617004+727725287+730157416+732722716+735645574+738591693+741746914
3146+745006396+747848587+750371518+752923110+755501619+758320632+761498284
3132+764250089+766361046+768411525+770303495+772215486+774632661+777479089
3119+780294863+782223219+783356457+784917287+787040789+788725401+790069569
3105+791791814+793312767+794384861+795813683+797660459+799455397+800800561
3092+801392809+801837763+803017191+804165216+804362937+804459637+805214298
3078+806579069+808104591+808962598+809227860+809710115+810775314+811919434
3065+812140832+811863524+812184945+812603149+812667699+812514341+811839183
3051+811155635+810953594+810569701+809676635+808813976+808548880+808262684
3038+806771555+804578103+802940761+801485438+799560238+797617925+795482127
3024+792830346+790352774+787880935+784397813+780121400+776020111+771871219
3011+766637274+759859529+751874111+743372211+733781102+722057852+708952053
2997+694608673+677522128+656886042+632518645+604632155+573726397+539182124
2984+500555876+460956562+425612559+397218267+376589824+366121435+369749648
2970+389955526+424867451+469576181+518927190+567504804+609907223+643127433
2957+667617283+684890251+695720934+700865781+700898014+696172202+688052907
2943+678555799+668738226+659253247+651330094+645757448+642973078+643109405
2930+645032238+647546155+650616763+654577613+659084188+663293766+666665234
2916+668997173+670476713+671487954+671768750+670853504+668905624+666031033
2903+662524484+659381973+656825729+654408263+652071795+649936953+648513656
2889+647929384+647672430+648151279+650067383+653253134+657687890+663830229
2876+671771367+681191755+691884781+703477852+714861073+725021999+734107258
2862+742893195+751662019+760067219+767880255+775112258+781877208+788337105
2849+794147597+799076155+803741613+808583274+813327155+817411746+820442769
2835+822863433+825355709+827773964+830197869+833328084+836636830+838847728
2822+840162403+841738519+843926321+845954702+847144265+847964307+849289201
2808+851388777+853982405+856617738+858827805+860649410+862701300+864831033
2795+866314020+867324887+868622200+870328828+871547717+871838150+871908183
2781+872152592+872646229+873717658+875030340+875609296+875333816+875213190
2768+875947581+876892901+877182752+877283856+877925118+878686924+878796750
2754+878279603+877936417+877982192+877770514+877518379+877781646+877978619
2741+877968567+878102070+877794440+877056643+876627058+876415796+875955390
2727+875493654+875794721+876357726+876252718+876361215+877360286+878294308
2714+878840116+879861617+881319598+882153348+882388286+882976879+884056616
2700+885211038+886624574+888649465+890570677+891366212+891486505+892189161
2687+893805568+895648274+896818730+897078674+896938940+896693036+896065481
2673+894671302+892549627+890521579+889368486+888576773+887555605+887339275
2660+888302291+889063515+889464937+890174737+891018871+892399924+894547269
2646+896383412+897507761+898585421+899831974+900973935+901791983+902193821
2633+902187175+901829035+901473553+901386324+901108933+900444991+899921779
2619+899844519+900334251+901292531+901867831+901431102+900560550+900151484
2606+900435936+900932148+900906561+900360171+900083611+900404118+900823152
2592+900894348+900702775+900260064+899471259+898984351+899327288+899882983
2579+900124734+900434939+901135019+901574823+901285553+901327091+902275900
2565+903096856+903452254+903944645+904481564+904495521+903957439+903544718
2552+903677722+903851268+903538653+902791386+902062644+901909785+902003162
2538+901723279+901618355+902043869+902220405+901726685+901086835+900845084
2525+900773722+900521753+900319048+900214372+900154059+900415250+900678933
2511+900627592+901065900+902302650+903491964+904278194+904945211+905558975
2498+905864611+905793914+905728948+905798566+905882722+906075873+906377605
2484+906854211+907455846+907617346+907283048+907143481+907310796+907468889
2471+907933948+908868551+909483562+909184323+908860659+909738439+911046800
2457+911582889+911921174+912467730+912757083+912727674+912511096+912288618
2444+912235034+912158106+911964207+911644033+910880649+909999961+909581591
2430+909145692+908393773+907653899+906832528+906035000+905696549+905565538
2417+905355771+905251179+904871190+904137547+903963088+904624122+905649777
2403+906489425+906727188+906604069+906690801+907189173+907778347+908237092
2390+908690686+908656542+907292602+904463786+900503310+895722461+889983580
2376+882686528+874384924+866882924+859743883+849517078+835945639+825399407
2363+822776453+825492369+830105655+837134039+845301892+852892201+860781251
2349+866660114+867146690+861382305+853656997+849775942+849917420+851590153
2336+853291048+854345198+854923987+856992992+860542159+863699208+866965834
2322+871433903+876058570+879824814+883178338+885922167+887561171+889090514
2309+891648420+895124397+898478419+900512698+901062328+901285802+902220655
2295+903650806+905096824+906366057+907422117+908619739+909712270+910040004
2282+909994562+910236728+910662159+910904741+910663322+909810216+908722836
2268+908037211+908007719+908263510+908333293+908318423+908590579+909031546
2255+909301958+909600200+910062684+910337000+910351123+910180568+909969722
2241+909993565+910102892+910186965+910302108+910230414+910035601+910127483
2228+910322047+909874351+908874283+908108989+907815731+907936523+908197880
2214+908224464+908173289+908106330+907902794+907708812+907431505+907007984
2201+906731175+906548907+906301673+906308070+906643780+906695702+906143829
2187+905711170+906023868+906485022+906539353+906583300+906875977+907242757
2174+907535101+907533439+907241095+906974505+906753938+906366057+905865940
2160+905614470+905801972+906186447+906583716+906710490+906146903+905348627
2147+905005690+904813535+904373150+904043921+904214974+904699472+904968970
2133+904613489+903988509+903921550+904328289+904472758+904255598+904002798
2120+903879181+903975300+904194039+904221371+904108886+904140704+904244881
2106+904255930+904115200+903886243+903721835+903630618+903423427+902927381
2093+902580871+902674415+902529032+902133176+902176458+902395529+902332890
2079+902203541+902172221+902100278+901953399+901871570+901752771+901492744
2066+901474550+901833604+902293346+902635286+902469051+901967772+901992861
2052+902596241+903104166+903301222+903384797+903351982+903096274+902679233
2039+902357564+902578296+903313601+903910916+904132895+904142282+903956525
2025+903797850+904037856+904679035+905203410+905174749+904879414+904558575
2012+904174183+904004958+904033951+903958519+904009776+904470100+904948700
1998+904899103+904230010+903272146+902774937+903111311+903677058+903969651
1985+903871953+903252291+902518149+902401677+902821625+903255531+903567979
1971+903659362+903559339+903565154+903697660+903845037+904066600+904297967
1958+904374646+904355206+904342744+904279690+904184236+904207663+904227352
1944+903990669+903564407+903030977+902516986+902057078+901417228+900651601
1931+899728213+898689100+898089873+898085886+898360701+898637842+899097667
1917+900076134+901098300+901651086+901857862+901873813+901822472+901924489
1904+902349505+902964931+903234845+903183005+903600046+904499592+905223681
1890+905704192+906089082+906270935+906311144+906544421+907101777+907504363
1877+907292436+906961379+906788498+906175066+905554157+906027357+907118724
1863+907826448+908021842+908068863+908119373+908039953+907709560+907128860
1850+906538938+906139758+905790923+905851817+906519415+906849060+906664798
1836+906479373+906247840+905738004+905104799+904814449+904696398+904456226
1823+904410285+904573031+904643977+904461294+904153747+903884166+903534998
1809+902987279+902321924+901668865+900938046+900217031+899863792+899797249
1796+899571864+898795104+898074006+898261425+898285849+897298908+895948676
1782+894827900+894074568+893362940+891895239+889381945+886715209+885527391
1769+885814584+886552547+886913761+886641521+886680733+887305629+887808322
1755+888027393+887568481+886426687+886073199+886868318+887281870+886708646
1742+885715890+885091990+885010410+884462358+883517869+883736275+884667722
1728+885392725+885612959+885172740+884190285+882505506+880157035+878577098
1715+878732699+879580903+879873663+878913887+877021253+875221747+873394576
1701+870898645+869265872+868940879+868688744+868740832+868275940+866647653
1688+864547911+861801589+859169247+858632660+858628755+857412442+855158510
1674+853224587+851775412+850160916+849469725+849682648+848940947+847509383
1661+847209230+847780377+847503734+845204527+842815846+843601412+844568830
1647+844489825+845455748+847420326+848850062+849295847+848781856+848968528
1634+851466453+854108681+855419369+856292330+857742419+859661471+861803998
1620+863516939+864311311+865217751+867123512+869000611+870136341+870840160
1607+871549877+872259178+872919465+873537550+873999784+874442578+875085752
1593+875747866+876250641+876706728+877261924+877734792+877925617+878012846
1580+877931266+877430152+877084640+877371169+877121692+876232448+876183350
1566+876566745+876360135+875026934+871577873+868989728+870634879+872569134
1553+873179327+873066925+872629364+871453093+869164686+866590995+864574661
1539+864582221+866231111+866565906+865448536+864780689+864332329+863056283
1526+861243817+859005006+856306370+854315373+853224754+852707025+852421991
1512+851012942+847674455+842585477+838575904+838519246+838597005+836141282
1499+831748314+826965138+822570009+817367383+809899528+802029170+796449296
1485+792080171+787270909+781359812+773940473+764523076+752627443+737789429
1472+722678927+713215257+710478987+713251561+719781988+725902686+729019858
1458+730496283+734655309+741874436+749246173+755897309+761925543+767083723
1445+770334980+771461572+770802448+768107135+763695724+759855043+756998895
1431+753644458+749923656+746362775+742679939+739073450+735686281+731942633
1418+728693204+726844932+725478334+724547469+724866148+726403882+728676340
1404+731601690+734585692+736670065+737513950+736800162+734069708+728818482
1391+719351157+702669108+678173692+650939015+627666807+615668368+620651715
1377+639374605+661740081+678945342+689018830+696865013+708362630+725644901
1364+747351378+769304341+786355496+796766979+801472229+801832862+798743769
1350+792389961+783209496+772546543+762505662+755905534+755179534+760279727
1337+767749992+773701713+776761065+777452588+776347181+773418258+768818514
1323+763195441+757106229+751013695+745550709+741128996+737916868+736273877
1310+736234914+737341235+739669021+743780944+749693619+756887241+764944354
1296+773527337+782099520+790421395+798617493+806354016+813242833+819336364
1283+824437305+828355579+831488369+834485996+837881722+841945627+846680785
1269+851865632+857203506+862257509+866633696+870422620+873737596+876489318
1256+878798578+881029331+883336099+885462508+887326980+889056204+890629329
1242+892051670+893443523+894744408+895718390+896550893+897543400+898557175
1229+899416844+900133872+900811273+901379844+901728596+902079259+902604050
1215+903061216+903076502+902793213+902682058+902569490+902054337+901331494
1202+900460859+899102402+897350581+895437261+893200610+890538194+887647570
1188+884842513+882050084+878591885+873850413+867304617+857815110+843972096
1175+824717770+799078814+766745272+730081983+695089100+669318179+658009975
1161+661651979+676495393+697078435+718552549+737506805+752087201+761780991
1148+766704648+766871132+761944567+751418606+734612692+711361751+683942770
1134+658091140+640801516+636565852+646251002+667163024+692659173+714898125
1121+728956554+733689137+730718012+723253147+714440044+706682669+701713653
1107+699954189+700371230+700783452+698518555+692058410+682129224+671596285
1094+664539364+664446693+672689812+688535786+709720920+733313219+756727819
1080+778009113+796118821+810700961+821832046+829924466+834753334+835465876
1067+831315904+821482380+804075744+776004576+734995588+683433889+630905021
1053+590598938+572645164+580279462+610227812+655280227+706659741+756613340
1040+800031860+834613019+860646668+879946022+894380121+905223598+913595485
1026+920478320+926184801+930414941+933085082+934909761+936593459+938153790
1013+939200047+939751588+940376402+941147262+941582331+941470677+940954610
999+940137725+939198884+938343286+937450968+936237313+934579617+932722041
986+930809634+928609453+925897109+922582549+918522548+913520883+907604635
972+900473569+891305068+879054202+861802336+836005952+796328089+738525482
959+665998135+594053980+544605316+533408434+561243791+615571460+679714874
945+740840640+791947000+830735037+858086602+876892901+890726112+902122043
932+911728106+919268902+924642082+927937619+929871708+931547514+933336719
918+934933853+936103644+936993220+937561210+937511198+936838699+935619311
905+934040372+932170085+929648483+926193192+921451720+914651794+904851335
891+891212106+873063519+850829178+827370216+808468131+802270339+814031638
878+839759568+868906403+893043596+909730214+920136546+926442669+930367006
864+932561372+933515498+933802858+933719117+933313375+932675601+931785527
851+930689922+929693842+928601644+927358580+926177906+924670993+922636548
837+920487043+918206361+915204332+911268696+905873583+897615095+884093584
824+860574558+824072769+784681351+765129447+778543873+814458482+852129398
810+878697973+893182748+899695065+902311124+904048573+906112011+908212169
797+909791358+910874418+911454786+911453872+911130042+910457377+909352717
783+908050337+906860774+905885131+905087270+904353710+903406978+902157517
770+900849737+899730456+898690180+897522299+896261041+895152643+894235901
756+893165718+891927389+890709248+889520598+888472430+887610518+886669518
743+885413078+884068495+882962756+882019346+881037971+880259799+879847743
729+879243283+878167534+876873295+875272008+873574768+872766938+872683613
716+872216477+871457413+870718204+869863270+868988980+867976285+866736960
702+865551965+864486268+863379698+862292567+861320912+860393453+859513763
689+858765415+858095076+857156651+856002810+855202624+854937196+855026586
675+855042121+853983319+850596399+846818275+850486905+856082231+857579590
662+857452318+857200349+856662931+856224041+856675143+857562477+858090008
648+858866352+860414637+862169033+863968041+865868983+867262581+868167692
635+869328013+871048929+873098078+874653757+875638871+876932030+878622540
621+879976095+880595924+881389299+883191048+885460764+887467544+888735697
608+889616717+890779114+892286194+894298208+896759413+899208739+901374361
594+903116212+904665328+906293864+907901299+909750734+912018539+914385121
581+916774383+918925798+920586817+922013064+923328985+924784557+926726871
567+929094118+931595532+933763314+935332866+936518442+937931396+939973650
554+941916296+943374111+945059637+946966145+948613872+949841152+950848363
540+952516444+955038876+957179159+958276841+959262287+960885008+962908902
527+965170144+967628275+969862019+971532259+972920623+974570178+976574798
513+978420910+979878808+981183432+982100174+982556260+982915563+983563804
500+984518180+984933393+984348456+982731883+980472219+978931993+979368806
486+982532584+987606027+992754819+997926707+1003579854+1008403903+1011385246
473+1013826597+1016571589+1018305549+1018370265+1017742959+1017433169
461+1017654649+1018177363+1018980291+1019862307+1019905507+1018717356
449+1017116567+1016140426+1016009913+1015966797+1014864463+1012615683
438+1010985070+1010697212+1010132961+1008216816+1006043219+1006112587
426+1009526092+1015872506+1023405410+1029277378+1034486401+1041771157
415+1049545479+1055685533+1059188510+1061199278+1064185108+1067186639
403+1068422392+1070208108+1073741823
##END=
