##TITLE=павел 5-многокр
##JCAMP-DX=4.24
##DATA TYPE=INFRARED SPECTRUM
##DATE=3/2/2015
##SAMPLING PROCEDURE=Instrument type and / or accessory
##ORIGIN=Default
##XUNITS=1/CM
##YUNITS=TRANSMITTANCE
##RESOLUTION=4
##FIRSTX=3996.3347
##LASTX=399.24773
##DELTAX=-1.928733
##MAXY=0.77636725
##MINY=0.27741793
##XFACTOR=1
##YFACTOR=7.2304834e-010
##NPOINTS=1866
##FIRSTY=0.57130265
##XYDATA=(X++(Y..Y))
3996+790130642+790123223+787888322+784618694+782552785+782958366+784583659
3983+784389524+782605708+781929080+781809796+782169544+784508643+786485357
3969+785941614+784891307+785423756+787063228+787769120+786407703+784865340
3956+785439749+786558230+786018609+785051561+785080743+785557713+786031798
3942+786661686+787267337+787244750+785970714+784761307+785583928+786677513
3929+786456752+786792593+787680255+786815675+784832943+784537248+785507510
3915+784962119+783172780+782377033+782852437+783519008+784190938+784352675
3902+783500708+783407226+784301731+783850563+782380578+782136899+782727630
3888+782762830+782494751+781583347+780052195+778992326+778637030+779004196
3875+780068353+780800625+781028228+781207690+781108025+781092198+781177766
3861+780122760+777662975+775655266+775347288+775733909+776375337+778067897
3848+780169336+781418147+780953295+779256283+778050174+777573204+776791553
3834+776537570+776906550+776974641+777505936+778217105+777407426+775916915
3821+775807853+776421501+776823126+777651929+778491284+778490543+777847465
3807+777224832+776360746+775398315+775111770+774563164+774383208+775967448
3794+777130362+776647621+775764822+774747242+774496556+775906611+777453920
3780+777936083+777277591+776413752+776228932+775285297+773409566+772802183
3767+773905661+775398563+774977154+772541441+771074094+771160816+771047797
3753+770717397+771397899+772350356+771061564+768318779+767067248+767627395
3740+768031987+766891413+764825587+764477628+765285493+765332976+765003647
3726+764998618+765597016+766495230+767019106+767284217+767200875+766054861
3713+763851697+761689092+761064728+761610119+761801204+761318546+760087128
3699+758247422+757287793+757720826+758058233+756605147+753271632+750417395
3686+749703671+749727083+748643060+746826765+746261342+747058738+747095586
3672+745929952+744475877+743480884+743541062+744137646+744157513+742617870
3659+740214059+739274380+739314856+737680908+734784959+732514775+731343536
3645+730909267+730431637+728476769+725010698+722272035+721331944+719812745
3632+716017923+712446335+711579199+711154822+709299947+706360472+703353318
3618+701702553+701060136+700393235+700041648+699130327+696249216+692782239
3605+690306009+688339269+686195830+683726195+680950189+678198543+675810930
3591+673236108+670536684+668818198+667989931+667043245+665008579+661163471
3578+656358775+652429377+649878626+647923262+646421004+645184765+642958478
3564+639287102+635207919+632500912+631697168+630634949+628224997+625669217
3551+623143155+620070465+616633205+613300184+609983444+606474136+603776609
3537+601918148+599198363+595643344+592956286+591402547+589250988+585645025
3524+581559535+577967133+575207985+572900417+570456584+567603377+564154535
3510+560378590+557313814+555173178+553137440+550993424+548216264+544918237
3497+542319632+539883754+537188576+535313958+534248235+532794367+529650287
3483+525071259+521200142+518849626+516815578+514379494+511781631+509355603
3470+507032579+504883946+502983403+500447324+497009652+494214109+492998932
3456+491766319+489119902+486164434+483730494+481151467+478140768+475552096
3443+474372778+473636096+471552257+468829669+466860745+464971866+462763756
3429+461051701+459722680+457957371+455764471+454036959+452875364+450758634
3416+447266967+444513672+443724149+443697604+443334230+442341051+440989649
3402+439838111+438738343+437491016+436333337+435466283+434760885+433772982
3389+432589624+431456346+430427596+429964228+429842265+429381617+428739611
3375+428101975+427518828+427256354+427518416+428211696+428722877+428781571
3362+429092516+430079802+430928720+430870232+430471781+430919239+432480810
3348+434332634+435947004+436976208+437143304+436968253+437048009+438143120
3335+440291299+442209401+443476472+444431195+445234444+446061764+447392845
3321+449811701+452313774+453582040+454403383+455766326+457186149+458480670
3308+460630003+463554351+465964798+467592440+468634050+469549494+471674467
3294+474685042+476912772+478618068+480470428+482015759+483424123+485382042
3281+488165797+491361686+494162010+496136664+497291004+498811027+502268607
3267+506939015+510946232+513650602+515534535+517602958+520198472+522910590
3254+525482734+527740264+530022359+532831215+536024549+538982448+541096788
3240+543228727+546687833+550661746+554285350+558246816+561963572+564402665
3227+566692303+569528405+572323906+575254396+578447853+581454719+583955639
3213+586312379+589401845+593127710+596865034+600671439+604410329+607507626
3200+609749287+611531908+613903898+617605817+621884822+625625650+628800271
3186+631698652+634387112+637222347+640380688+643606542+646566131+649180935
3173+652156888+655439994+658027800+660535768+663622843+666101175+667675069
3159+669796828+672843798+675593095+677817115+680426602+683395959+685751958
3146+687345554+689231548+691477784+693187490+694999251+697736925+700230590
3132+701853822+703765165+705857123+707230411+708846141+711504677+714003783
3119+715227039+715490172+715911004+717493101+719853303+721568038+722533025
3105+723742844+725103602+726226535+727601142+729048457+729816094+730437655
3092+731687373+733027275+733852781+734105692+733729953+733518012+734562878
3078+736531843+738117897+738473769+738229844+738402051+738808044+738977284
3065+738901031+739030784+739755802+740503242+740644454+740288993+739968073
3051+740243818+740691359+740346450+739243220+737901834+736664811+735879286
3038+735601479+735542868+734983463+733534087+732163189+731306193+729868935
3024+727665441+725575709+723368094+720248086+716655477+713508100+710378365
3011+706206896+701162025+695937941+690359715+683720218+675466475+665608954
2997+654466228+641685431+626303061+607927510+586607002+561834067+533030585
2984+500645004+467145848+436542187+411581422+393338715+383678256+385764280
2970+401747231+430250937+467015270+507409432+547143205+582056455+609157279
2957+628195156+641008638+649091287+653007001+653198786+650166325+644419807
2943+636638253+628099778+620420814+614225231+609489493+606838253+606681337
2930+608550226+611565088+614588440+617084373+619492346+622210854+625156717
2916+628040383+630243217+630963289+630078429+628356481+626613224+624962994
2903+623081576+620986856+619150652+617940174+616978485+615398572+613294702
2889+611739562+611151964+611487310+612996410+615870349+620061149+625108740
2876+630840914+637608103+645146061+653034946+661186223+669097777+676447413
2862+683563632+690469642+697031939+703189849+708575342+713357738+718011453
2849+722472353+726611425+730420591+733840498+736781787+739478820+742183024
2835+744721205+746901121+748718323+750742273+753272374+755359469+756695909
2822+758256160+760100236+761486713+762636273+763911545+765017661+765986110
2808+767214642+768815781+770435468+771824831+773214936+774617159+775793427
2795+776964667+778455013+779956241+780893611+781150727+781232997+781686144
2781+782295257+782719964+783294620+784015433+784363722+784610698+785217256
2768+785584422+785131111+784607235+785124846+786425427+787176988+786693918
2754+785798095+785919851+786818065+787058941+786880963+787028935+786956392
2741+786583867+786324938+785971373+785592171+785410402+785241822+785088904
2727+784913153+784631224+784529581+784698161+785157243+785962553+786595408
2714+786802568+787242607+788245019+789301426+790045239+790503167+790782210
2700+791217385+792130108+793438355+794607039+795060515+795206343+796258464
2687+798210859+799379461+799063075+798762268+799524382+800281467+800078347
2673+799223164+797787060+796090213+794996958+794433101+794047386+793966930
2660+794095281+794297330+794771250+795624537+796568420+797338530+798096522
2646+799257951+800707822+801617247+801971059+802527744+803010897+802940167
2633+802793433+802870922+803062172+803469814+803874241+803553321+802655931
2619+802318441+802859793+803637405+803983550+803447391+802494358+802306653
2606+802929698+803200828+802720230+802116557+802074021+802717922+803304943
2592+803228196+802883534+802733667+802615043+802401124+802238726+802356444
2579+803015266+803675654+803371139+802544149+802378949+802825500+803335857
2565+803998718+804830489+805606452+806026377+805803225+805111181+804490691
2552+804384268+804653336+805065595+805304409+804629183+803555546+803223415
2538+803355229+803410708+803372705+803275431+803221024+803273288+803265869
2525+803024746+802804067+802637795+802250514+802025879+802355619+803116579
2511+804015617+804530920+804485663+804386081+804681034+805313312+806181932
2498+806998948+807072480+806499967+806088286+806225293+806731693+806992188
2484+806873564+807001998+807380458+807262740+806774147+806776290+807108092
2471+807231168+807470889+808100529+808817468+809420400+809951777+810092906
2457+809976260+810533687+811386644+811463804+810889642+810122748+809886159
2444+810742578+811731224+811821490+811291597+810824519+810851475+811054183
2430+810508544+809306144+808402654+807986934+807696432+807164725+806359580
2417+805925888+806043359+806256701+806492878+806717844+806879994+807081713
2403+807245017+807435195+807847041+808598191+809382727+809325929+808618387
2390+808347670+808163345+806960780+804589201+801419650+797660604+793092457
2376+787502195+780910346+772834992+763658304+755108866+748944113+747115535
2363+747268618+744089586+739374374+739508002+745792945+755795139+766099870
2349+772192245+771929606+766144798+760402773+759125192+758741374+757586374
2336+758528856+761437829+763970404+766136307+768385387+770414200+772728239
2322+775895152+779373589+782734143+785948044+788379306+789794224+791142699
2309+793196820+795803009+798182749+799789164+801150664+802865481+804529601
2295+805695070+806619746+807510705+808323187+809257013+810249451+810815698
2282+810948007+810928305+810821304+810793935+810828805+810737137+810633434
2268+810437815+810026546+809794820+809759373+809462359+809364096+809975766
2255+810491068+810447955+810414733+810593123+810746452+810813225+810965730
2241+811304127+811557945+811510050+811331083+811057810+810712159+810656186
2228+810927233+811100924+810954684+810776459+810815451+810724030+810498900
2214+810710676+811046517+810782971+810153991+809551059+809194774+809464502
2201+809811060+809330298+808548647+808327391+808425407+808462502+808670734
2187+809190982+809497806+809193208+808752427+808667272+808882675+809150589
2174+809258250+809179689+809040044+808874349+808581704+808500010+808947469
2160+809269873+809134020+809021331+808927190+808663480+808483111+808471735
2147+808392103+808232178+808126084+808008449+807868062+807782907+807639799
2133+807369906+807128783+807187395+807622735+807917853+807787935+807639717
2120+807565360+807491745+807678626+807983884+807868969+807384003+807107927
2106+807218143+807324319+807212372+807111884+807079734+806894008+806373594
2093+805799845+805762502+805968095+805819629+805534486+805380580+805408030
2079+805660200+805923333+805872058+805561278+805436058+805632502+805888133
2066+806078311+806073942+805844113+805826554+806086390+806192237+806236340
2052+806481832+806806461+807144363+807520845+807845557+808054778+808021309
2039+807825690+807925355+808242813+808240257+807853636+807538404+807626445
2025+807734847+807566267+807536013+807889413+808370752+808586238+808404056
2012+808274633+808552604+808781774+808614018+808463821+808621685+808827608
1998+808884653+808867012+808504462+807733858+807446241+807961379+808478495
1985+808596047+808634710+808707912+808555902+808316675+808511634+809053975
1971+809381078+809541415+809750718+809760940+809601675+809601757+809826640
1958+809976425+809820787+809735549+810089032+810502279+810481011+810129507
1944+809756818+809482391+809245884+808925871+808610639+808358139+808030212
1931+807574181+807088802+806714711+806521318+806670361+807176183+807658924
1917+808123364+808878058+809611072+809896216+809950211+810121511+810366344
1904+810549350+810602026+810502444+810386046+810554131+811172313+811926925
1890+812443052+812787631+813152901+813543727+813853765+814096537+814367831
1877+814405999+814044685+813656828+813391551+813189008+813424443+814144597
1863+814740686+814959387+815043058+815014041+814776133+814480933+814258770
1850+814149461+813978737+813551888+813654190+814598980+815038277+814606811
1836+814187710+814069334+813837773+813543644+813552712+813531691+813280923
1823+813339864+813717995+813828705+813547683+813132540+812666698+812242652
1809+812062860+812092620+811919506+811249884+810430313+810105766+810287536
1796+810186305+809360964+808718216+809056778+809357996+808748718+807603115
1782+806714464+806552973+806596004+805683859+803464208+800992553+799900122
1769+799981485+800363078+800679629+800615659+800452108+800548887+800944658
1755+801500024+801464495+800562983+799924028+800279983+800600491+800022538
1742+799033728+798633092+798743308+798161728+797172835+797602158+798699453
1728+799263969+799445079+799353988+798845775+797701245+795894182+794642651
1715+794881548+795701779+796112059+795500884+794047634+792713997+791405585
1701+789430355+788063249+787858810+787950725+788390023+788188551+786881211
1688+785236463+782910224+780451182+780077997+780512596+779973882+778375628
1674+776732117+775598386+774633564+774336302+774648897+774214628+773155748
1661+772928804+773287974+772824688+770706185+768450511+768668140+769041654
1647+768783137+770039202+772341782+773672369+773703942+772833096+772456038
1634+774119415+776351596+777682348+778387416+779190995+780301479+781886461
1620+783479851+784452257+785671639+787768049+789390539+790016552+790536635
1607+791572764+792765271+793679396+794299803+794721212+795203046+795911411
1593+796507171+796884559+797284782+797871556+798601520+799149302+799375751
1580+799245339+798639687+798321735+798964977+799344014+799129929+799362314
1566+799833184+799959228+799177165+796368267+793750620+794749157+796450373
1553+797027584+796955289+796979524+796734609+795490827+793539091+791591971
1539+791301552+792647472+793121639+792575011+792500325+792492328+791668389
1526+790414796+788753892+786689631+785438512+784955112+784698821+784522739
1512+783459078+780803592+776796252+773905001+774246778+774677007+773037206
1499+769785549+766546752+763812541+760208555+754719607+748631354+744062712
1485+740853015+737564097+733096356+727274039+720026417+711024162+699776619
1472+688157087+680844919+678687754+680699668+685565036+690038506+692247564
1458+693406438+696780347+702516848+708381619+713456084+717644205+721386763
1445+724325496+725781879+725510667+723284175+719622815+716672788+714566733
1431+711864012+709021069+706600689+704015685+701384024+698860682+695949235
1418+693580953+692446810+691531202+690906096+691291151+692536747+694288825
1404+696510041+698851531+700569234+701225748+700749767+698815507+694785414
1391+687430957+674546992+655581494+634263253+615719699+605891525+609440815
1377+623716574+640902379+654487702+662690583+668753404+677409555+690836232
1364+707974966+725205327+738304035+746079490+749750165+750627028+748873549
1350+744189580+737213088+729079370+721121487+715692139+715104211+719310138
1337+725312823+730089366+732724325+733428322+732546018+730306666+726871920
1323+722577705+717832404+713126178+709011259+705767598+703467821+702277209
1310+702233848+703054408+704808135+707949741+712424407+717885740+724159637
1296+730897231+737625346+744234095+750699901+756605724+761792631+766496714
1283+770484270+773543770+776168507+778893568+781918693+785265398+788906314
1269+792891068+797138624+801260138+804864288+807980256+810835070+813293783
1256+815227796+817007407+818841590+820549318+822183432+823783334+825217047
1242+826590501+827989014+829273519+830342622+831315934+832294688+833149788
1229+833811413+834297451+834732874+835268703+835822338+836465332+837292982
1215+837924518+838136129+838305451+838573448+838577405+838291025+837912812
1202+837305182+836419581+835435140+834372467+833127860+831516499+829489417
1188+827470249+825571024+823066560+819477743+814796907+808296395+798599129
1175+784539721+765128536+740092138+711281855+683370487+662616556+653498273
1161+656332726+668094829+684509576+701543948+716341151+727680609+735408746
1148+739594641+740109696+736610239+728704290+715633033+697131850+675278729
1134+654485889+640079469+636356118+644526849+661793647+682348002+700161592
1121+711522566+715548207+713464739+707608377+700547141+694629612+691197257
1107+690062083+690299743+690526440+688796826+683771658+675926381+667588183
1094+662118936+662253140+668790706+681273088+698247941+717037811+735305619
1080+751876334+766220885+778089330+787188777+793418735+796967159+797682367
1067+795047738+788197784+775194783+753570790+721747417+681280218+639198979
1053+606153381+591238336+597442122+621524003+657381384+698063038+737030659
1040+770021066+795969034+815791817+830771202+841996818+850335057+856826913
1026+862148765+866205814+869146855+871551903+873532986+874890199+875801768
1013+876414096+876911511+877501582+877954316+878212750+878446866+878536721
999+878278451+877911779+877670162+877299286+876608231+875456034+873853659
986+872189044+870612306+868798154+866593754+864059119+860895090+856867223
972+851844199+845296782+836330221+823494234+804041749+773445590+727943248
959+669933547+611520408+570819999+561357921+583919779+628018332+679792345
945+728626966+769026733+799276829+820151074+834337350+844922361+853876968
932+861552017+867403845+871223811+873504298+875197518+876820255+878376302
918+879979090+881332841+882059754+882443161+882747676+882830936+882483801
905+881667280+880324081+878215883+875311608+871734167+867030661+860111379
891+850167878+836802822+820204904+802510762+788286072+783742243+792838886
878+812531010+834766507+853112464+865756954+873601489+878340772+881432587
864+883410620+884545506+885059160+885207296+885166161+884795944+884287566
851+884032182+883900863+883399409+882648095+882073191+881450970+880469744
837+879240305+877882680+876028382+873258641+869423673+863666068+853605509
824+835440992+807151535+776522155+761248888+771795155+800008689+829593286
810+850303649+861218731+866090487+868530982+870411741+872265379+873990089
797+875401874+876674262+877671810+877912604+877559863+877175798+876732791
783+875989143+875366675+875156053+875042210+874625005+873866354+873242731
770+872823960+872134060+871221008+870586751+870317188+870021493+869360362
756+868515814+867850232+867215810+866377774+865493409+864895012+864540953
743+864027216+863381007+862864468+862372247+861801136+861447159+861389290
729+861280393+860944881+860221842+858946075+857584822+857085429+857358949
716+857512361+857471226+857427783+857377250+857264808+856743076+855682629
702+854608416+854012327+853644996+853081551+852297262+851420317+850430352
689+849440965+848881312+848648433+848364691+847971310+847562596+847548994
675+848071881+847872140+844900103+841027874+845080966+851457742+853466936
662+853538654+853419948+853399504+853428191+853277417+853064240+853304126
648+854368695+856382504+858849955+860820651+862134421+863464349+865343624
635+867482076+869319804+870950455+872433877+873771636+875123985+876239911
621+876852322+877353858+878500037+880109667+881723007+883610608+885482794
608+886840255+887878774+889044243+890453061+891811181+893458401+896014387
594+898895828+900846245+901769025+903020639+905325692+907893549+910049807
581+911950351+913641427+915177854+916854257+918554895+920174747+921748848
567+923328389+925090936+926957434+928998530+930990742+932484138+933754712
554+935079941+936841087+938935683+940502611+941601967+942535299+943786665
540+946300198+949409077+951408625+952083440+952723302+954175398+956149474
527+958299302+960383429+962008557+963528910+965781699+968527946+970583798
513+971513502+972304715+973852107+975875232+977533086+977789213+977202027
500+977574469+979082127+981041117+982045343+981060077+979642686+979413681
486+981113578+985053651+989922357+994723466+999441811+1003479158+1006785964
473+1009624868+1011087351+1011257662+1011898761+1013350280+1014559687
461+1015449245+1015906101+1015674129+1015649316+1015971390+1016203528
449+1016417942+1015937839+1014646162+1014245939+1014931635+1014799903
438+1013396609+1012302941+1012412415+1012555028+1013250946+1015531186
426+1017562802+1019517835+1022664223+1026641557+1032981896+1040914555
415+1047436746+1052858758+1058274916+1063204954+1066230739+1067082129
403+1067348972+1069436974+1073741823
##END=
