##TITLE=павел 5-многокр
##JCAMP-DX=4.24
##DATA TYPE=INFRARED SPECTRUM
##DATE=3/2/2015
##SAMPLING PROCEDURE=Instrument type and / or accessory
##ORIGIN=Default
##XUNITS=1/CM
##YUNITS=TRANSMITTANCE
##RESOLUTION=4
##FIRSTX=3996.3347
##LASTX=399.24773
##DELTAX=-1.928733
##MAXY=0.76913089
##MINY=0.22787391
##XFACTOR=1
##YFACTOR=7.1630896e-010
##NPOINTS=1866
##FIRSTY=0.70868385
##XYDATA=(X++(Y..Y))
3996+989355000+987788557+986020826+984596590+983612373+982966241+984213571
3983+986549048+987548743+987632786+987118044+986468417+986941138+987723070
3969+988176569+988517982+988691643+989331368+990567714+991404649+990995667
3956+989500036+988246050+988741320+990473020+990509217+988285408+987349703
3942+988768780+989540144+989002186+988639470+988132384+986984241+986211379
3929+986553375+987348704+987560309+987081182+986979748+988249544+990276726
3915+990605908+988532960+986131330+983902529+981866194+982059576+983782206
3902+983839538+983551046+985391336+987092332+986605881+985634811+984826169
3888+983855515+984457628+985413055+984683462+984796296+985990288+985630900
3875+984117296+982910490+982442179+982152606+981494907+981689787+983243749
3861+983886552+981497570+977002190+973562754+973916317+976696473+979324437
3848+981450390+981655338+979463066+976859233+975067705+974162288+974264471
3834+975289046+976130307+975654008+975339804+975726901+974630016+972481347
3821+972210079+973092530+973346739+974047374+974700079+973829611+971542978
3807+968886640+967314538+967728595+969993676+971621529+971744099+971838710
3794+971657809+971153302+970917816+971078579+971902449+972816353+972934596
3780+972136438+970837351+970272433+970027793+968343606+966295122+966239205
3767+968135579+970311126+970056667+967070980+964956177+965067930+964157354
3753+961037448+958518324+958603282+959249664+958790922+958474721+959206144
3740+958333513+954945252+952497024+952713705+953020170+952872720+952927140
3726+953153973+953347105+952998951+952211361+951759609+951116057+949209365
3713+946968248+945918960+945324419+943709131+940653963+937058008+934356486
3699+932253749+929340039+924967228+918774430+911404283+906134959+905573036
3686+906607596+905500227+902109803+897913898+893961884+891728007+891517067
3672+891152105+891067646+891753968+891026290+889183254+888024044+886096715
3659+881715666+877346766+875247774+873366710+869684299+865472751+862885061
3645+860880097+858321282+855933381+853384551+849512170+845424439+841732459
3632+837935716+835590586+834975575+833086606+829762335+826260991+822387112
3618+818501999+815356048+811625541+806780509+802189020+798619193+795852268
3605+793027261+789594316+786625770+784223225+780235347+775123957+770859237
3591+766559402+761515079+756880903+753035482+749306806+745918379+742781415
3578+738641927+733643371+729214559+725212202+720919939+717137842+713881554
3564+710020239+706418709+703222749+698503864+692161245+686297047+682210856
3551+679076762+674977465+669536560+664881789+662084284+658750526+653414966
3537+647951012+643490580+639039551+634283138+629527224+624730080+619889250
3524+615591370+612598444+610009506+606344819+601832255+597424038+594047552
3510+591477461+587510053+581865656+576318242+571253699+567262618+564757848
3497+562289441+559075632+555312797+550822659+546361104+543553072+541787131
3483+538893392+534474815+529234698+524671999+521815539+519012042+515145985
3470+511147997+507989897+505685041+502765590+498908062+495916883+493936924
3456+491354809+487826630+483606386+478771547+474491516+471561913+468915310
3443+466087141+463775628+461541002+458712126+455831701+453224249+450540118
3429+447874293+445265759+441982552+438293193+435725765+434650765+433862051
3416+432347864+430089856+427881691+426664233+425898403+424343650+421856521
3402+419254727+417788470+416658259+414140217+411463159+410096713+409249918
3389+408090209+406712571+405325072+404077201+403182727+402812106+402941956
3375+402986308+402394013+401653978+401548383+402044694+402720740+403035028
3362+402774495+402907257+403841091+404433760+404305657+404749378+406373320
3348+407778501+408141716+408538798+409605519+410667913+411570626+412814877
3335+414396090+416296625+418291812+419730693+420897600+422952865+426035243
3321+429006992+431665369+434647353+437468990+439420949+440696654+441864060
3308+444048468+447833062+451728410+454451067+456621621+458972992+461203457
3294+463236173+466034802+469805333+473558098+476809852+480067805+483963693
3281+488351815+492472746+495403764+497530840+500459944+504234885+508366385
3267+512991366+517269150+520755100+524112157+527519099+531051938+535091698
3254+539497336+543616437+547435314+551556246+555823212+559988121+564424464
3240+568729042+572251854+575810448+580842912+587029178+592603220+597333879
3227+602023848+606232110+610058975+614647260+619676064+624503081+629491444
3213+634315632+638794953+643898479+649417893+653859187+657472075+661764754
3200+666976413+672772545+678639115+683822690+688638391+693555442+698340272
3186+703387256+709115904+714615972+719314470+723859361+728364477+732513285
3173+736439171+740236829+744196165+748867287+753956709+758381444+762026243
3159+766181375+771261311+776026711+779853992+782874544+785176654+787980442
3146+792408339+797430194+801482976+804716465+808159062+811897058+815438926
3132+818528460+821303041+824034269+826823912+830136201+834159027+838078423
3119+841106797+843160106+844869423+847066188+849801410+852246144+854056062
3105+855851585+857780994+859697505+861768456+863666993+865390455+867481709
3092+869434168+870647964+871845034+873444596+874940809+876095276+876970154
3078+877773638+878555154+879586552+881383073+882852076+883029731+882744734
3065+882550604+883205057+884998915+886282359+886319637+885831689+885219923
3051+884742376+884148001+882976310+881446563+879973232+878979362+878134856
3038+876421213+874215044+872323580+869978200+866559900+862822237+859271216
3024+855570332+851545925+847064857+841243013+833601265+825298242+817030166
3011+807983072+797709283+785990622+772520208+757360198+740386358+721559581
2997+700560003+676494356+649107392+618341362+583809170+545571516+503192129
2984+457036884+412049004+374250580+345646408+326527394+318122375+323524524
2970+346775350+388203076+442546805+502278141+560923993+613274864+655450053
2957+686568231+707996220+721255362+727524797+727439922+721796648+711959800
2943+699632619+687320706+676767330+667977814+661211652+657538977+657375592
2930+659553094+662928499+667680626+673718111+679756886+684304231+687468863
2916+690274315+692241336+692582458+691563126+689322051+685658570+681022148
2903+676512122+672770007+669599135+666735601+664201208+661767209+659568946
2889+658305057+658120038+659355968+662815332+668806385+677058692+686785286
2876+697582346+709615086+722643235+736335573+750617127+765028323+778906887
2862+792103954+804788359+816812237+827655520+837591140+847509452+857106321
2849+865578678+872839237+879076386+884577868+889921334+895511103+900588626
2835+904475153+908107721+912159504+916306648+920842801+925542880+928857583
2822+930694877+932465271+934835614+937700145+940340674+942391571+944683363
2808+947764825+951322004+955050347+958674760+961681915+964261367+967210025
2795+970301972+972741464+974428063+975678805+976619503+977389952+978478100
2781+979755635+980580753+981378745+982738742+984103566+985099433+985940445
2768+986441623+986563860+986727619+987113467+987721821+988258947+988217841
2754+987873099+987868855+988149275+988474463+988854154+989314476+989870741
2741+990055552+989179176+987712835+986840952+986389617+985395331+984202670
2727+983698579+984126699+985110583+985637141+985692476+986774466+989280277
2714+991864971+993643269+994850741+995674028+996235701+997012308+998396353
2700+1000606099+1003476955+1006384174+1008811184+1010645816+1012394574
2689+1014598911+1016938050+1018814870+1020026170+1020560383+1020391798
2677+1019646728+1018783749+1017772072+1015595694+1012103752+1009098760
2666+1007447692+1006016216+1004814486+1004687756+1005703593+1008035410
2654+1010776623+1012639047+1014475676+1017048471+1019610199+1021796979
2642+1023761586+1025779698+1028003174+1029636685+1030119391+1030173644
2631+1030259601+1030189870+1029987834+1029809514+1029748021+1029563875
2619+1029094400+1028876221+1029285036+1029762832+1029386137+1028329277
2608+1028010746+1028755233+1029367914+1029405109+1029210895+1028856417
2596+1028706305+1029015433+1029156309+1028928228+1028830871+1028745830
2585+1028367554+1028016404+1028321372+1029303842+1029872754+1029575608
2573+1029416925+1029958128+1030909810+1032037566+1033326668+1034728520
2561+1035714568+1035768655+1035359009+1035325142+1035659483+1035774813
2550+1035317653+1034560518+1034150455+1033816197+1032758505+1031454342
2538+1031003256+1031556108+1032194252+1032104884+1031851008+1032184516
2527+1032385471+1031615022+1030665337+1030765273+1031610445+1032171952
2515+1032293606+1032372240+1032956713+1034224013+1035429904+1036227563
2503+1037116504+1038189923+1039204513+1039987194+1040379533+1040653795
2492+1041182350+1041898546+1042481188+1042746297+1043204623+1044019090
2480+1044194998+1043728019+1043836609+1044520934+1044964614+1045443409
2469+1046496608+1047812005+1049028630+1049996788+1050730624+1051399306
2457+1052038032+1052855162+1053902204+1054804042+1055318119+1055463738
2446+1055486704+1055420801+1054968966+1054353123+1053774225+1052797580
2434+1051872110+1051628052+1051058558+1049450842+1047654653+1046452507
2422+1045606502+1044399863+1042786488+1041617044+1041322644+1041391626
2411+1041604978+1041982256+1042247033+1042596019+1043360726+1044448707
2399+1045403884+1045991352+1046813142+1048022611+1048911802+1049002003
2388+1048242954+1046740666+1044031821+1039649025+1034372461+1028350163
2376+1020052880+1009737403+999561388+989928738+981262666+975045487+969344882
2363+962207891+958270106+961442934+967827449+974357833+984543002+997377437
2349+1005229042+1004024316+995529075+988151272+986701657+987439404+988350562
2336+990139012+992655640+994142201+994873291+996888906+1000460148+1004850599
2322+1009911730+1015092934+1019392769+1022940046+1025726692+1027393072
2311+1029133925+1031924732+1034944203+1037263954+1038685028+1039676235
2299+1041089071+1043308386+1045649772+1047127014+1047799440+1048545258
2287+1049847924+1051201763+1051802379+1051664832+1051230305+1050726879
2276+1050351765+1050045383+1049557435+1049011988+1048744132+1048607084
2264+1048187036+1047719558+1047711902+1048019117+1048299703+1048778998
2253+1049485790+1049776279+1049515996+1049329936+1049626167+1050034399
2241+1050060610+1050024081+1050210473+1050278789+1050129675+1049940953
2230+1049732760+1049537880+1049344665+1048822018+1047802852+1046838771
2218+1046530392+1046680754+1046724024+1046483544+1046149703+1045833002
2206+1045355788+1044563871+1043595547+1042734565+1041991742+1041373070
2195+1041249252+1041570030+1041856108+1041973935+1042148012+1042290219
2183+1042057312+1042171311+1043288000+1044362751+1044524762+1044230945
2172+1044087989+1044142658+1044221126+1044288693+1044293602+1044187093
2160+1044067019+1043980730+1043911748+1043971743+1044037147+1043691073
2149+1042858216+1041954880+1041469344+1041394538+1041457029+1041503544
2137+1041251083+1040708132+1040357648+1040490785+1041006776+1041541155
2125+1041642673+1041241680+1040943535+1041153060+1041269056+1040830618
2114+1040353987+1040363723+1040707134+1040969996+1041094397+1041201489
2102+1041171866+1040946281+1040620178+1040222514+1039773175+1039248365
2091+1038526927+1037825377+1037674016+1037897437+1037837859+1037430958
2079+1037190728+1037577825+1038141578+1038259488+1038368743+1038591915
2068+1038365498+1037983311+1038021588+1038270971+1038447544+1038541323
2056+1038541988+1038676374+1039118639+1039636627+1040039117+1040219352
2044+1040163434+1040080390+1040103689+1040337261+1040772953+1041207813
2033+1041605893+1041855526+1041725883+1041470343+1041384386+1041263731
2021+1041073011+1041059781+1041350519+1041847870+1042003059+1041563456
2010+1041071930+1040795004+1040652547+1040838357+1041203985+1041292854
1998+1041211141+1041051959+1040397423+1039527454+1039308110+1039620484
1987+1039714013+1039325917+1038714651+1038306419+1038161881+1037915161
1975+1037620262+1037734760+1038072763+1038261901+1038461607+1038602732
1963+1038459526+1038248005+1038328137+1038633936+1038670882+1038492478
1952+1038539825+1038595160+1038211142+1037312133+1036261929+1035623619
1940+1035263732+1034418560+1032822327+1030966477+1029258492+1027577800
1929+1026033907+1024992440+1024598271+1025167100+1026490568+1027630389
1917+1028405581+1029152897+1029781222+1030127296+1030295049+1030517638
1906+1030769766+1030978542+1031323368+1031703392+1031968418+1032509122
1894+1033551836+1034772373+1035887730+1036813950+1037540713+1038073262
1882+1038518107+1039039339+1039375178+1039341311+1039333989+1039159496
1871+1038323726+1037546371+1037705803+1038266061+1038606310+1038978679
1859+1039538355+1039820855+1039585618+1039032183+1038413178+1037949028
1848+1037389186+1036440167+1036085689+1036823436+1037221017+1036899574
1836+1036687636+1036492423+1035642175+1034503685+1033913055+1033632717
1825+1033502659+1033827847+1034174669+1033943843+1033346639+1033073041
1813+1032875249+1032076842+1031137142+1030660427+1030184794+1029079838
1801+1027685391+1026833396+1026474924+1025716125+1024064889+1022855587
1790+1023233364+1023424582+1022212367+1020252087+1018196947+1016520082
1778+1015123139+1012882522+1009197781+1005189434+1003061900+1002891900
1767+1003355467+1003516397+1003207685+1003385423+1004200224+1005032997
1755+1005701596+1005483584+1004384952+1004210875+1005193345+1005590759
1744+1004919082+1003719015+1002831572+1002395048+1001073744+999538921
1732+1000238890+1001705730+1002179449+1001831129+1001188825+1000099345
1720+997552845+993639441+991175819+991586381+992624769+992446032+990796627
1707+988602441+986688926+984239116+980358830+977163119+975763846+974768812
1693+974356502+973629739+971624275+968482651+963740717+959250745+958117581
1680+957721248+955709959+952439525+949552276+947400778+945281981+944390128
1666+944571444+943594133+941911944+941562541+941943314+941077922+938019342
1653+935747021+937439196+938771651+939011797+941076590+944222541+946293242
1639+946908253+946378284+947319065+951421607+955167591+957037172+958479714
1626+960420939+962862094+966049817+968810502+970184229+971693340+974284025
1612+976435774+977595233+978479764+979423624+980180177+980872990+981801955
1599+982697553+983183255+983407508+983611374+983859342+984190937+984679218
1585+985082541+985066814+984714167+983825309+982047427+980610210+980825976
1572+980842285+979863643+979538372+979681245+979095857+977054529+972725986
1558+969570965+970797326+972258092+972645605+972442404+971742019+970027044
1545+966681886+962573519+959498714+959529418+961175495+961008074+959425654
1531+958389181+957088097+954504484+951575714+948540183+945285143+943066577
1518+941285865+939215914+937202378+934280514+929493313+922888622+917390801
1504+915949174+914469270+910018241+903242801+896147083+889598725+881885749
1491+871171110+859669130+851216577+844980260+838102803+829250339+818663844
1477+805742288+789224777+769135026+750029326+738847874+735836558+739314686
1464+747322145+754916879+759230776+761963003+767805317+777154301+786896788
1450+795824808+803877867+810804667+815245544+816767886+815657604+811694107
1437+805595338+800380100+796506554+791985794+786926744+782290654+777759077
1423+773022468+768049707+762582591+757939927+754999424+752566922+750608639
1410+750209976+751619234+754231388+757658175+760985443+763024773+763192276
1396+760792477+755482879+747391876+734794925+713646816+682717901+648314643
1383+619362234+605357606+612989285+637653883+666803543+689631096+703400737
1369+714130687+729715821+753331796+783353506+813784279+836902071+850480827
1356+856533414+856992571+852548282+843332686+830169485+815106083+801376051
1342+792985905+792931735+800514236+810748666+818849238+823194506+823985924
1329+821959824+817708418+811598914+804232761+796166971+788071225+780875321
1315+775080354+770966163+768747097+768345355+769801794+773409398+779303802
1302+787141761+796556481+807447943+819184577+830669083+841615131+852424465
1288+862920176+872383491+880386374+886776298+891456406+894960913+898472076
1275+902649924+907523997+913311808+919915750+926486741+932401115+937713210
1261+942603592+946811313+949872555+952129232+954401469+956881900+959565948
1248+962634430+965737111+968128506+969796883+971449782+973243558+974822982
1234+976255622+977713309+979123982+980440626+981488667+982156516+982757548
1221+983576758+984592180+985629652+986244164+986112025+985673255+985440680
1207+985117906+984223223+982845252+981088589+978671898+975516377+971825479
1194+967699388+963092921+958122157+953186009+948176635+942178551+934195556
1180+923508792+909214591+889618945+862717974+827221160+783616036+735745442
1167+691290652+659341988+645929239+651116767+670064200+696062209+723023592
1153+746801828+765193579+777355754+783426232+783486060+776881452+762894881
1140+740826460+710909014+676705296+645165114+624162957+619620728+632907996
1126+659815458+692014877+720334302+738330386+744112621+739851562+729859942
1113+718322431+708391887+702234537+700188883+700404232+699951399+696018732
1099+686945634+673515368+659443755+649936463+649181533+658827038+678121793
1086+704430054+734097535+763569804+790282552+813367310+832603901+847605893
1072+858372207+864423879+864551857+858260371+844951968+821564739+783922501
1059+730378428+665142156+600365748+551825599+531166353+541819208+579681997
1045+636625272+703023043+769109397+827419119+874729787+911211234+938759169
1032+959695424+975614816+988002991+998306319+1006782421+1013069663+1017321902
1018+1020252753+1022608451+1024735568+1026456368+1027650859+1028467656
1007+1028965174+1029166877+1028896275+1028116091+1027114066+1026145659
995+1025235665+1023881493+1021695545+1018874948+1015605596+1011786386
984+1007329116+1002279635+996533513+989593066+980911932+970545614+958444017
970+943683585+924878109+899825416+864092617+810819395+735446299+644085870
957+556844375+499146003+487309350+521234603+587373879+667316787+745436755
943+812321600+864364882+901778291+927957325+947738531+964342581+978458046
930+989410502+996994085+1001852930+1005038988+1007753824+1010426222+1012660765
916+1014349196+1015672664+1016275443+1015758953+1014200332+1011848628
905+1009097013+1005732634+1001139813+995265297+987797460+977569687+962963778
891+942774174+916679266+885522311+853067684+827339153+819176339+835381228
878+870862065+911527185+945668911+969451225+984077937+992595478+997625655
864+1000429443+1001877144+1002312420+1001797595+1000699212+999345206+997773187
851+995910597+993902470+991891598+990012032+988037274+985421459+982057163
837+978113137+973738911+968785123+962670543+954269913+941869922+922355158
824+889676694+840367552+788018220+762448621+780664382+828795009+879351564
810+914755349+933422611+941653408+945495583+948349880+951153169+953630937
797+955260205+956046131+956291603+956055534+955263117+953953296+952374953
783+950565534+948745464+947198326+945719753+944074842+942135864+940020728
770+938201823+936705860+934869480+932651080+930565734+928518665+926394876
756+924446412+922668030+920859527+919087719+917353772+915436928+913416403
743+911497646+909702040+907906766+906044925+904380376+903123560+901961937
729+900615753+899101732+897140869+894582054+892042710+890447642+889750668
716+889025736+887950818+886619113+885200285+883746426+881792137+879467227
702+877486644+875874934+874198652+872348709+870579481+869011790+867666604
689+866592269+865463182+864036616+862639340+861406322+860393231+859780633
675+859211304+857957151+854868116+851167316+854093840+859259317+860648272
662+860153500+859401940+858808231+858687243+858999699+859074173+858916988
648+859450119+860844566+862535077+864176077+865584170+866900066+868486646
635+870177157+871868167+873632818+874975342+876114165+877675199+879275426
621+880300251+881046735+882695224+884949238+886552128+887952982+889615534
608+891240142+892897368+894761124+896787307+898812075+901025899+903597029
594+906230568+908762673+910959604+912724256+914447385+916156535+917970364
581+920340624+922834286+924981124+926960377+928634828+930113567+931818806
567+933971136+936832007+939685472+941328553+942231307+943733927+945930776
554+948222734+950610302+953003861+955162266+957015037+958135721+958748651
540+960004552+962143902+964199874+965962196+967842178+969435332+970973983
527+973284580+975915124+978094664+979818210+981239034+982534543+984056469
513+985589711+986598143+987294035+988415217+989996555+990575952+989741015
500+988762622+987487666+985408062+982527553+978882171+975957228+975607660
486+978557067+984576203+992130663+999254839+1005617553+1011327229+1015434015
473+1018138033+1020326727+1021469628+1021613416+1021972887+1023010692
461+1023985922+1023342037+1021062727+1019875225+1020172954+1019721951
449+1017806022+1014937330+1011768746+1009324511+1007970921+1006476788
438+1003321684+999101398+995727783+993304767+991563498+991601858+994018550
424+999274477+1006639382+1014736709+1025093458+1035852033+1043746991+1051267583
411+1059145233+1064480627+1067635065+1070234987+1070766787+1070177072
399+1073741823
##END=
