##TITLE=павел 5-многокр
##JCAMP-DX=4.24
##DATA TYPE=INFRARED SPECTRUM
##DATE=3/2/2015
##SAMPLING PROCEDURE=Instrument type and / or accessory
##ORIGIN=Default
##XUNITS=1/CM
##YUNITS=TRANSMITTANCE
##RESOLUTION=4
##FIRSTX=3996.3347
##LASTX=399.24773
##DELTAX=-1.928733
##MAXY=0.7774542
##MINY=0.28186715
##XFACTOR=1
##YFACTOR=7.2406065e-010
##NPOINTS=1866
##FIRSTY=0.52857757
##XYDATA=(X++(Y..Y))
3996+730018362+729571364+728840198+728194728+729106503+730792005+731065801
3983+729592767+728705605+729317243+729331484+728455846+728473051+729847959
3969+731257689+731811784+732873712+734252901+733260616+731304611+732037506
3956+733478764+732401607+730854815+731030568+731163103+729754444+728578915
3942+729574739+731698841+732713682+732076525+730911780+730088581+729441299
3929+728746436+728735076+729892988+730601434+730427986+731171829+732709895
3915+732974554+731301071+729380876+728845549+729532098+730393823+730558216
3902+729923282+728779282+727791195+727110327+726613361+727206723+728484165
3888+729283738+729756008+729313538+728333025+728408924+728793852+728386862
3875+728271367+728463338+727608774+726687202+726889792+726906173+726290585
3861+725768511+725226023+724244110+722810343+723022070+725295501+726062888
3848+725774685+725778966+725377821+724154382+723047425+722974325+723976241
3834+725163130+725561312+725088466+724240159+723363534+722718639+722832158
3821+724063912+724994457+725376833+725780283+725290068+724260492+723723683
3807+723823538+723725165+723300970+723296361+722923040+722188828+722531608
3794+723714793+724314165+722980746+719667944+717754004+719862960+722615410
3780+722729999+721806287+721817482+721926309+720437141+718409436+718956288
3767+721362335+722327372+721419795+720498223+720825280+721896674+721870743
3753+719941987+717065645+715424761+715369689+714553734+712781303+712854979
3740+713806845+712718163+710281822+710460703+712403125+712603821+711795109
3726+712296850+714009516+715869783+717397147+717666745+716419186+714531837
3713+713034519+712228030+711871338+711731311+711144041+709824369+708063299
3699+706723788+706823807+707441042+706150841+702811367+700323658+700399228
3686+701612130+701978866+700483359+698081921+696142216+695560049+696833374
3672+698596503+699259426+698212316+697010527+696785793+697335937+697743174
3659+696496521+694126282+692426046+690832660+688785939+687345504+686141616
3645+684243153+682735340+682114236+680697632+677684516+674717170+673039941
3632+672574257+672794093+672272061+670108239+667545249+665584799+663924199
3618+662791394+662307888+661008344+658772451+656636660+654427028+651768381
3605+649133113+647470456+646944678+645773100+642780194+639426849+637013063
3591+634727284+631667534+629024240+628594982+628766990+626812755+623306666
3578+620669134+619482080+618879375+617221121+613821719+610788187+609249339
3564+607433978+604961827+602947046+601302581+599066277+596468671+594237635
3551+592221249+590006183+587829479+586097590+583924878+580391459+576498383
3537+573687156+571777786+569952011+568101747+565933604+563190332+560452494
3524+558076451+555360922+552056886+549251258+547072536+544571820+541839333
3510+539586771+537750294+535593018+533338768+531483399+529127690+526273822
3497+524301147+522880387+520837370+518497755+516090595+513572263+511527188
3483+509388063+506589184+504427380+503048850+500792254+497761521+495574897
3470+494007525+491559082+488301311+485538365+483634963+481871340+479802269
3456+478088655+477264056+475991060+473212844+470035170+467170312+464226426
3443+461657138+460213781+459662278+459220714+458048807+456088810+454014059
3429+451836243+449608829+447780050+446219058+444779076+443722006+442959558
3416+441965586+440804298+439673386+438394628+437484457+436961314+435719312
3402+434173384+433829904+433936796+432552133+429968398+427919084+427226443
3389+427604251+428521131+429472708+429447765+428133033+426819454+425965096
3375+424989604+424202255+424294618+425342675+426293841+426396905+426467289
3362+426896711+427239738+427247888+426844150+426552984+427277564+428551219
3348+429038964+429145816+429825367+430745745+431616197+432522745+433264201
3335+434170544+436453482+439816294+442329358+443557242+444537920+445567619
3321+445865700+445501557+445897105+447907523+450729410+452479450+452942253
3308+454086788+456368862+458384467+459827783+461236359+462843986+465160511
3294+468018084+470369183+471774467+472359762+472786632+474192492+476908105
3281+479540656+480831597+481852488+483830596+486278833+488742957+491225192
3267+493461044+495556251+497597786+499487276+501845291+504766414+507431688
3254+509858357+512672094+515079295+516150030+517519423+520147200+522748922
3240+525088291+527413830+529932409+533306128+537069714+539983470+541921570
3227+544031061+546900611+550136609+553449123+555988076+557152986+558059493
3213+559814637+562601127+565866842+568880864+571738355+574171938+575839453
3200+577561298+580056128+583387370+587156019+590678943+593696916+596378901
3186+598630557+600592077+602957171+605633640+608452234+611643285+614391455
3173+616268844+618426697+621366343+624055942+626031621+627954739+630115844
3159+632346591+634525436+636499098+638084375+639274927+640698116+643163064
3146+646205280+648528514+649906797+650968437+652070660+653473145+655538553
3132+658075078+660133365+661077493+661481066+662512494+664393670+666432612
3119+668093829+668824624+668818697+669582874+671651862+673994935+675884096
3105+676935034+677102637+677302016+678102660+679206612+680484588+681873697
3092+683043916+683680496+683817518+684090902+684884508+685515038+685664901
3078+685911079+686433852+686945923+686996056+686619607+686719832+687548588
3065+688345486+688816521+689165311+689473434+689936196+690401880+690434067
3051+690050168+689328675+688590635+688015959+687098792+686334780+686570339
3038+687094964+687215110+686742346+685339449+683825791+682949413+681866164
3024+680332955+678993980+677487854+674915519+671510848+668562024+666616309
3011+664820129+662076404+658047295+652761366+646103656+638757629+631559859
2997+623600836+613494538+600883902+585579756+567172889+545577976+521017569
2984+493642189+464863007+438135979+415999030+399075692+389286655+389997488
2970+403120236+427821534+459966903+494046544+526308067+554311301+576724845
2957+593878638+606165180+613397977+616177881+615942034+613259926+608362135
2943+602381919+596437842+591142775+586542941+582622000+579951952+578871709
2930+579275323+581095994+583839801+586304543+588076603+590206550+593137223
2916+595969853+597880787+598615575+598344413+597480795+596170261+594531600
2903+592877133+591307950+589806269+588252315+586602541+585016029+583712657
2889+582997832+582736713+582836279+583926566+586424730+589847223+593634641
2876+598262464+604108992+610584157+617198154+623626479+629780143+635823498
2862+641509832+646633221+651188725+655045786+658710588+662922695+667388018
2849+671680180+675722749+679098032+681654767+683972074+686441467+688674560
2835+690644806+692673005+694363199+695885377+698090729+700586341+702137084
2822+702764692+703494541+704412573+705321138+706646325+708097214+709052044
2808+709934020+711130458+712107184+712652636+713343383+714505494+715900324
2795+717176118+718097443+718972175+720173059+721084752+721264457+721402508
2781+721901860+722244147+722476783+723452357+724694894+725085585+724852208
2768+724331452+723706643+723654123+724292514+725036687+725377492+725218449
2754+724891227+724919793+725442277+725898988+725954801+726012508+726283917
2741+726496878+726422708+725957518+725359134+725333944+725751224+725525914
2727+724695882+724296301+724437974+724599897+724813847+725282906+725576377
2714+725261914+724880032+725431493+726795371+727698914+727785103+727890144
2700+728647899+729965595+731171911+731939710+732418153+732827777+733711647
2687+734867254+735357964+735460123+735933051+736367618+736070114+735314499
2673+734727310+734098057+733335280+732894950+732283725+731202287+730754549
2660+731222209+731602856+731795320+732360118+733203980+734191078+735233414
2646+736194088+737136157+737657901+737763518+738336300+739020050+738759671
2633+738095102+737945939+738178328+738336712+738285508+738454923+739000293
2619+739294669+739150362+739240996+739734340+739712525+739108626+738896076
2606+738974938+738639155+738021097+737828056+737982077+737664157+737258320
2592+737560517+737920666+737727708+737557882+737857280+738139884+737966107
2579+738053449+738963331+739670542+739392136+738776382+738702294+739475114
2565+740501480+740945020+740809274+740566430+740394299+740230071+740116551
2552+740113012+740094819+740055470+740140013+740154089+739759365+739099077
2538+738625902+738567290+738807664+739006714+738869486+738403308+737834724
2525+737505198+737689677+738088188+738117658+738083166+738594455+739226590
2511+739621561+740008548+740134168+739876836+739839298+740506995+741542498
2498+742027774+741629345+741138965+741344518+741882315+741922240+741416548
2484+741016391+740955392+740858748+740747781+740868297+741064383+741320316
2471+742003160+742847187+743039569+742905799+743344070+744263996+744755940
2457+744427977+744277908+744774215+745300569+745790208+746060876+745776543
2444+745188367+744477616+743947640+743962787+744197564+744408303+744693130
2430+744584879+743768841+742887030+742459213+742208878+741705985+740965929
2417+740593266+740857925+741040758+740967328+741223261+741662438+741788964
2403+741723602+742137260+743079494+743696647+743864909+743877668+743489118
2390+742956755+742545978+741520354+739260259+735969189+732156376+727891708
2376+722938763+717558495+711476284+704009123+696304880+690231231+686638294
2363+684694719+681847683+679348244+682353293+689212398+696680670+704933411
2349+710457081+709584571+702828901+697281935+697436450+698847414+698977480
2336+698454501+697717820+697396196+699034939+703172340+707711957+710896752
2322+713544902+716544642+719585212+722555069+725267841+727138398+728040460
2309+728979072+731097165+733774786+735625751+736629807+737661688+739248487
2295+740963295+742003160+742518648+743393874+744799158+745867918+746050997
2282+745653557+745223929+745229197+745573624+745935750+746167645+745959540
2268+745614866+745767158+745999301+745738511+745376962+745522833+746073965
2255+746487129+746643290+746714085+746636292+746444816+746336236+746288573
2241+746440865+746933961+747175324+746837729+746468113+746469841+746823653
2228+746977756+746498818+745969830+745743450+745715708+745967278+746041531
2214+745708217+745504969+745485706+745443229+745447674+745466855+745684180
2201+746138257+746119652+745564404+745246978+745215697+745175689+745100696
2187+745012531+745089583+745314810+745579469+746054537+746667574+746978743
2174+746947709+746927376+746717871+746005886+745317280+745241628+745538473
2160+745462739+744841635+744475805+744809530+745178077+745024715+744644479
2147+744429130+744380890+744434727+744556067+744533594+744293137+744055232
2133+743771805+743403752+743463928+744049717+744393732+744163071+743821197
2120+743708007+743835850+743968138+743815599+743593253+743678289+743970854
2106+744083715+743899154+743772957+743859722+743879397+743700351+743283977
2093+742736796+742386360+742279591+742359194+742547378+742575284+742579071
2079+742968773+743522540+743656721+743332381+742942266+742763550+742876904
2066+743209806+743565346+743679277+743500396+743268089+743159344+743286858
2052+743668164+744041073+744184969+744155004+744065522+744132366+744499019
2039+744881148+745091805+745158567+744998784+744666705+744207113+743659520
2025+743408609+743887382+744884853+745482413+745359592+745208700+745221377
2012+745162271+745423390+746033628+746375009+746436337+746529029+746600895
1998+746586077+746445557+746040049+745604412+745617748+745915252+746150440
1985+746460375+746779941+746819701+746775660+746903256+747124614+747371492
1971+747464678+747402197+747465831+747465995+747245049+747296087+747924929
1958+748570894+748621603+748508166+748713801+748733558+748385015+748204405
1944+748267462+748498288+748897704+748822134+747952918+747221999+747210309
1931+747152521+746657778+746148711+745916898+746358051+747268510+747697314
1917+747737816+748234123+749088604+749672500+749854921+749873854+749847841
1904+749854838+750018820+750247669+750384732+750660751+751202334+751655340
1890+752019442+752581934+753048524+753197934+753407932+753810889+754019899
1877+753774503+753354178+753056426+752809302+752832187+753468108+754281430
1863+754715256+754779630+754651622+754441295+754367536+754579428+754949291
1850+755090223+754680846+753964168+753887282+754718549+755191230+754679611
1836+753919798+753500460+753092812+752622353+752760404+753458889+754023521
1823+754250395+754386058+754443106+754134406+753707001+753571173+753523345
1809+753280666+752993945+752836961+752578723+752158233+751753795+751284407
1796+750759123+750274341+750140159+750665196+751194349+751006412+750306116
1782+749622367+749080784+748550478+747693281+746287750+744779648+744059101
1769+744265066+744867648+745034264+744429130+743980650+744253953+744759150
1755+745042743+744537874+743392474+742924403+743410091+743835850+743711053
1742+743222566+743006641+743155969+742727823+742049424+742648384+743688250
1728+744133354+744076471+743763820+743342671+742407434+740787706+739928862
1715+740568406+741495905+741841155+741349622+740366228+739267009+737630324
1701+735406862+734214622+734367325+734857952+735482431+735404228+734354977
1688+733021394+731333588+729685460+729405407+729579843+728972734+727465949
1674+726003288+725118678+724371459+724242629+724667482+724359852+723762868
1661+724038804+724253906+723412926+721514545+719798338+719840651+719856786
1647+719388303+720052954+721421112+722222744+722391993+721817153+721483016
1634+723032278+724972971+725923108+726406903+727117900+728327180+730269108
1620+732020219+732845805+733917529+735779030+737164475+737934990+738719664
1607+739530433+740166355+740810673+741631650+742429084+743116702+743879315
1593+744589983+745108269+745560947+745976580+746399129+747000311+747751234
1580+748193374+747969053+747700360+748212143+748641195+748303930+748054665
1566+748387073+748758336+748129741+745520775+743583621+745129672+747013482
1553+747926987+748275283+748422224+748150156+747050856+745381407+743801769
1539+743935786+745538473+746184356+745661295+745319749+745139880+744451191
1526+743474547+742327419+741024788+740316095+740149315+740180843+740222991
1512+739450830+737442964+734484878+732353285+732722490+733208589+732048948
1499+729443027+726585537+724307497+721607813+717358951+712784513+709641455
1485+707369671+704805074+701251075+696502118+690458722+683005843+673978965
1472+664745135+658644732+656545450+658054416+662195604+666071845+667833492
1458+668581533+671402886+676164313+680906849+685141964+688630478+691572223
1445+693938428+695260651+695148449+693342431+690528118+688602407+687398148
1431+685556280+683350352+681359032+679196240+676739894+674100716+671234624
1418+669282364+668705466+668342600+668007763+668217638+668997908+670237605
1404+672056959+673968181+675165690+675654753+675568152+674407400+671456270
1391+665600357+655081430+639576465+622103930+606689352+598328978+601234091
1377+613327716+627895798+639195859+645800925+650643191+657446730+667872717
1364+681384634+695287323+706039545+712619379+716001577+716888657+715300211
1350+711493983+706121041+699796893+693619438+689507432+689158725+692612006
1337+697544536+701444197+703615304+704336509+703857654+702206727+699569031
1323+696382425+692787348+689072289+685821968+683182296+681165416+680002029
1310+679807177+680532416+682179886+684765761+688240158+692551337+697591705
1296+703146657+708892754+714508211+719762365+724561948+728928857+732825472
1283+736234671+739091750+741451946+743773863+746337142+749089839+752022323
1269+755218642+758708597+762130967+765106834+767660070+769815371+771707578
1256+773672308+775683961+777494177+779121725+780694201+782188555+783503617
1242+784573282+785559146+786744142+787967005+788895492+789676544+790585603
1229+791537880+792359516+793232025+794182162+794856857+795362877+796019132
1215+796681067+797082871+797220757+797368932+797725625+798040581+797994400
1202+797660592+797194826+796596195+795845931+794978278+793947303+792554614
1188+791040832+789799694+788363787+786065825+782631437+777543816+770007094
1175+759117892+743752953+723476724+699954124+677161825+660059071+652263618
1161+654327667+663866863+677142027+690855463+702971480+712644651+719530305
1148+723304922+723888159+721253014+715012256+704490448+689636839+672111990
1134+655241666+643207517+639665906+646025247+660164770+676957960+691261794
1121+700414045+704087162+703089773+698801397+693210225+688468102+685766608
1107+684956620+685274128+685564883+684361447+680713891+674790434+668205414
1094+663796562+663923376+669234578+679330668+693038341+708335695+723257423
1080+736762260+748572540+758223403+765388780+770355637+773209011+773866419
1067+772186268+767319430+757434366+740351987+714707754+681799979+647369984
1053+620151053+607654554+612483155+632182898+661517205+694178555+725046730
1040+751560014+772752300+788765591+800777884+809791097+816347306+821425213
1026+825756971+829238529+831828974+833706939+834927827+835834910+836916677
1013+838069074+839000936+839655462+840200750+840808024+841278812+841401222
999+841131294+840856510+840981143+840993161+840341517+839299840+838376128
986+837588243+836591513+835239984+833571441+831399840+828657104+825633244
972+822076446+817259740+810474353+800603531+785412617+761152265+724495186
959+676861646+628010305+593426454+585026278+603760902+640616990+683602786
945+723641693+756275960+780642833+797759376+809397114+817739501+824739826
932+830751323+835222121+838331922+840607081+842383875+843973309+845648849
918+847252360+848374628+849041502+849514183+849974105+850353600+850293342
905+849713150+848808125+847606665+846002249+843743060+840360039+835188699
891+827634772+817353750+804488621+790572679+779145269+775217783+782048364
878+797479324+815318142+830138534+840150452+846424962+850698438+853726989
864+855362275+856137153+856857947+857391627+857509921+857548447+857642456
851+857592159+857424802+857099309+856495327+855887477+855624053+855540251
837+855261022+854603450+853390630+851572017+848780630+844129881+836392299
824+822799462+800948616+776493166+763855323+772029366+794786885+818731786
810+835457556+844460149+848619447+850673330+852244901+853685665+855103462
797+856636424+857946628+858818973+859512025+859916545+859936960+859804096
783+859463538+859175830+859263501+859381301+859199209+858870999+858672361
770+858470842+857977910+857524245+857488929+857454931+857136518+856737019
756+856292738+855810672+855496292+855453651+855317000+854958496+854886878
743+855249415+855488637+855261351+854874036+854473714+854112988+854125500
729+854441115+854391888+853644999+852755779+852302936+852484781+852954417
716+853173388+853220063+853172482+853101605+853123913+852890866+852249593
702+851573417+851254262+851264141+851141155+850456994+849487841+848883859
689+848729180+848773962+848919421+849066774+848784581+848239129+848393150
675+849160701+849019934+846225007+842579961+846362646+852464942+854578836
662+855084363+855437022+855319469+855062466+855493329+856130732+856249273
648+856797853+858906068+861836000+864139888+865667747+867240881+869036609
635+870503962+871782144+873438340+875222460+876887052+878360003+879438230
621+880118605+880665950+881943144+883830988+885255782+886263954+887253770
608+888519192+890146246+891920735+893794914+895507416+897210451+899354228
594+901517679+903227464+904601467+906037950+908120151+910549578+912295996
581+913695847+915624027+917598472+918885874+919986244+921667877+923363421
567+924595833+925933121+927551202+929416902+931488895+933666011+935593039
554+936573881+937279199+938681684+940457326+942366490+944109615+945491109
540+947057082+948578190+949376776+949999362+951378221+953638563+956394882
527+959239942+961853189+963786309+965226497+967242924+969810154+971715121
513+972665999+973615312+974982647+976195549+977363752+978638888+979941355
500+981207518+981843193+982288873+982924795+983537667+984671624+986120867
486+987959895+990804955+994123849+997857142+1002032986+1005625265+1008694976
473+1011876231+1013733781+1013147251+1012379536+1013719211+1015709625
461+1016654658+1017336679+1018044631+1018418775+1018696193+1018998637
449+1019219419+1018898700+1018347733+1018819015+1020089952+1020243315
438+1019212092+1019332115+1020402686+1020119094+1020055790+1022615447
426+1026077824+1028408714+1029915087+1032704499+1039768622+1049065591
415+1055850485+1059576945+1062007853+1064675843+1068231983+1072626058
403+1073741823+1069556429+1068890955
##END=
