##TITLE=павел 5-многокр
##JCAMP-DX=4.24
##DATA TYPE=INFRARED SPECTRUM
##DATE=3/2/2015
##SAMPLING PROCEDURE=Instrument type and / or accessory
##ORIGIN=Default
##XUNITS=1/CM
##YUNITS=TRANSMITTANCE
##RESOLUTION=4
##FIRSTX=3996.3347
##LASTX=399.24773
##DELTAX=-1.928733
##MAXY=0.89263952
##MINY=0.21538396
##XFACTOR=1
##YFACTOR=8.3133533e-010
##NPOINTS=1866
##FIRSTY=0.81085938
##XYDATA=(X++(Y..Y))
3996+975369804+975618164+975355321+974654621+973696958+973408017+974297209
3983+974667312+974787477+976188804+977514275+978334279+979572710+980078750
3969+979168694+978071078+977989844+979291225+981411248+983519512+984771350
3956+984538190+983778125+983707503+983875849+983689579+983144750+982761168
3942+983514422+984576046+984164718+982717935+981678680+981298826+980963712
3929+979839783+978084413+977200025+977250859+977371310+978778158+982008631
3915+983932346+982100691+979158800+978098036+977400921+976238060+976554461
3902+977807446+978662295+979408953+979422862+979161453+980505494+982103631
3888+981157152+978403539+975784717+974288534+973993499+974024185+974044548
3875+974711549+975006082+973405006+970825474+969340906+969868815+971417337
3861+971360911+968828484+965576932+964067485+966024325+969516493+971616871
3848+971850892+970401957+968307602+966021026+963447230+962105484+962825613
3834+963820989+964074512+964118534+965033107+966558542+966532875+964922191
3821+964122836+963909464+963479853+963941369+964268884+962901039+960788258
3807+959808082+959512975+958737853+958231526+957921793+957908314+959128820
3794+960522475+960674976+959533409+957755240+956878738+958072214+959500930
3780+959040130+957991626+958182843+958960474+958501610+956409478+954431775
3767+954136811+955719031+957163807+956752335+955888094+954944197+951814387
3753+946140105+941263960+941392585+943750213+944135515+943128596+942504111
3740+941164946+938223055+936025455+937010149+938633738+938084105+935993909
3726+934489122+934441156+934750172+934572076+933722317+931636853+927704820
3713+923018028+919963070+918465095+916779989+914458998+911214114+906682332
3699+901537321+896134486+889931579+882322899+873445389+865919592+862476178
3686+861409463+860066425+857540452+853838281+848978913+844405474+842706818
3672+841801709+839455911+837352594+836037375+834520472+833402851+832263507
3659+829621957+826409910+823535056+819826074+815274933+811545087+809407642
3645+808096654+806983049+805351859+802411689+798690805+795907653+794065601
3632+791655132+788721128+786519729+784864664+782261687+777760592+772539725
3618+769434364+767854510+764901936+760710645+756425072+752066439+748672280
3605+746854463+744818398+741098733+736852235+733676610+731241764+727843375
3591+722698293+716669324+710713629+706155749+703812102+702163132+699232139
3578+694965781+690324875+686054071+681998360+677155554+672207281+668899160
3564+666271806+662645276+657962355+652878072+648174789+644140014+640336104
3551+636173851+631435293+626746350+622937852+619174451+614494040+609557884
3537+605029041+600962145+596717404+592063592+588192287+585265775+582086853
3524+578216802+574205723+570168546+565541872+560903009+556876981+553114010
3510+549192051+544551288+539980180+536649008+533678151+530021652+526197272
3497+522763071+519124496+514856417+510605043+506683012+502965641+500011992
3483+497755171+494597614+490328782+486602915+483697734+480612448+476801082
3470+472223987+467680553+464484818+462462088+460196556+457360956+454201141
3456+450738870+447673373+445176257+442383246+438972454+435297887+431949865
3443+429584602+427752982+424869345+421166816+418375418+416474969+414361077
3429+411439082+408103966+405286220+402884318+400178241+397340705+395280048
3416+393949594+392486464+390831793+389299045+388232545+387726863+386526754
3402+383885850+380952527+378795401+377598877+376643723+375127429+373755606
3389+373187081+372708321+372128933+372025868+371868815+370983279+370074729
3375+369736317+369498210+368917532+368355244+367927963+367380302+367163023
3362+367741872+369006293+370263580+370987868+371496633+372042430+372704306
3348+373562811+374499539+375346250+376226372+377636805+379814508+382461794
3335+385022290+386967156+388197628+389374937+391013009+393140273+396105896
3321+399509411+401956661+403054206+404260516+407015742+410456862+412939531
3308+414838474+417495834+420652996+423345738+425655508+428228265+431541046
3294+435317639+438981344+442036338+444402211+447385651+451652117+456035808
3281+459899370+463347481+466059975+468771108+473013913+478139387+482658514
3267+486665077+490782842+495161443+499382560+503358257+507373280+511194576
3254+515102052+519768877+524448428+528455456+532892920+538209360+543467904
3240+548438582+553476441+558354379+562717744+567312405+572639348+577798878
3227+582352743+586752028+591876175+598181287+604284678+609127556+613678983
3213+618546310+623593884+629370621+635971736+642183390+646826303+650104885
3200+653630752+658828747+665526582+672455139+678620119+683952905+688701142
3186+693162589+698265155+704346750+710211389+715182605+719642474+723999172
3173+729002365+734661877+739636821+743613880+747819797+752736165+757660419
3159+762520433+767389982+771229453+774305634+778251361+782943100+787465705
3146+791675709+795308262+798289873+801384193+805208751+809293213+812623776
3132+815057833+817458337+820048981+822932009+826976463+831530257+834933449
3119+837422140+840039958+842867492+845417843+847142454+848300081+849835626
3105+851867963+854025555+856332708+858619284+860452516+861849255+863038716
3092+864122065+865447321+866805988+867598675+868280088+869196095+870092600
3078+871298193+873047468+874803698+875638113+875155661+874395453+874130746
3065+873835065+873943257+874731929+874614919+873605131+873159460+872683962
3051+871258401+869629363+868413230+866899840+864561785+862259149+860483992
3038+858214193+854886283+851326575+847722199+843431536+838769407+833799195
3024+827874402+821176137+813782479+805390289+796050546+785726038+773928290
3011+760144163+745085973+729508692+712165503+691699817+669139561+646541521
2997+623829697+598958093+570563527+538618573+503798587+466526941+425538283
2984+380670971+337764441+304154063+281024923+265982219+259081929+264678777
2970+288272552+330214804+385344212+447204005+508941124+564001344+608336087
2957+641123558+663769062+677764553+683958211+683483645+677724617+668213015
2943+656682125+644527682+633316276+624846152+619436577+616324190+615584774
2930+617806177+622882788+629535740+636043505+641671685+646467099+650091478
2916+652118868+652767801+652196301+650045233+646320979+641708681+636775823
2903+631875444+627748824+624736670+622345057+620081281+617549500+615013058
2889+613294254+612794093+614147956+618508310+626754308+638389805+651416662
2876+664680480+678754265+694227584+710704882+727182109+743384305+759887773
2862+776369302+791838821+806307300+819987178+832605790+844346180+855174005
2849+864683671+873112713+880650914+887142690+892683113+897659204+902469101
2835+907253832+912097212+916649858+920696894+925097470+929701666+933131315
2822+935433019+937734867+940605419+943626320+946142256+948492428+951325195
2808+954865975+959147461+963410952+966802601+969569693+972152595+974706889
2795+977315960+979566329+981208201+982740089+984310981+985556724+986636058
2781+987824587+988950883+990118835+991271157+991824589+992112383+992768272
2768+993299191+993479439+993862518+994583293+995545760+996363398+996136260
2754+995051191+994552750+995123390+995773686+995656318+995017493+994574403
2741+994395446+993935435+993244988+992699800+991977377+991104388+990563789
2727+990301663+990461262+991010393+991358269+992026776+994084064+996846496
2714+998652842+999511276+1000774657+1002680017+1004470590+1005907264+1007067544
2700+1008354801+1010677225+1013983411+1017061957+1019435431+1021806896
2689+1024706629+1027571803+1029343663+1029910360+1030072038+1029892292
2677+1028875264+1027373632+1025513799+1022481928+1018821127+1016233851
2666+1014490886+1012618220+1011438939+1011703647+1013113291+1015493575
2654+1018239660+1020569613+1022824283+1025486052+1028501146+1031911150
2642+1034876629+1036569406+1038154494+1040312015+1041839171+1042168262
2631+1042056414+1042060788+1041733991+1040757686+1039944637+1039906350
2619+1040069247+1040011387+1040164605+1040318539+1039679571+1038814613
2608+1038899216+1039708824+1040079787+1039647881+1039126354+1038925816
2596+1038981596+1039329688+1039670466+1039685522+1039414721+1038964461
2585+1038625475+1038647845+1039023539+1039734922+1040633219+1041364103
2573+1041643007+1041585577+1042113701+1043800169+1045642292+1046967835
2561+1048062727+1048614869+1048458999+1048000565+1047491728+1047265021
2550+1047194184+1046624834+1045470648+1044172063+1043219347+1042677099
2538+1042305850+1042240247+1042333812+1042283767+1042250571+1042103448
2527+1041487280+1040478425+1039800095+1040102013+1040956790+1041772707
2515+1042578300+1043361882+1044166256+1045359158+1046844300+1048037848
2503+1048871833+1049901982+1051342743+1052474774+1052839715+1053154108
2492+1053995836+1055023620+1055790281+1056187843+1056433909+1057006055
2480+1057820180+1058365654+1058887468+1059709623+1060603332+1061477826
2469+1062351245+1063295286+1064619395+1066426745+1068251302+1069458042
2457+1070075859+1070880162+1072163618+1073267903+1073707050+1073643239
2446+1073575270+1073741823+1073596492+1072848329+1071899771+1070805740
2434+1069694285+1068769675+1067307118+1064921384+1062591647+1061031438
2422+1059717367+1058080011+1056390174+1055231829+1054791463+1054761565
2411+1054975296+1055632977+1056693956+1057605804+1058071551+1058846601
2399+1060343859+1061846495+1063138842+1064354401+1065102349+1065245457
2388+1065000252+1064181682+1062276178+1059134108+1054722419+1048709868
2376+1041642863+1034549043+1026519213+1016659304+1006545802+997915075+992279223
2363+989708295+987710947+986285386+989415124+999063955+1012356811+1024350364
2349+1030749077+1029563559+1021220483+1012564446+1010528166+1011859445
2338+1013102679+1015490134+1018688199+1020467587+1021355991+1023350113
2326+1026860780+1030276447+1032456552+1034695091+1037936892+1041707534
2314+1045213828+1047756937+1049889220+1052739912+1055886212+1057889224
2303+1058589494+1059152462+1060231724+1061729556+1063360029+1064646855
2291+1065390429+1066034201+1067077829+1068201185+1068564046+1068251661
2280+1068163831+1068414270+1068452485+1068125258+1067470230+1066501597
2268+1065550028+1064908909+1064216670+1063176125+1062288080+1062100161
2257+1062532209+1063150313+1063804625+1064603119+1065246676+1065369565
2245+1065327407+1065596918+1065929164+1066009250+1066042948+1065977632
2233+1065464421+1064746156+1064214232+1063816168+1063425273+1062784298
2222+1061657429+1060360493+1059325038+1058640757+1058338696+1058243983
2210+1057950096+1057481409+1056955723+1056030539+1054700479+1053510946
2199+1052686712+1052308436+1052569487+1053236058+1053806340+1053851294
2187+1053547727+1053504995+1053695352+1054243479+1055552389+1057014443
2176+1057801753+1057988740+1058000786+1057871945+1057439179+1056892056
2164+1056562893+1056443158+1056549772+1056933712+1057365044+1057692056
2152+1057558986+1056749450+1055733425+1054892055+1054444161+1054263053
2141+1053838819+1053207809+1052733459+1052532778+1052600388+1052748659
2129+1052904672+1053349412+1053797091+1053729839+1053528082+1053661798
2118+1053911664+1053787268+1053303095+1053053086+1053260937+1053577410
2106+1053635413+1053402898+1053254198+1053296427+1053004547+1052364647
2095+1051905496+1051578843+1051127937+1050608346+1050294813+1050197161
2083+1049933816+1049618060+1049692769+1050094777+1050364861+1050361276
2071+1050501373+1050986622+1051283449+1051119334+1051150450+1051524209
2060+1051727185+1051899115+1052250863+1052580026+1052875492+1053193040
2048+1053509011+1053990674+1054524677+1054681551+1054637242+1054890549
2037+1055437027+1055872159+1056005803+1056033192+1055990962+1055832726
2025+1055642584+1055428137+1055355005+1055674418+1056296035+1056763861
2014+1056575942+1055920842+1055526506+1055508510+1055545792+1055666459
2002+1055889510+1055799888+1055192396+1054376048+1053317148+1052151706
1990+1051745109+1052179309+1052449609+1051837240+1050585187+1049351059
1979+1048534998+1048222182+1048292159+1048553496+1048687785+1048588269
1967+1048572066+1048615658+1048426233+1048198307+1048253084+1048404294
1956+1048277819+1047918113+1047567297+1047061328+1046201891+1045166579
1944+1044021212+1042913342+1041988732+1040583390+1038113268+1035041246
1933+1032054903+1029481968+1027717923+1026923658+1026858414+1027540758
1921+1028729503+1029848915+1031058165+1032515058+1033474298+1033417155
1909+1032890681+1032682041+1032886737+1033344526+1034152198+1035155245
1898+1036037913+1037008267+1038200883+1039281579+1040320905+1041585792
1886+1042659820+1043327180+1043974322+1044658316+1045267171+1045779449
1875+1045994255+1045516965+1044146539+1043022251+1043613612+1044997660
1863+1045678714+1045792498+1045945357+1046081152+1045923489+1045381600
1852+1044596728+1043907428+1043140050+1041828775+1041108860+1041949657
1840+1042615224+1042115851+1041349119+1040865089+1040048813+1038792243
1828+1038190271+1038267274+1038326496+1038436194+1038451609+1037968511
1817+1037008984+1036023215+1035140834+1034112477+1033073294+1032283331
1805+1031558255+1030424933+1028908173+1027699210+1026966247+1025960618
1794+1024202739+1022815895+1022727277+1022440774+1020946240+1018704618
1782+1016003416+1013095653+1010314866+1007104182+1002764118+998130526+995285355
1769+994374367+994539701+995131205+995600824+996305753+997168919+997890052
1755+998600718+998527300+997537874+997495071+998891308+999879227+999472487
1742+998210612+997188708+996463058+994626383+992338947+992347049+993444235
1728+993805591+993330308+992145866+990331203+987348086+983165470+980556327
1715+981119081+982313274+982010065+979795761+976463549+973323056+970041749
1701+965606974+962391055+961288778+960304658+959559937+958181553+955397540
1688+951595709+946118094+940945049+939781471+939633846+937469658+933477829
1674+929732353+926966121+924552999+923875673+924388884+923444126+921970528
1661+922115285+922655884+921651546+918479291+916220605+918072479+919584507
1647+920065239+922699404+926652803+929293134+930073418+929723391+931155261
1634+935801042+940191437+942844316+944808396+946795994+949033457+952173161
1620+954946491+955941939+957069668+959909677+962491073+963886808+964866123
1607+965703407+966127784+966563274+967432535+968128072+968095091+967794033
1593+967805577+968084982+968285018+968274406+967924451+967249778+966580410
1580+965441639+963137712+961286412+961503942+961319178+959717671+958701144
1566+958247730+957223173+954675833+948921394+943999792+945346629+947653782
1553+948185491+947564662+946493789+944660269+941220870+936589858+932203765
1539+930919591+932140958+931638645+929341315+927690552+926186052+923361674
1526+919674846+915555898+911069142+907697855+905396151+903353203+901288531
1512+897945564+892404568+884425930+876949245+874053814+871623987+866087723
1499+857945399+849186405+840982780+832071357+820427186+807840694+798056569
1485+790378200+782371241+772884231+761391628+746674932+727913854+705902944
1472+686067766+675577421+673676506+677686402+685577140+693316595+698239272
1458+701652287+708272976+718515534+729396844+739742432+748779612+755996608
1445+760567537+762004139+760490605+756151044+749697769+744132396+739897011
1431+734748702+729025165+723955723+719025088+713816840+708153886+701363131
1418+695020844+690763090+687344841+684565130+683317164+683646829+685171045
1404+687613778+689814030+690360007+688515732+683234138+674852058+665437677
1391+652811178+630962663+598685965+563394210+534450835+521590423+531093672
1377+557655400+588861655+614119779+630572271+644311371+663205305+690341795
1364+724052730+757886768+783564144+798714250+805372652+805600148+800450476
1350+790315680+776111765+759955671+745128633+736116332+736445782+745216175
1337+756809800+765852143+770530905+771298498+768883799+763808621+756881928
1323+749015568+740582511+731947195+724139053+718131522+714226447+712381528
1310+712417520+714293126+718430070+725116720+734073957+744898340+757072859
1296+769970876+783045628+795709696+807562364+818528063+828409767+836761161
1283+843281043+847885598+850871368+853327006+856434662+860566013+865599535
1269+871237322+876833023+881865183+886436685+890634429+894136851+896597078
1256+897971877+898874907+900326207+903135027+907395937+911689898+914165254
1242+915504849+917825482+920652298+922479795+923933533+925752068+927630111
1229+929573328+931571823+933390788+935112532+936875859+938473136+939544869
1215+940102604+940323002+940259837+940047540+939518700+938164048+935886864
1202+933068723+929863918+925920485+920935360+915014439+908471040+901672112
1188+894847158+887627939+878967027+867884963+853850900+836036013+812794487
1175+782255593+743183408+696273256+645988088+600444633+568363956+555252280
1161+561062787+580733276+607181830+634317890+658207202+676886474+689651994
1148+696261999+696396647+689493686+674870699+651871655+621216037+586844733
1134+555699852+535570033+532038000+546244675+574335818+608069157+637706098
1121+656295676+661881267+656857067+645787048+633195753+622516055+615728670
1107+612955771+612573193+611693680+606929454+596176590+580590885+564677092
1094+553854072+551889023+560452749+579190633+605287726+634683045+663971966
1080+690906198+714375936+733770677+748888735+760078130+766065371+764466876
1067+755908492+741670018+717822506+678132074+621448910+554816431+491518279
1053+445753279+427555706+439723306+478827862+538131425+608656575+680762296
1040+746609687+802233306+847108111+882065434+908202677+926661980+940660912
1026+953873825+965621671+973760267+978958549+982727542+985657316+988027850
1013+990051726+991820288+993161604+993846028+994166301+994301379+993922529
999+992941564+991598599+989920018+987569201+984230751+979924673+974888427
986+969212783+962848557+955470671+946447687+935394733+922162677+906834617
972+889421451+869212299+844948009+814683859+774116711+716009707+636255658
959+543068728+457656852+403358597+393596627+427958359+494756316+577219096
945+660291519+733794696+792518800+835841426+867307942+892212060+913934818
932+932637176+947149391+957173343+963469457+967481074+970533450+973080360
918+975253725+976872654+977428238+976828632+975325351+972908716+969404860
905+964998334+959792452+953379973+945284539+934902673+921031291+902143738
891+877252310+845984253+809447362+772355892+743780433+735677758+755758285
878+798412906+847168910+887713617+915491729+932591720+942725441+948670166
864+951799402+953052746+953131828+952419370+950950934+948900745+946684432
851+944282854+941639368+938777348+935701024+932303998+928260117+923405194
837+917717935+911286170+904045370+895509355+884628762+869453633+846134746
824+807930459+752085439+695024573+669088728+691081713+745379502+802652378
810+843414543+864818247+873519525+877007463+879849982+883132937+886095620
797+887981192+888823351+888766710+887864899+886503722+884955917+883141971
783+880943583+878650698+876376095+874029007+871750963+869234884+866374656
770+863753325+861491771+859166550+856619498+853935646+851256598+848761885
756+846414079+844085560+841722698+839369730+837086094+834767398+832312118
743+829727352+827138643+824700499+822455937+820314334+818200620+816171152
729+814097661+811771006+809367635+807027214+804561323+802319845+800706508
716+799237140+797668901+796156586+794682916+793077395+790921810+788236812
702+785669253+783591675+781830140+780118148+778334100+776370306+774300041
689+772478854+771098104+769826190+768534775+767385035+766120291+764796541
675+763686305+762266337+759458664+756494547+759180119+763111507+763658917
662+762781483+761774994+760905734+760555850+760606254+760415180+760270423
648+761178543+763008908+764847804+766253720+767352986+768382777+769416511
635+770473117+771731622+773209164+774286490+775110796+776798842+779249891
621+780976797+781517181+782380490+784244553+786262191+788127043+789773145
608+791387772+793229824+795174259+797202222+799274925+801587527+804326012
594+807126659+809683462+811833598+813736090+815998719+818490135+820716843
581+823086517+825642460+827790516+829665119+831583958+833423428+835074048
567+837111403+840000166+842877099+845102660+846881188+848620067+850834443
554+853297108+855622401+857484743+858637423+859912348+861785301+863907259
540+866069082+867884318+869407316+871169497+873027823+874745838+876790005
527+879388608+882056973+884200584+885745737+887216252+888850739+890307489
513+891261925+891900822+892529250+892682252+891796502+889865402+887673897
500+885938459+883953443+881093933+877085040+872314649+869131711+869282993
486+872942145+880075829+889373342+898628841+906620887+912505027+916182104
473+919295495+922245559+923627958+924183399+925498689+926832835+926862446
459+925422188+923392575+921781103+919945217+917262370+914190491+910230425
446+904906672+899716778+895865907+891972734+886316950+879675255+874333291
432+870966378+869028825+869013482+872045855+878593555+887449699+898229271
419+912775111+928735973+942169140+952769971+961003924+966539614+968939114
405+969919505+971256663+974646089+981650574
##END=
