##TITLE=5
##JCAMP-DX=4.24
##DATA TYPE=INFRARED SPECTRUM
##DATE=16/11/2015
##SAMPLING PROCEDURE=Instrument type and / or accessory
##ORIGIN=Default
##XUNITS=1/CM
##YUNITS=TRANSMITTANCE
##RESOLUTION=4
##FIRSTX=3996.3359
##LASTX=399.24785
##DELTAX=-1.9287336
##MAXY=0.72603548
##MINY=0.089127846
##XFACTOR=1
##YFACTOR=6.7617323e-010
##NPOINTS=1866
##FIRSTY=0.29532132
##XYDATA=(X++(Y..Y))
3996+436753930+436842036+436916479+437051921+437289133+437530972+437671924
3983+437681312+437676199+437784536+437997242+438274561+438520279+438685340
3969+438882223+439165493+439415575+439541849+439665568+439830144+439936056
3956+440043202+440201652+440353578+440471567+440632044+440801556+440834216
3942+440965956+441199818+441226660+441136086+441026251+441101575+441460874
3929+441633472+441476653+441449591+441686714+441775613+441780241+442040328
3915+442411836+442457409+442274542+442188332+442072635+441921458+442137293
3902+442616829+442925177+443103989+442939193+442421797+442221961+442630624
3888+442674038+442305395+442580467+442768270+442651472+442896484+442837688
3875+442472042+442362075+442345283+442737638+442970574+442576103+442487997
3861+442606471+442413863+441721357+440932724+441630739+443535616+443927619
3848+442916186+442034642+441803777+441963373+442060602+442322804+442937606
3834+443113862+442750332+442458864+442165192+441873504+441659961+441405075
3821+441936135+442701232+442485309+442525902+442775587+442286222+441635102
3807+441654760+442241750+442124423+441933314+442495931+442487160+442075984
3794+441933710+441743703+441547834+441424733+441347910+441386564+441385682
3780+441330897+441542677+441671641+441370697+440941627+440755322+440975080
3767+441054899+440890720+440676295+440352168+440389059+440675017+440498453
3753+439981453+440164761+441076496+441167599+440222984+440377467+441045555
3740+440263048+439092417+438912855+439461545+439784394+439642076+438970241
3726+438350194+438254772+438217220+438043388+437699339+437130507+436320982
3713+435705431+435787322+435859693+435169876+433907216+432548472+431438003
3699+430289982+428656343+426748249+424744380+422768234+421295204+420602169
3686+419906181+418547085+417240658+416564151+416144469+415992367+416558421
3672+416508132+415811395+415869309+415826292+415206554+414724109+414454767
3659+413987572+413574898+413688171+413451708+412666072+412573735+412901520
3645+412451427+411202606+409977454+409117859+408387052+407599036+406772189
3632+405795135+404848096+404733501+404465525+403062442+401325799+399960180
3618+399106756+398101715+396452252+394761580+393273609+391837778+390471322
3605+388822741+386805032+384812006+382977781+381114247+379188920+377272319
3591+375159453+372804262+370760417+369041250+366953198+364501307+362120751
3578+359840929+357508899+355145973+352772425+350272735+347834154+345791433
3564+343673851+341018377+338232596+335635059+333097905+330477317+327844343
3551+325277549+322558232+319690229+316969106+314361917+311664418+308844434
3537+305992166+303216015+300477967+297697673+294907793+292138231+289351414
3524+286535684+283760283+280996297+278189668+275390444+272638270+269938214
3510+267287258+264704861+262086212+259355260+256710916+254175657+251572214
3497+248901358+246239780+243636469+241076859+238500500+235958057+233505130
3483+231037217+228519764+226033715+223589383+221181589+218773155+216277938
3470+213755681+211379467+209178539+206964829+204628568+202291206+200086840
3456+197966987+195830078+193712011+191636872+189572775+187579374+185659291
3443+183714284+181746777+179778124+177846362+176043364+174360648+172714745
3429+171097964+169565301+168093891+166582747+165016476+163456927+161907681
3416+160346820+158839092+157449331+156146100+154899825+153660745+152294266
3402+150836288+149586795+148639425+147761617+146736113+145632851+144672258
3389+143879724+143133854+142403554+141674730+140918723+140199683+139575956
3375+138998486+138428321+137864811+137338677+136958740+136810923+136804103
3362+136760755+136671933+136626337+136618305+136582009+136537703+136653576
3348+136975566+137318513+137581398+137824615+138113295+138518245+139077435
3335+139731188+140404897+141036050+141611008+142213679+142950028+143824509
3321+144727154+145622096+146568320+147578210+148615548+149594530+150453496
3308+151328969+152453884+153848537+155290704+156592172+157781138+158994060
3294+160300002+161727822+163295216+164895898+166414402+167904710+169448006
3281+171048248+172711671+174429603+176140186+177825801+179588414+181510535
3267+183521456+185543683+187604276+189714652+191827960+193948076+196166855
3254+198512746+200874526+203163340+205443316+207850031+210412925+213028709
3240+215635193+218240597+220841418+223463262+226191151+229069512+232031284
3227+235000109+237955006+240911842+243887763+246881512+249895337+252932169
3213+255997121+259095526+262249973+265464493+268687565+271873899+275045204
3200+278245335+281469463+284694386+287906835+291127901+294367566+297606945
3186+300862609+304128654+307354303+310543437+313755291+316981800+320144047
3173+323245053+326343678+329453785+332559882+335639268+338685004+341704779
3159+344690749+347620170+350492206+353342800+356188457+358997818+361751843
3146+364453574+367098712+369694442+372263198+374816109+377340503+379805220
3132+382207836+384570872+386895342+389156389+391363003+393573715+395774996
3119+397888259+399919763+401933197+403941782+405903603+407778553+409581308
3105+411354312+413085269+414763071+416402881+417971465+419473761+420948157
3092+422369531+423724793+425049775+426361535+427594268+428693674+429719519
3078+430722798+431674069+432556450+433374922+434133144+434837727+435469894
3065+436000469+436444612+436815724+437113186+437349383+437523347+437607531
3051+437575841+437439120+437208828+436880999+436443951+435860795+435111961
3038+434221426+433195625+432010184+430644213+429096784+427360979+425419961
3024+423248431+420806765+418068386+414997815+411549300+407691769+403385203
3011+398569174+393174176+387129380+380391682+372902197+364530154+355145467
2997+344669174+332994571+319830234+304878413+288225056+270061668+250343557
2984+229212293+207448948+186590662+168578947+154660850+144904357+138795212
2970+135270150+133006911+131812148+132934892+137947188+147482215+160490383
2957+174467970+186558641+194885199+198927734+198775389+194648450+187208130
2943+178049503+169728742+164762704+164256943+167608581+173304159+179981145
2930+187097833+194732104+202935626+211530578+220338236+229165992+237596875
2916+245016765+250834134+254776707+256986979+257854573+257881040+257507681
2903+256978649+256394986+255586365+254002332+251065968+246518136+240400154
2889+232680861+223137416+212049274+200772470+191749087+187878863+190806720
2876+199639479+211900874+225528682+239598716+253713046+267469729+280522050
2862+292725839+304069703+314715222+325075002+335616812+346580133+357797811
2849+368776668+379048541+388387809+396774176+404294294+411052972+417188517
2835+422888426+428347377+433732899+439072495+444283877+449327244+454170732
2822+458762684+463120201+467278764+471200115+474876630+478432819+482007433
2808+485610254+489187423+492719989+496174983+499489421+502607506+505512400
2795+508222659+510702273+512889318+514791461+516428010+517817782+519046460
2781+520182934+521220370+522153129+522978521+523670851+524225755+524662582
2768+525006896+525327101+525691116+526098986+526528409+526964002+527392587
2754+527780403+528069402+528222739+528240589+528166720+528041459+527907162
2741+527911790+528247157+529008332+530189012+531701048+533333938+534789206
2727+535899367+536777957+537684139+538839521+540371435+542278824+544414477
2714+546551540+548512745+550254720+551811096+553217220+554497598+555668847
2700+556751990+557755048+558658673+559446778+560125753+560700447+561129076
2687+561353329+561364789+561199640+560929857+560714683+560766691+561235914
2673+562172727+563473689+564908726+566316878+567643755+568864367+569984180
2660+571045682+572090876+573108700+574081831+575028827+575960483+576868957
2646+577756451+578630105+579476830+580281198+581029547+581706010+582320107
2633+582892376+583437980+583971728+584480486+584927891+585298870+585589809
2619+585784973+585890180+585930068+585931919+585934608+585972027+586045677
2606+586121574+586178827+586209988+586175433+586067626+585946420+585841213
2592+585728293+585598448+585467854+585349116+585249594+585183085+585170480
2579+585237518+585405443+585662665+585969603+586296728+586622662+586941368
2565+587261132+587571200+587846360+588044653+588149111+588222231+588309368
2552+588384604+588431059+588458694+588508851+588645263+588867709+589149481
2538+589532184+590040280+590591835+591123379+591678327+592269725+592846578
2525+593416071+594024747+594685254+595367315+596023812+596643858+597284136
2511+597996608+598742445+599461263+600163907+600889601+601629224+602337641
2498+602990171+603590560+604146214+604661891+605143057+605571290+605946280
2484+606337622+606777798+607234680+607701257+608178281+608666808+609167015
2471+609633813+610073197+610571420+611134434+611696919+612264384+612877600
2457+613520125+614141229+614718523+615268976+615812773+616339116+616839191
2444+617322606+617785569+618232445+618675752+619107157+619537329+619978035
2430+620397188+620760807+621058665+621318796+621579676+621808866+621953432
2417+622038408+622128586+622254993+622416616+622625002+622911534+623275372
2403+623653051+623986214+624280194+624562935+624857135+625191929+625565597
2390+625890033+626044251+626015161+625920797+625870728+625846531+625817794
2376+625821981+625808450+625629373+625359678+625206121+625106115+625174652
2363+625501952+626202480+627641969+629647998+631033671+629976753+626395484
2349+623664555+624771674+628200311+630252751+630171300+629666730+629671093
2336+630175884+630767017+631457716+632310744+632899233+633158790+633743842
2322+634874541+635765958+635884784+635780150+636105776+636790128+637489774
2309+638051907+638486971+638868308+639315713+639829759+640281924+640676395
2295+641072189+641423422+641722295+642004859+642254148+642410085+642485806
2282+642580743+642725177+642830340+642849028+642831926+642804600+642746950
2268+642660343+642588016+642558838+642574925+642640024+642752151+642903857
2255+643082625+643283651+643507420+643735464+643958571+644136193+644308791
2241+644493906+644674173+644880488+645158645+645486430+645815626+646140459
2228+646457887+646738204+646980749+647208969+647430974+647649498+647847792
2214+647989845+648071296+648105718+648068519+647944801+647797194+647723148
2201+647820024+648145694+648657185+649261100+649890447+650522173+651136843
2187+651679318+652123461+652520048+652939686+653374971+653748770+654062188
2174+654382525+654701010+654973438+655219464+655485810+655788561+656100523
2160+656396795+656688836+656984006+657275077+657562226+657837651+658092316
2147+658326883+658533815+658717211+658903824+659095506+659280842+659489978
2133+659751386+660041488+660352745+660688949+661001044+661276689+661577148
2120+661920801+662279483+662629482+662947572+663252482+663576081+663900076
2106+664224556+664582004+664970084+665382891+665814870+666239664+666639248
2093+667025301+667398351+667747690+668023687+668172925+668204615+668156882
2079+668041097+667846594+667581615+667263350+666922033+666601828+666333808
2066+666192063+666298019+666594071+667006349+667567952+668220482+668898267
2052+669596767+670286761+670884726+671334908+671641758+671817353+671920048
2039+672000925+672066906+672181104+672421268+672829094+673383381+674050500
2025+674808942+675626357+676457303+677240030+677989349+678760176+679431350
2012+679967434+680476059+680960135+681399783+681789009+682138788+682490066
1998+682860824+683200775+683399685+683542753+683854759+684119826+684270739
1985+684433420+684593500+684790075+685013094+685234174+685437756+685626618
1971+685820107+685972959+686144366+686421598+686588686+686633643+686690720
1958+686658369+686465453+686166845+685766688+685244267+684572124+683740870
1944+682740456+681888134+681346673+680790358+680372615+680261502+680344275
1931+680572011+680986227+681689488+682673021+684066716+685760870+687145353
1917+688661753+690283712+691386953+692262679+693165202+694050845+694760496
1904+695316987+695868189+696433583+696928721+697334167+697834859+698259212
1890+698495587+699009457+699487053+699645900+699844942+700097007+700334263
1877+700572929+700886037+701265567+701391048+701614685+702342275+702830008
1863+702934202+703148142+703524674+703904601+704218370+704453643+704618527
1850+704768294+704958521+704750311+704741276+705411568+705532863+705296136
1836+705553666+706106058+706437105+706753960+707601213+708074050+708199311
1823+708664919+708925711+708999316+709308678+709783542+710062140+710261888
1809+710666760+711052857+711279799+711343179+711450281+711923999+712488247
1796+712635193+712370523+712556916+713283007+713345990+712882983+712849618
1782+713036540+713108779+713343081+713495757+713249202+713188466+713732792
1769+713803180+713642042+713509949+713098862+713204818+713487956+713429468
1755+713661347+713656895+713449699+713914514+714385411+714348520+714117126
1742+713893798+714044138+714526980+713905743+713386011+714324235+714542141
1728+713889435+713374639+713148887+713304648+713122354+712494241+712692182
1715+713155234+712854025+712152969+711514366+711117295+711315456+711315148
1701+710381022+710544717+710463795+709246092+708608591+707534396+706383554
1688+705534361+703938538+702992821+703150962+702201764+700304865+698585367
1674+698030948+697606198+696347548+695797008+695695547+694762700+693985173
1661+694205769+694671333+694661416+693733858+694238693+697012772+697363124
1647+695938180+696114524+696954196+697179904+697427694+697718985+698774185
1634+701001558+702333900+702570186+703329114+704578287+705637453+707053141
1620+708233954+708392491+709312733+711336524+712396175+712752168+713469753
1607+714426356+715270392+716017419+716804554+717571767+718230556+718840995
1593+719433230+719915499+720280704+720587818+720837371+721088819+721467908
1580+721685241+721175206+721105920+721990416+721614942+720406009+720222437
1566+720201237+720009907+719475278+717975009+717974525+719124176+718116887
1553+716232196+714734308+713694668+712897660+712093732+711211351+709766000
1539+708864358+708383368+706079260+703218000+701630772+699939968+697700959
1526+695783741+693686389+691098306+689078526+686680803+683663165+680871059
1512+678186012+675241098+670999674+666539815+663156487+658812237+652756863
1499+645790592+638272502+630523547+621386936+609512034+595523913+580472307
1485+565016666+549768750+535623105+523450476+513085187+503165451+491567737
1472+478243561+465648166+455457766+447962110+441988143+435485188+428762211
1458+427008820+436013867+453210427+471735318+488551818+502554131+512692611
1445+518399968+520715492+521777038+523057812+525627692+529379355+532068193
1431+533206253+534145711+535191258+536137680+537365829+538689930+540161726
1418+542541599+544866289+546531971+548307091+550435428+552594705+554594828
1404+556737489+558783802+559975237+560021472+557899922+553299596+547334665
1391+539515058+529129670+518326495+510738238+509125931+515148293+527973671
1377+543833569+558632713+570484696+579317675+586152250+592283300+597511034
1364+601113679+603296712+604189187+603858184+602873240+601625345+600027098
1350+598034644+596297958+596151849+598498490+602521125+606603746+610284360
1337+613837553+617538705+621689995+626411351+631627978+637191695+642993109
1323+648906781+654774880+660566068+666245041+671553388+676338785+680623005
1310+684175757+686754144+688344854+689076719+689286780+689350028+689503365
1296+689902508+690704496+691935290+693441288+695058091+696598159+697705454
1283+698007765+697340073+695840951+694107658+693128003+693806009+696453549
1269+700599991+705395040+710131117+714360112+717837628+720456255+722090599
1256+722585252+721796178+719556288+715819743+710615942+703831304+695525770
1242+686616013+678577970+672496637+669311646+670194953+675686608+685057698
1229+696675510+708816140+720202339+730078308+738305608+745157461+750851155
1215+755553338+759523701+762970188+765975661+768619895+771023128+773265487
1202+775357373+777276046+779012952+780499778+781766405+782885997+783884031
1188+784739350+785415284+785869168+786146753+786376912+786558501+786577365
1175+786366775+785887327+785150570+784213359+783034530+781578910+779906264
1161+778051324+776101007+774167525+772196757+770009492+767377774+764063336
1148+759861844+754674395+748614967+742001075+735268930+728851701+723108070
1134+718236242+714135638+710576186+707433817+704584854+701790191+698682861
1121+694756882+689404769+681861689+671106291+655902583+635028716+607687903
1107+574152087+536830318+500847945+472254873+454412792+446267207+444543610
1094+446993959+453166925+462985508+475252854+487270074+495522320+496274724
1080+485697787+460341582+419125745+367282857+318015270+286340983+278410726
1067+286097403+292297254+283419715+258565745+227685161+202821979+191630900
1053+196974463+219536137+258978684+313363464+378369522+447512545+513783952
1040+571546859+617807695+652087100+675124299+687745963+689977435+680464291
1026+655513048+609530854+542654166+470600387+420798611+413085533+445053029
1013+497687460+552887407+603140687+647895921+687239894+720156280+745620953
999+763532585+774631194+779978106+780514851+776800388+768979900+756908997
986+740129387+717499925+686773008+644370540+586254724+511644243+428310927
972+353659655+307794590+303440775+341005375+409936376+493894984+577821065
959+652269173+713147962+760055069+794845479+820171051+838502453+851855057
945+861736139+869134653+874718160+878947860+882060699+884219668+885614024
932+886349459+886407109+885738139+884322275+882167713+879223416+875265483
918+869961147+863049485+854506608+844663607+834249923+824536766+817444837
905+814708663+816186497+819105583+819372501+813593918+799803297+777543669
891+748988723+720082411+698744170+689715101+692570455+706688244+733057292
878+768301850+803462579+831063390+849085914+858665258+861256427+857467829
864+847394492+832802677+819588292+815942586+825293798+842631045+859949956
851+872975612+881571555+886917498+890050788+891702190+892351678+892352119
837+891886247+890971867+889767562+888463207+886988635+885277380+883398463
824+881416059+879333163+877057307+874499195+871624978+868379384+864671004
810+860492695+856083611+852032326+849090145+847628795+847313218+847391495
797+847222776+846431807+844941543+842942479+840590285+837984837+835176202
783+832120572+828806839+825195070+821129330+816450858+811340893+806528346
770+802936940+800864358+799425046+797091804+792712691+785986496+777978160
756+771657191+770273148+774128210+780168951+785159297+787946422+788917306
743+788811350+788086757+786914362+785470113+783927048+782418362+780948814
729+779347393+777524011+775614595+773748813+772329422+770657834+768559072
716+766596942+764877048+763220005+761610916+760010112+758358887+756698142
702+755098396+753568642+752135147+750857766+749672590+748471459+747289632
689+746133281+744955157+743862538+743002106+742309159+741645566+740742294
675+738865140+736689555+738329100+743860863+744279223+738653272+736152105
662+737915456+739630458+740105675+740270691+740597199+741203406+742168119
648+743284715+744298087+745311194+746539300+747923430+749248500+750523942
635+752030690+753866236+755793635+757638878+759440223+761499406+763734448
621+765982008+768394232+770889404+773219208+775432918+777767570+780420267
608+783274827+786060983+788796981+791656390+794728857+797995694+801390966
594+804723476+807835434+810876872+813928271+817061473+820435501+823995614
581+827562866+830897756+833943954+837143357+840581470+844162827+847873323
567+851406814+854626315+857669605+860761553+864161673+867708122+871063815
554+874325804+877656463+881082411+884568213+887913152+890959526+893816026
540+896810127+900018610+903182576+906149528+909084745+912263080+915437272
527+918239031+921029770+923827738+926409562+928810415+931044135+933275210
513+935603163+937947247+939933794+941514323+942810304+943380281+943385747
500+942953018+941844004+940106304+937599671+934490710+931110512+927294412
486+923218093+920081100+919016954+920038788+922421570+924717788+924896997
473+922372294+918192311+913302192+909798319+910456799+916842911+928240261
459+942111363+956833552+969858503+978871660+984806180+988705229+991632954
446+993918506+995006541+995888834+997375659+998747273+1000063969+1002038704
432+1005118223+1009625419+1014994016+1020796487+1027239368+1033503216
420+1037932840+1042272463+1046951463+1049685081+1051859476+1055019300
409+1059445221+1064748499+1069177594+1071755981+1072938072+1073741823
##END=
