##TITLE=5
##JCAMP-DX=4.24
##DATA TYPE=INFRARED SPECTRUM
##DATE=16/11/2015
##SAMPLING PROCEDURE=Instrument type and / or accessory
##ORIGIN=Default
##XUNITS=1/CM
##YUNITS=TRANSMITTANCE
##RESOLUTION=4
##FIRSTX=3996.3359
##LASTX=399.24785
##DELTAX=-1.9287336
##MAXY=0.7513172
##MINY=0.11074618
##XFACTOR=1
##YFACTOR=6.9971867e-010
##NPOINTS=1866
##FIRSTY=0.27907667
##XYDATA=(X++(Y..Y))
3996+398841244+398943762+399101693+399232663+399320104+399438935+399609431
3983+399766339+399879335+400007153+400200350+400439844+400652676+400780622
3969+400868616+401005464+401193252+401372563+401506344+401596980+401692897
3956+401784938+401787493+401776760+401924895+402144030+402222612+402241523
3942+402365422+402504698+402548440+402502440+402431056+402478930+402658412
3929+402784952+402827076+402914985+403011030+403032198+403101750+403310749
3915+403527797+403621882+403596923+403444913+403203332+403107799+403304999
3902+403644499+403950819+404051251+403823384+403533760+403543087+403661663
3888+403585935+403536145+403587979+403565320+403651058+403836460+403868106
3875+403804048+403773126+403879989+404038729+403999289+403944431+404065136
3861+404066371+403685429+403147579+403156737+404040092+404798994+404631565
3848+404028677+403581548+403397934+403381153+403562467+403975863+404294493
3834+404291895+404204369+404156964+404030338+403805794+403602631+403687048
3821+404042094+404211652+404284484+404470014+404383766+403979228+403746804
3807+403907844+404075443+404111263+404321113+404476744+404351609+404204241
3794+404066115+403885739+403775639+403749615+403747315+403711325+403649524
3780+403699740+403816996+403757537+403525582+403349891+403362711+403439802
3767+403422808+403318245+403155203+403073384+403170366+403167555+402882104
3753+402694444+402995569+403336048+403199541+403146515+403445893+403250353
3740+402463639+401921445+402032397+402437104+402628810+402449201+402102332
3726+401870931+401796778+401748394+401628796+401317237+400753022+400138166
3713+399856293+399904890+399779415+399230406+398459067+397718139+396947780
3699+395894866+394524388+392961693+391351805+389988993+389166502+388651098
3686+387881292+386751799+385639938+384902588+384649251+384832780+384993777
3672+384791466+384692269+384817617+384733881+384484676+384299402+384115022
3659+383919482+383885664+383857511+383587905+383441133+383716745+383890350
3645+383499697+382791139+382132924+381597885+381110421+380607497+379983270
3632+379318837+379049699+379051829+378491575+377327412+376224112+375528459
3618+374940479+374015383+372846109+371729904+370730741+369788056+368719383
3605+367388771+365948740+364568508+363183974+361740834+360322397+358879300
3591+357303827+355778080+354460415+353084187+351472788+349813643+348199944
3578+346556047+344870772+343150785+341311902+339400933+337700283+336261167
3564+334715338+332884932+330964848+329089911+327206435+325283604+323367290
3551+321430233+319385270+317297949+315307568+313396066+311425255+309306310
3537+307113745+304989667+302940168+300860407+298713735+296531924+294348878
3524+292225397+290184714+288146076+286030921+283858417+281687062+279561835
3510+277487888+275413387+273270718+271052577+268866954+266763193+264667141
3497+262573985+260520418+258483377+256415798+254304881+252178546+250067480
3483+247960056+245824841+243691159+241609716+239571290+237513358+235381997
3470+233205340+231117082+229182624+227262135+225268538+223302668+221415593
3456+219540614+217668723+215838912+214023093+212210937+210440223+208708055
3443+206960958+205171375+203378854+201653500+200052302+198547403+197067933
3429+195624792+194229398+192801804+191332832+189930345+188621327+187294378
3416+185867678+184428243+183072225+181792233+180599405+179447316+178166824
3402+176768959+175568337+174669936+173781150+172691810+171569344+170688353
3389+170027061+169353705+168618442+167907392+167238540+166627261+166095012
3375+165582547+165040768+164497966+164040806+163750777+163613120+163547103
3362+163493938+163482129+163550659+163657650+163738862+163790057+163913191
3348+164179794+164520093+164869484+165229492+165624255+166140702+166807382
3335+167500703+168175976+168892520+169626804+170361173+171186316+172151788
3321+173173886+174172644+175155270+176171012+177221540+178229477+179177902
3308+180174210+181342803+182710066+184151737+185506094+186768091+188064715
3294+189474527+190995887+192601388+194227801+195816264+197384198+198979860
3281+200639920+202380586+204147488+205873715+207584034+209388758+211353882
3267+213381809+215367591+217365809+219458028+221616712+223784297+225982803
3254+228239491+230507401+232751311+235033212+237444530+239972697+242536195
3240+245085893+247600964+250077937+252576524+255207190+257973105+260757591
3227+263506789+266250067+269006719+271791482+274613022+277430815+280233572
3213+283059479+285904530+288756119+291615971+294460149+297271085+300075354
3200+302911823+305784495+308645646+311464142+314279996+317088397+319834252
3186+322545693+325292783+328069964+330820887+333547704+336271411+338965431
3173+341593520+344138895+346641252+349167269+351725847+354248627+356654237
3159+358944849+361204432+363484673+365758525+368000944+370215039+372395785
3146+374536963+376623624+378638645+380608263+382567531+384494984+386364042
3132+388178711+389929280+391625586+393306474+394975947+396608025+398185414
3119+399714675+401222683+402710203+404145123+405502143+406796084+408085212
3105+409383156+410634462+411802502+412897113+413966466+415064825+416165995
3092+417157236+418009882+418822706+419637999+420417132+421129311+421775174
3078+422378828+422943170+423463898+423944760+424371616+424753921+425124087
3065+425450937+425669475+425769268+425795633+425803555+425785325+425689494
3051+425505880+425235507+424863084+424418510+423939522+423382335+422677099
3038+421814571+420810681+419679356+418440869+417071073+415536019+413849424
3024+411987776+409894088+407543187+404908540+401942017+398613548+394928670
3011+390861786+386321067+381226058+375521645+369123623+361946170+353933320
2997+345029490+335132377+323982657+311346822+297286822+281873040+264997270
2984+246662176+227402582+208619251+192148338+179120552+169747169+163916364
2970+160800556+159008823+158272441+159882062+165443026+175508687+188817526
2957+202710055+214428589+222324652+226040941+225770398+221782671+214651621
2943+205802076+197756324+193118027+192963610+196578062+202425840+209173392
2930+216266109+223747135+231677272+239927614+248300450+256526856+264226166
2916+270933788+276157744+279635689+281525852+282216245+282098308+281517887
2903+280769974+280054154+279232003+277744738+275042561+270931382+265481220
2889+258607809+249986918+239802777+229367472+221085889+217778098+221028305
2876+229939396+242063617+255301445+268645114+281782745+294507511+306509153
2862+317542916+327601454+336945257+345982718+355121739+364571702+374131574
2849+383325411+391785731+399394001+406166576+412195625+417598402+422490461
2835+427028837+431362176+435570891+439667930+443622542+447429531+451114792
2822+454649065+457974212+461081075+463970166+466653369+469223915+471809241
2808+474442909+477065077+479628128+482120391+484521209+486785094+488891007
2795+490833281+492576481+494107786+495432606+496558053+497521737+498375917
2781+499161438+499872339+500487749+501034884+501530568+501947585+502272476
2768+502511672+502709255+502929157+503177808+503437832+503708205+503983434
2754+504250910+504471621+504620054+504697955+504677085+504568220+504496623
2741+504572564+504829138+505353955+506248341+507430223+508664279+509751650
2727+510606426+511271157+511927583+512775757+513906017+515313721+516902781
2714+518494993+519942179+521194465+522287585+523288068+524221298+525086552
2700+525893370+526638983+527315981+527904558+528379755+528760824+529059521
2687+529240196+529282489+529222989+529124772+529050662+529110333+529451026
2673+530152939+531147459+532251866+533305461+534247849+535108375+535936744
2660+536737088+537503869+538256851+539011749+539739431+540404588+541040144
2646+541706195+542376080+542990766+543564393+544114552+544620586+545075127
2633+545496062+545901920+546299004+546691871+547051474+547326916+547518239
2619+547668630+547806756+547910552+547956977+547980190+548011538+548053448
2606+548139185+548273563+548355978+548314195+548214232+548153837+548140719
2592+548121765+548083773+548048763+548023932+548024741+548066225+548139441
2579+548232334+548356446+548551134+548823637+549128935+549420902+549675005
2565+549898740+550118557+550338800+550525224+550654533+550757094+550860805
2552+550954209+551026786+551105283+551233569+551428725+551672393+551944470
2538+552253133+552627090+553072175+553543837+554009366+554481199+554934376
2525+555367919+555860537+556408523+556943775+557478133+558022031+558534582
2511+559020129+559536938+560124493+560759836+561380698+561955645+562497329
2498+563015501+563498493+563938637+564339895+564719900+565105356+565491877
2484+565850799+566190128+566534313+566892383+567284058+567710828+568144243
2471+568558151+568954596+569373444+569830796+570298582+570768967+571257027
2457+571750709+572223394+572677764+573126086+573576963+574027500+574456954
2444+574862385+575254614+575631169+575987663+576331379+576670879+576993256
2430+577289185+577583622+577891306+578184508+578422512+578594455+578731303
2417+578861676+578989707+579122509+579279119+579482282+579753976+580093263
2403+580449970+580768557+581045319+581307599+581579548+581881184+582206799
2390+582510308+582732297+582846869+582865354+582814840+582743414+582729997
2376+582811944+582932692+582987295+583009528+583147866+583394984+583673151
2363+583862004+584105629+584945839+586281860+587242179+586852421+585093846
2349+583643209+584082246+585846912+587149457+587391293+587299976+587438102
2336+587914790+588532329+589159495+589693554+590013802+590218669+590613027
2322+591296754+591927029+592195826+592286163+592550701+593023130+593547606
2309+594020717+594422614+594799211+595225300+595691212+596084846+596398919
2295+596700256+597007940+597321970+597625820+597874429+598060087+598235948
2282+598437877+598632266+598770263+598851742+598909794+598961458+598993147
2268+598999365+599022492+599098647+599212793+599339376+599472475+599629597
2255+599826925+600059988+600296032+600509161+600767950+601016814+601253880
2241+601476508+601697176+601945104+602231619+602548162+602870369+603180438
2228+603479390+603756748+604001311+604245022+604516587+604778229+604985907
2214+605141240+605269228+605378050+605441768+605458464+605474223+605546246
2201+605721298+606023487+606471511+607040113+607607053+608102396+608583684
2187+609054665+609458181+609824087+610212908+610619618+611000773+611338143
2174+611651065+611940477+612201310+612461972+612736519+613018136+613303033
2160+613590145+613888629+614194012+614500248+614819133+615126859+615393825
2147+615641880+615882652+616091224+616267470+616453042+616681207+616953582
2133+617241034+617517754+617815045+618147134+618465380+618739203+618990708
2120+619281866+619636188+619991702+620302963+620608901+620946697+621285856
2106+621603378+621923158+622257589+622620174+623033443+623456295+623809296
2093+624087293+624360435+624669013+624963536+625165804+625251968+625249923
2079+625199835+625129857+625029851+624873624+624697720+624563129+624480586
2066+624477520+624605466+624872176+625266321+625764220+626318085+626900954
2052+627501159+628087180+628609995+629026885+629327796+629545185+629717128
2039+629866541+630030732+630236238+630498391+630864042+631348269+631912185
2025+632533899+633198800+633854758+634470977+635082425+635696856+636260176
2012+636751089+637188508+637591427+637975094+638340575+638679947+638992231
1998+639283602+639547714+639788528+640057538+640344565+640583335+640791396
1985+641018496+641265273+641497143+641707249+641929536+642165069+642391147
1971+642594395+642785547+642998208+643219431+643412883+643589213+643736453
1958+643794676+643748081+643622477+643425149+643122917+642681027+642139386
1944+641612738+641176640+640796550+640484309+640342776+640376722+640516423
1931+640766352+641178641+641773394+642599975+643691178+644926214+646232081
1917+647556475+648689418+649584018+650401484+651207449+651931809+652536742
1904+653082258+653593488+654040916+654458316+654893477+655293117+655641816
1890+656051294+656508731+656885073+657173505+657420665+657675024+657978747
1877+658300273+658576992+658804688+659117568+659616702+660117327+660443836
1863+660711100+661045403+661425791+661792422+662122807+662408300+662613210
1850+662717688+662778850+662965317+663311333+663547036+663628046+663806932
1836+664145367+664524349+664951503+665499575+666010337+666371346+666732397
1823+667109037+667430563+667749789+668090012+668406939+668721607+669093562
1809+669465091+669734058+669912859+670118791+670449644+670816275+671037199
1796+671161951+671427255+671836776+672099270+672150337+672216696+672377224
1782+672538179+672665358+672746283+672803015+672986714+673320336+673537640
1769+673558339+673549821+673579848+673713161+673914791+674036476+674109521
1755+674153901+674187847+674402041+674776807+675014470+675034275+675026225
1742+675147569+675283523+675237907+675251536+675598277+675895909+675868352
1728+675774096+675757442+675743983+675638824+675531918+675672727+675978963
1715+676047110+675826228+675570294+675443924+675452485+675436555+675361423
1701+675482427+675710549+675684227+675411596+674865143+674092825+673349937
1688+672778653+672506363+672394985+671893849+670982852+670168069+669687846
1674+669331480+668953137+668727953+668592426+668294837+668027701+667999207
1661+667954528+667681003+667452796+667882036+668944022+669406995+669118947
1647+669137645+669531917+669670298+669619188+669792750+670492151+671655122
1634+672592398+673008436+673408927+674073147+674877707+675735465+676447942
1620+676916708+677631995+678834917+679908786+680586849+681239526+682020107
1607+682797877+683506734+684189439+684883771+685572397+686229887+686853049
1593+687416411+687905877+688344658+688742509+689089931+689369589+689542342
1580+689658490+689946198+690321645+690267000+689877241+689695417+689663601
1566+689401831+688887832+688418683+688463447+688905338+688780629+687946723
1553+686960210+686065440+685235154+684411598+683649544+683120255+682828118
1539+682261092+680947644+679318804+677904967+676579976+675088409+673501351
1526+671926517+670359350+668733831+666935049+664930931+662830045+660653984
1512+658315180+655849324+653353483+650634887+647289637+643321907+638945337
1499+634052937+628333872+621742313+614217864+605203977+594475555+582682592
1485+570620662+558837452+547804584+538023831+529578418+521632522+512620084
1472+501943496+491391234+483132246+477448830+472543099+466645958+461109867
1458+460725859+469230432+483842337+499586249+514030769+525995122+534494669
1445+539256311+541262601+542140590+543501911+546120800+549050481+551079941
1431+552372817+553419469+554300311+555140819+556089212+557289494+558997811
1418+560989662+562692399+564152193+565700876+567310848+568823924+570328056
1404+571901868+573344795+574395068+574500525+572807669+569132672+563975777
1391+557387455+549157557+540475546+534219227+533127853+538517044+549444924
1377+562791638+575342779+585379467+592859194+598869290+604112391+608397217
1364+611517327+613448442+614246145+614214542+613726567+612942834+611843623
1350+610466798+609267156+609251397+611134767+614372941+617804014+620884087
1337+623788809+626883705+630391272+634329018+638587991+643051363+647674071
1323+652394570+657115921+661764482+666233561+670415656+674260253+677697374
1310+680585188+682773132+684182709+684897997+685196609+685392659+685678152
1296+686147557+686881117+687911968+689176265+690532347+691779352+692667605
1283+692937935+692449577+691308711+689984658+689290666+689992793+692305446
1269+695778046+699697222+703520778+706937498+709736976+711789478+713051943
1256+713472793+712924423+711240170+708378210+704378025+699145316+692736689
1242+685905039+679829778+675346473+673107377+673967434+678380249+685797750
1229+694918074+704397489+713263880+720939786+727350543+732731088+737218055
1215+740923888+744053368+746757526+749134152+751282570+753284218+755197018
1202+757013817+758677966+760175922+761498570+762671294+763693839+764561776
1188+765300660+765904954+766335387+766631997+766899474+767115159+767156728
1175+766998542+766665644+766143468+765420173+764480085+763323205+762006435
1161+760606611+759187280+757770078+756297507+754613510+752549252+750002259
1148+746838961+742934224+738318800+733218254+728029883+723118786+718692554
1134+714847786+711530178+708625115+706083233+703769132+701394465+698678339
1121+695317032+690819757+684498272+675526552+662942530+645733117+623146567
1107+595273003+563966833+533395117+508691538+492893534+485262435+483111887
1094+484640339+489556504+497851824+508484456+519015678+526288878+527037345
1080+517943982+495799364+459074274+411760165+365686076+335473814+327863372
1067+335311603+341098176+331940457+306749606+275031253+249005090+237119809
1053+242795580+266489817+307014570+361349500+424301169+489208955+549669511
1040+601050760+641278647+670460122+689655466+699917379+701604528+693830150
1026+673429158+635151595+578188554+515506109+471808262+466087663+496458218
1013+544783372+593979403+637415650+675097737+707549585+734226999+754488886
999+768416340+776797397+780558344+780371706+776667662+769624160+759124755
986+744795744+725760333+700139538+664718313+615510995+550740611+475932262
972+406597052+363238407+360329255+398547104+465679889+544036098+619033300
959+683027831+733835495+772220560+800320968+820591544+835186668+845802690
945+853678863+859585588+863990949+867281000+869727903+871434218+872505063
932+873085931+873175288+872690934+871623922+869970165+867665009+864548817
918+860396622+855041036+848439212+840803513+832723155+825205861+819740217
905+817689504+818933613+821237492+821331364+816535691+805305068+787228144
891+763887888+739980905+722001942+713941432+715715553+727280777+749707864
878+779836837+809638024+832755354+847795137+855954546+858477773+855814759
864+848063125+836732497+826576041+824123176+832038107+846162165+860020621
851+870277253+877057537+881502168+884311272+885821920+886403980+886490186
837+886300312+885780350+884988312+884117734+883177988+882083632+880827768
824+879454351+877959206+876281087+874380894+872172165+869595698+866710525
810+863536068+860125056+856896082+854638798+853812175+854012868+854465534
797+854592288+854073008+852941683+851474393+849781452+847840200+845690077
783+843370013+840895937+838207539+835095777+831426743+827437164+823700494
770+820914475+819357061+818359134+816697881+813367964+808040658+801670364
756+796811569+796052241+799464190+804506897+808596823+810864329+811710118
743+811778435+811406693+810658525+809659149+808580979+807473164+806325229
729+805123116+803833690+802470409+800993920+799751856+798415068+796920093
716+795549231+794303164+793078648+791898172+790747595+789582367+788403765
702+787193134+785982077+784914128+784015270+783089152+782068140+781151904
689+780445901+779835730+779234929+778668883+778126944+777594376+777032078
675+776039517+774742339+775351829+778421850+779192252+776432129+775050193
662+776003144+777079355+777654004+778210595+778879372+779602838+780417620
648+781260513+782100084+783115900+784373041+785689130+786950360+788261934
635+789750945+791361940+792979409+794587933+796280278+798245893+800362879
621+802304897+804223064+806401809+808670762+810859558+813126212+815572263
608+818023339+820391362+822843120+825531433+828431172+831313023+834082857
594+836966923+840048614+843043504+845782587+848452330+851290055+854364592
581+857552933+860626788+863443644+866199934+869189201+872394579+875569292
567+878539563+881490413+884554471+887591271+890640423+893752951+896749715
554+899577388+902426443+905378656+908345861+911328910+914349865+917213316
540+919828201+922533381+925429372+928211984+930890416+933609139+936240550
527+938760029+941358559+943976766+946409528+948607353+950599119+952521460
513+954501471+956392124+958025436+959442894+960619536+961388660+961575979
500+961251003+960728316+959957233+958490795+956089381+952874717+949129103
486+945497721+943028330+942421311+943622146+945929688+947912169+948094547
473+946138388+942712043+938916086+936560756+937763039+943484063+952800778
459+964104062+976018454+986570589+994313364+999430691+1002962408+1005551823
446+1007023798+1007802548+1008936599+1010732101+1012911101+1015179799
434+1017449520+1020092515+1023735823+1028526471+1033744656+1038475164
422+1042473688+1046341455+1050514861+1054316781+1057463639+1060438084
411+1063367552+1066572760+1069928148+1072349580+1073491383+1073741823
399+1073664135
##END=
