##TITLE=5
##JCAMP-DX=4.24
##DATA TYPE=INFRARED SPECTRUM
##DATE=16/11/2015
##SAMPLING PROCEDURE=Instrument type and / or accessory
##ORIGIN=Default
##XUNITS=1/CM
##YUNITS=TRANSMITTANCE
##RESOLUTION=4
##FIRSTX=3996.3359
##LASTX=399.24785
##DELTAX=-1.9287336
##MAXY=0.73797512
##MINY=0.10375588
##XFACTOR=1
##YFACTOR=6.8729289e-010
##NPOINTS=1866
##FIRSTY=0.28591603
##XYDATA=(X++(Y..Y))
3996+416003184+416141378+416197011+416188946+416239116+416438624+416669439
3983+416816393+416929611+417099676+417346145+417593221+417795981+417970643
3969+418109098+418176959+418234370+418431320+418688066+418838965+418936182
3956+419017356+419042419+419048750+419206587+419441522+419497199+419592378
3942+419766866+419805242+419795745+419730269+419742020+419981551+420163931
3929+420137350+420175075+420354073+420362182+420327882+420545646+420834696
3915+420844670+420737436+420702312+420536236+420340848+420507444+420855597
3902+421105014+421339255+421202492+420716145+420626126+421092830+421104928
3888+420809720+421063127+421110868+421037023+421327764+421203879+420813492
3875+420618277+420522968+420853038+420980436+420737522+420988197+421295633
3861+421054368+420223077+419563065+420441057+422158535+422236716+421218146
3848+420536020+420394920+420409186+420312619+420539879+421120755+421227598
3834+421021239+421049641+421006670+420827238+420564335+420302689+420756471
3821+421172355+420888855+421237658+421612999+421117936+420567023+420685488
3807+421108613+420770217+420676729+421310203+421325640+421151975+421161948
3794+420939068+420727939+420653313+420626733+420626082+420495389+420342799
3780+420503368+420607176+420352902+420013075+419958656+420279317+420404590
3767+420317866+420138998+419840495+419895955+420046204+419628715+418982493
3753+419114877+419895781+419851856+419177968+419740936+420305855+419273755
3740+418202152+418103114+418630394+419133956+419234772+418688326+418172970
3726+418079004+418054765+418029659+417889600+417469683+416733918+416162322
3713+416251301+416425399+415957827+414972428+414009621+413413785+412709588
3699+411430368+409829100+408019348+406204393+404923786+404335278+403579437
3686+402224595+400930199+399914230+399164112+399114549+399692260+399431655
3672+398920462+399321993+399394190+398874411+398490789+398251691+397928558
3659+397750905+397810917+397344170+396694088+396954173+397584395+397463979
3645+396606844+395778502+395214017+394672167+394030150+393278992+392283186
3632+391522966+391814618+391873460+390659500+389150246+388111512+387599495
3618+386853106+385556802+384319774+383155421+382001257+380946089+379586563
3605+377942367+376413817+374957854+373368554+371818366+370388898+368701860
3591+366783357+365201905+363821696+362086136+360178234+358387605+356609897
3578+354765087+352877305+350887211+348733014+346706214+345046862+343292657
3564+341179393+339029207+336941505+334834832+332722956+330686682+328636076
3551+326360964+323989047+321723127+319490315+317228732+314934628+312611189
3537+310337660+308078310+305751272+303395464+301055959+298682286+296268567
3524+293895219+291533362+289170941+286808953+284402541+281995089+279682838
3510+277438079+275098553+272705258+270400769+268116616+265793524+263499636
3497+261257176+259026748+256788993+254511322+252193846+249898614+247699147
3483+245554099+243310229+240998130+238711440+236437217+234175591+231893975
3470+229577257+227359318+225295400+223271852+221203728+219103104+217049290
3456+215063207+213100929+211143790+209211389+207351966+205523655+203696189
3443+201891294+200036749+198101161+196186299+194450870+192865797+191257743
3429+189647651+188179222+186791945+185327852+183802077+182277234+180782203
3416+179308462+177837735+176442447+175174881+173981095+172761802+171444089
3402+170082698+168874723+167900348+166973141+165911837+164812841+163882663
3389+163134117+162402396+161607757+160812727+160088118+159426827+158847284
3375+158367051+157852638+157210980+156652338+156399495+156349303+156308077
3362+156230763+156155476+156120266+156132136+156154695+156205721+156424569
3348+156832767+157249377+157576770+157873322+158205973+158644362+159245368
3335+159959214+160697255+161404390+162047815+162699566+163511713+164498044
3321+165517526+166499607+167488454+168515589+169555667+170571658+171554932
3308+172570078+173781663+175220465+176665294+177980829+179268710+180637103
3294+182082366+183575706+185115184+186690196+188301177+189974014+191687221
3281+193402964+195121656+196830765+198527907+200274567+202171325+204249075
3267+206370686+208398787+210411256+212546916+214773723+216990231+219220377
3254+221528444+223875428+226215778+228598926+231113981+233734037+236340629
3240+238909170+241497290+244125390+246789414+249524119+252333341+255174044
3227+258044515+260936731+263798270+266656707+269572947+272526325+275508648
3213+278535200+281574327+284571870+287532988+290504579+293463248+296381634
3200+299333560+302378020+305453723+308463667+311392785+314325198+317315326
3186+320325530+323315290+326273373+329216171+332179545+335126961+337984879
3173+340754577+343501661+346251217+348968946+351668289+354359870+356982267
3159+359526201+362035988+364508418+366951817+369391401+371803060+374173004
3146+376526211+378846332+381071275+383198306+385298496+387405493+389492718
3132+391508873+393460418+395400863+397308223+399140523+400907000+402640739
3119+404379637+406120748+407807309+409406755+410948011+412437579+413858158
3105+415235852+416622695+418006070+419321063+420570796+421754576+422839577
3092+423863785+424880881+425899886+426897210+427840157+428683026+429429544
3078+430150002+430863609+431540054+432162037+432698684+433145876+433544762
3065+433892828+434153346+434325536+434426049+434460348+434422276+434315736
3051+434159850+433951409+433661925+433268069+432774568+432165680+431399865
3038+430472311+429426596+428277072+426983326+425517911+423903374+422127314
3024+420119355+417842725+415287582+412455097+409336076+405877141+402012945
3011+397674284+392778553+387267039+381120317+374299621+366694248+358193734
2997+348736873+338208128+326310382+312779975+297699033+281213556+263231443
2984+243763881+223430210+203693479+186420680+172814585+163138551+157172550
2970+153903573+151899744+150963116+152430212+157936316+168063096+181576918
2957+195823577+207932625+216117031+220009932+219799323+215675000+208244353
2943+199076695+190724955+185821679+185583926+189287617+195254907+202141253
2930+209447126+217177272+225357884+233888947+242571148+251137789+259218061
2916+266283730+271772110+275416699+277393546+278117105+278039660+277524239
2903+276821148+276136680+275364101+273881948+271033766+266616771+260785659
2889+253502855+244425215+233757669+222871405+214203600+210633962+213841810
2876+222926539+235329993+248953715+262850270+276594885+289869241+302395842
2862+313979864+324619334+334540167+344133314+353836644+363895541+374113945
2849+383987796+393105328+401303111+408598576+415128401+421042747+426430202
2835+431365610+435991283+440500877+444983369+449372851+453603758+457676263
2822+461558801+465191921+468588458+471791905+474814706+477699659+480544460
2808+483442942+486412972+489370990+492207465+494864205+497334923+499667229
2795+501877385+503853777+505522950+506963388+508238748+509346298+510315783
2781+511194035+511995320+512719767+513344915+513848390+514281619+514674651
2768+514963918+515150721+515332798+515573326+515879895+516239625+516611540
2754+516931724+517169868+517311878+517327575+517258413+517186736+517133401
2741+517151743+517395003+518008877+519043102+520379559+521744505+522908902
2727+523807664+524524869+525253566+526169499+527389096+528948086+530708666
2714+532470416+534114049+535560558+536779982+537843345+538862914+539887599
2700+540853658+541669686+542356105+542972884+543508620+543949481+544293384
2687+544514790+544591020+544520210+544340171+544161824+544172101+544542064
2673+545328085+546439841+547662777+548809872+549856845+550854559+551801930
2660+552674501+553494345+554324118+555173491+555972824+556706464+557422455
2646+558147770+558878418+559577802+560224197+560823069+561356767+561834615
2633+562318230+562809000+563258489+563669040+564031719+564309235+564519020
2619+564684792+564802737+564893363+564970504+565020370+565055840+565096167
2606+565135409+565165112+565174001+565156700+565114118+565039926+564956324
2592+564890154+564827800+564769348+564731276+564708771+564706300+564749445
2579+564852429+564993399+565164938+565408285+565724567+566044361+566321704
2565+566570688+566811953+567037392+567228705+567381165+567496161+567580760
2552+567643981+567703257+567797266+567925400+568059215+568232099+568492314
2538+568842548+569262898+569725136+570200425+570695315+571228406+571764879
2525+572282100+572812546+573364022+573923911+574497459+575064242+575605529
2511+576148593+576730597+577369924+578022521+578626162+579201227+579789648
2498+580379630+580935183+581424652+581851897+582258935+582664238+583053195
2484+583431397+583807301+584173059+584549527+584969227+585411041+585845180
2471+586276675+586706651+587138666+587600166+588109192+588648614+589189120
2457+589717701+590228418+590723047+591192829+591626882+592058073+592509860
2444+592962342+593415040+593851174+594227859+594564607+594914798+595284458
2430+595635429+595947158+596235948+596502667+596727195+596905542+597056615
2417+597199232+597337600+597476965+597630380+597822646+598083902+598408422
2403+598747599+599086602+599427687+599738375+600013203+600306242+600663674
2390+601060176+601401044+601578784+601546132+601355080+601130856+600954156
2376+600805598+600660509+600495040+600287770+600142204+600230663+600556614
2363+600958058+601422464+602121024+603032361+603895220+604430696+604329663
2349+603597670+602829514+602741230+603385067+604174644+604815706+605385915
2336+605891038+606318543+606843308+607543169+608208861+608708217+609147169
2322+609633039+610128449+610528506+610808233+611061857+611398042+611856854
2309+612407940+612965488+613449753+613865811+614266301+614668179+615063726
2295+615438893+615769528+616054589+616322175+616578661+616803232+616977504
2282+617097876+617183906+617268592+617350893+617399068+617406396+617389138
2268+617373788+617394428+617448414+617511592+617597015+617726754+617892917
2255+618088912+618325018+618578338+618798877+619031687+619213416+619387254
2241+619591142+619827204+620100254+620387830+620664739+620958993+621277746
2228+621590646+621880303+622131021+622353338+622579210+622805863+623001251
2214+623137711+623239568+623350401+623446621+623473636+623441505+623426111
2201+623530917+623835924+624320364+624883895+625441399+625953459+626438592
2187+626936127+627420479+627851149+628247000+628627414+628965290+629255164
2174+629558004+629891890+630194600+630460321+630738618+631033739+631307786
2160+631561757+631838536+632137386+632445906+632776497+633084323+633317350
2147+633514863+633713374+633905901+634114211+634351531+634601903+634855917
2133+635109540+635371923+635650393+635949460+636266219+636561990+636841848
2120+637154487+637490846+637817707+638129133+638448580+638804407+639174588
2106+639520139+639842838+640185137+640584066+640994226+641352049+641660569
2093+641984525+642348288+642679573+642910432+643046979+643125117+643149226
2079+643096585+642983887+642828868+642613750+642356267+642112747+641955646
2066+641954996+642087813+642372875+642819849+643337373+643884037+644462528
2052+645069638+645675360+646218077+646643544+646940053+647148580+647289160
2039+647394486+647540225+647741034+648027656+648442629+648964707+649547794
2025+650172986+650831696+651501811+652210518+652944678+653569089+654113151
2012+654654438+655143126+655576138+655971035+656332326+656669248+656998191
1998+657294180+657500105+657739246+658086228+658301823+658484290+658729892
1985+658952035+659184845+659418392+659634204+659837615+660043714+660234116
1971+660384409+660615397+660925608+661097235+661222898+661397689+661510170
1958+661518279+661451155+661293577+661023953+660632655+660067563+659348189
1944+658792680+658328621+657692546+657243923+657080449+657069305+657204247
1931+657465719+657857841+658430001+659393980+660583440+661732183+663325039
1917+664831648+665786564+666744515+667770154+668687214+669399390+670013871
1904+670603246+671110580+671535701+671967542+672444002+672741031+673054364
1890+673687621+674099126+674322743+674693791+675007601+675278136+675549798
1877+675770076+675875316+675920542+676450641+677255308+677492411+677565259
1863+677935483+678371963+678739022+679079413+679420367+679712280+679873109
1850+679863136+679759848+680310023+680937036+680547863+680348919+680816274
1836+681203842+681367707+681873827+682716869+682975262+683267261+683871162
1823+684089099+684334224+684814023+685191836+685375820+685713609+686205940
1809+686466719+686551665+686651224+686985934+687533335+687763370+687533898
1796+687517551+688310033+688968917+688624320+688406340+688802494+689062492
1782+689164956+689291052+689065657+688826777+689359261+690168134+690070006
1769+689801509+689592548+689496761+690007304+690219604+690090039+690186692
1755+689972008+690079372+690844276+691152405+690957277+690772468+690803559
1742+691121532+691060695+690314046+690922630+692225265+691808471+691162118
1728+691152318+691245286+691181978+690664410+690583931+691519550+691854564
1715+691153056+690462994+690170822+690231745+690394049+689880514+689439610
1701+690385073+690418071+689935193+689837456+688561835+687409276+686581238
1688+685920749+686658985+686950854+685027884+683204083+682612150+682687773
1674+681925037+680981786+681179516+680868481+679833173+679835991+680316094
1661+679806115+678662618+678326824+680497737+682515713+680783102+679875797
1647+681426896+682040944+681342687+680963921+681296810+682996466+685044015
1634+685240184+685016957+685906353+686965814+687864966+689029667+689446071
1620+689500837+691097336+692947631+693275143+693626375+694689739+695744256
1607+696539600+697273674+698045602+698755393+699404000+700072901+700719860
1593+701247835+701707644+702153318+702564129+702921040+703082043+702839390
1580+702674875+703640761+704312350+703124234+702572324+703249160+702998571
1566+701992836+700773152+700281992+702076394+703016914+701053010+699547875
1553+698799102+698057483+697055260+695913108+695052721+694773037+695333966
1539+694481862+691572018+689922011+689274358+687459880+685468181+683970548
1526+682211226+680610521+679317600+676997998+674510153+672301558+669657176
1512+666739181+664096360+662626089+660346337+655268616+649986660+645715556
1499+641145083+635097746+627300930+618918252+609806140+598443762+585271893
1485+571830269+559010585+547051027+536311977+527175452+518837003+509450323
1472+497684376+485648979+476808356+471205565+465807139+458899199+453112684
1458+453396835+462190323+476695918+493165156+508915064+522014259+531037653
1445+535885556+537831031+538555131+540297672+543553543+546169827+547838783
1431+549449894+550658303+551388431+552205759+553078070+554501555+556824538
1418+558636458+559882462+561503460+563376954+565137230+566837840+568738436
1404+570445550+571786950+573048044+573194954+571344702+567486187+561673005
1391+554508926+546097065+536868700+529789610+528432470+534173368+545751514
1377+559918886+573428979+584064698+591715861+597988809+603442305+607972018
1364+611611599+613728657+614259537+614053741+613518872+612610397+611342322
1350+609832114+608502118+608406505+610317247+613763477+617603259+620937225
1337+623872132+627083427+630869701+635125107+639693760+644511136+649505039
1323+654566803+659666986+664740284+669571493+674084253+678250984+681903183
1310+684951437+687269955+688737234+689489693+689808273+689981851+690217089
1296+690642686+691360499+692407038+693731094+695194775+696534484+697458873
1283+697715792+697167134+695931059+694493266+693694887+694365782+696747391
1269+700384370+704555827+708659727+712322506+715343746+717584906+718965896
1256+719413520+718781001+716915268+713777471+709382873+703648653+696671854
1242+689244308+682577851+677553681+674972608+675851813+680626175+688629003
1229+698494658+708817694+718503571+726874542+733850907+739699906+744571702
1215+748583284+751946953+754847084+757416970+759731975+761838756+763837045
1202+765773327+767550991+769105949+770471242+771718243+772822237+773734484
1188+774458802+775023807+775442943+775731213+775964934+776166740+776230569
1175+776095453+775768678+775232638+774465219+773447515+772190021+770735923
1161+769153994+767553853+765987535+764361551+762503667+760254832+757483834
1148+754027804+749745383+744681321+739095441+733385894+727968519+723118187
1134+718933938+715347389+712217484+709476232+707004690+704534016+701747884
1121+698238476+693435366+686643722+677028525+663572072+645195864+621096407
1107+591350623+557982431+525541966+499474009+482892160+475016425+473025290
1094+474927273+480339098+489236742+500512179+511603285+519223574+519936270
1080+510232182+486838612+448341401+399071925+351436693+320450608+312750489
1067+320446011+326430690+317157185+291628086+259662889+233645773+221852249
1053+227487257+251133734+291890902+346940064+411192008+477927960+540542667
1040+594130468+636363350+667225051+687737482+698879842+700831214+692509936
1026+670614520+629770217+569376809+503294929+457328241+450928719+481981993
1013+531933119+583283099+629063244+669098415+703766381+732373654+754229437
999+769433158+778739488+783047319+783116264+779481236+772321841+761435056
986+746358212+726169477+698919431+661235473+609014352+540702802+462522302
972+390720771+345942654+342341362+380569534+448800214+529526274+607795362
959+675291708+729322884+770428660+800634123+822412635+838122043+849649542
945+858251935+864682591+869485875+873086387+875737793+877612848+878882571
932+879603940+879726741+879248199+878140129+876307135+873700044+870261272
918+865798986+860026478+852842539+844570910+835830887+827556136+821367093
905+818953657+820304640+822953184+823251948+818174357+806049590+786591286
891+761595235+736081183+716997049+708618013+710782986+723221952+746936573
878+778722750+810204093+834643725+850546613+859138426+861715684+858746868
864+850286702+837901591+826701820+823765006+832039236+847160916+862225793
851+873537784+880978772+885648761+888484803+890069767+890758093+890828687
837+890504426+889859028+888942011+887860045+886651202+885340285+883954612
824+882470421+880848946+878985165+876790446+874279793+871467687+868328719
810+864841035+861163426+857824821+855492298+854460631+854447536+854797467
797+854825738+854139667+852791285+851035822+849048893+846938643+844702557
783+842242203+839500344+836442290+832991290+829040674+824699541+820527607
770+817346144+815552089+814447662+812636956+809045290+803347190+796465050
756+791064239+790020866+793591457+799036584+803441199+805854028+806753180
743+806815968+806317567+805326227+804136463+802981563+801785295+800478280
729+799112294+797685688+796161344+794532931+793034864+791632627+790262912
716+788857986+787320287+785714943+784212800+782839962+781540493+780311270
702+779122027+777941542+776812312+775764688+774749240+773729281+772719036
689+771740097+770844067+770087836+769470362+768938312+768433059+767933704
675+767411366+766786174+766222990+766287773+766905940+767040015+766763453
662+766696415+766979222+767496702+768146090+768800768+769411564+770123393
648+771061397+772137119+773268257+774480049+775705890+776841624+778038153
635+779523644+781238954+782996152+784745631+786612447+788603799+790587432
621+792447484+794373966+796602594+798973796+801336586+803717414+806103966
608+808495461+810945929+813537496+816303464+819146964+821977108+824902648
594+828019155+831149537+834068833+837004780+840071854+843066079+846103753
581+849263101+852405277+855446507+858290527+861248416+864524320+867887556
567+871143167+874392881+877664796+880822322+884001183+887207621+890163255
554+892921332+895742457+898677276+901813989+905043583+908084813+911088925
540+914160335+917148143+920030755+922834448+925493487+928086268+930850762
527+933581781+935912223+938336153+941122848+943757517+946012596+948148256
513+950385296+952390263+953914174+954997007+955747428+956574253+957101880
500+956995036+956418063+955119634+953161671+950579297+947211292+943416432
486+939910797+937461890+936616246+937548440+939668230+941495067+941772409
473+939776895+935828881+931902028+929678343+930754585+936328150+946015891
459+958774955+971742764+982157424+989952418+995145266+998731988+1001650417
446+1003817731+1005571633+1006792964+1007728627+1009548266+1011823378
434+1013922094+1016862377+1021076113+1025874280+1030503336+1034822614
422+1039592249+1045534390+1049496626+1050995647+1054180405+1058434033
411+1061377959+1063042275+1064685171+1066734454+1068663104+1070815762
399+1073741823
##END=
