##TITLE=5
##JCAMP-DX=4.24
##DATA TYPE=INFRARED SPECTRUM
##DATE=16/11/2015
##SAMPLING PROCEDURE=Instrument type and / or accessory
##ORIGIN=Default
##XUNITS=1/CM
##YUNITS=TRANSMITTANCE
##RESOLUTION=4
##FIRSTX=3996.3359
##LASTX=399.24785
##DELTAX=-1.9287336
##MAXY=0.76542026
##MINY=0.11280075
##XFACTOR=1
##YFACTOR=7.1285317e-010
##NPOINTS=1866
##FIRSTY=0.27925083
##XYDATA=(X++(Y..Y))
3996+391736817+391795598+391858643+391910526+392011364+392194061+392403348
3983+392573628+392708665+392843702+392979115+393142706+393366416+393590209
3969+393737454+393799538+393844731+393952008+394113551+394269993+394392153
3956+394479112+394539272+394617661+394760014+394895636+394928497+394982511
3942+395192676+395389211+395405014+395328214+395326876+395471362+395609994
3929+395576423+395505853+395588631+395737882+395831195+395959292+396180619
3915+396336769+396297512+396145794+395993031+395890687+395933079+396131329
3902+396385808+396664996+396815418+396656008+396441621+396518462+396666543
3888+396605588+396577703+396641124+396613657+396653123+396732138+396662404
3875+396558304+396515494+396603791+396775910+396800033+396781972+396853421
3861+396798361+396471555+396059880+396113686+396905847+397558665+397372916
3848+396822316+396465367+396376945+396412439+396573480+396919100+397184700
3834+397151505+397020231+396929719+396807642+396626659+396452114+396534056
3821+396898614+397132692+397286208+397494867+397387423+396977003+396745935
3807+396861657+396964168+396987747+397237126+397449757+397362589+397219191
3794+397089004+396930053+396822567+396776119+396745726+396691000+396627537
3780+396682555+396828504+396818888+396595429+396398978+396445216+396611190
3767+396656677+396550068+396368208+396285931+396375524+396356418+396084964
3753+395932243+396193579+396381962+396099346+396004904+396367162+396296550
3740+395630730+395164038+395294727+395657278+395744613+395439212+395047187
3726+394897016+394922727+394890494+394746636+394470792+394005688+393474947
3713+393228411+393305587+393199355+392583704+391677158+390866644+390157429
3699+389205857+387895038+386388352+384881498+383624777+382823795+382260946
3686+381481620+380395429+379305393+378596261+378469836+378792712+378941379
3672+378630041+378454242+378567748+378508926+378292282+378148298+378009456
3659+377851467+377869361+377925257+377749375+377656981+377898166+377980819
3645+377551251+376902237+376343945+375866466+375390493+374927772+374420150
3632+373878079+373604493+373513438+372960204+371892242+370818218+370081367
3618+369503384+368664985+367578042+366483992+365458715+364509108+363498296
3605+362261350+360921683+359654635+358387880+357026390+355640443+354240992
3591+352737734+351223063+349877042+348560725+347043587+345416726+343842731
3578+342299150+340715497+339054731+337256127+335403445+333749724+332303575
3564+330761791+329006855+327179299+325349424+323493418+321665319+319880595
3551+317995367+315945272+313890056+311968727+310129487+308224755+306187286
3537+304120260+302114230+300100925+298020416+295923435+293822942+291709844
3524+289663219+287681542+285644177+283515694+281355668+279224718+277177320
3510+275196960+273174039+271039369+268870772+266820887+264853486+262815913
3497+260762285+258796746+256834488+254776617+252688101+250660666+248647801
3483+246548980+244399823+242324770+240334689+238346783+236311007+234247262
3470+232180695+230139715+228198590+226345240+224454974+222496374+220574711
3456+218724809+216900097+215087696+213267331+211441971+209681746+208041131
3443+206453381+204777543+202969825+201181108+199582321+198092316+196578293
3429+195118766+193771218+192421957+191020959+189633716+188263363+186902521
3416+185560221+184226553+182946733+181758346+180624245+179482576+178249748
3402+176932113+175761870+174859673+173991277+172937654+171859501+171037908
3389+170425790+169772669+169018688+168250326+167500495+166791363+166214467
3375+165762438+165257492+164635078+164111172+163898688+163930764+163999088
3362+164004470+163995325+164024266+164072950+164088502+164090718+164249136
3348+164621794+165019923+165341012+165654607+165992513+166423000+167061928
3335+167819744+168522260+169176813+169838525+170523880+171337822+172325159
3321+173337685+174305509+175302096+176346375+177398848+178423519+179400028
3308+180377541+181517202+182911804+184397523+185771472+187045021+188319113
3294+189638670+191061700+192625223+194235862+195818386+197426538+199074888
3281+200701936+202303838+203945749+205675810+207459364+209274733+211188432
3267+213205373+215250806+217288589+219319390+221359785+223453673+225658809
3254+227945636+230194064+232371419+234590728+236978374+239504588+242034942
3240+244532456+247018474+249467575+251926606+254527635+257257868+259968013
3227+262603575+265243881+267959837+270735327+273530968+276310408+279057887
3213+281808334+284592102+287409231+290223183+293000617+295760889+298541772
3200+301362057+304189388+306983691+309747621+312486675+315200019+317906966
3186+320633541+323374665+326088071+328751811+331397029+334036395+336636295
3173+339178480+341687930+344188496+346660989+349085989+351468596+353811132
3159+356107387+358355522+360570169+362784566+365027767+367255835+369389167
3146+371445157+373466697+375422266+377314748+379195482+381063131+382898713
3132+384693826+386436053+388138397+389801232+391392494+392917199+394423968
3119+395938305+397437090+398873080+400225163+401533516+402836017+404117237
3105+405348790+406526455+407656668+408728016+409761613+410809257+411844652
3092+412796850+413659164+414467128+415216980+415901822+416578428+417279742
3078+417960696+418578438+419110433+419544725+419893689+420199006+420512267
3065+420817082+421043468+421166464+421203882+421178045+421117132+421029630
3051+420880169+420628365+420267653+419819607+419293966+418670706+417948488
3038+417149764+416248904+415191854+413982249+412630793+411117961+409449398
3024+407621842+405597961+403334901+400786800+397915572+394691199+391086550
3011+387067215+382577969+377567597+371984343+365725193+358664016+350751019
2997+341988732+332246445+321222687+308764443+294977173+279892607+263367829
2984+245409841+226573736+208159089+191875183+178891048+169529153+163753387
2970+160729563+158990796+158238404+159795196+165286380+175232979+188346371
2957+202002033+213488177+221219209+224916712+224749526+220875952+213830139
2943+205074457+197120343+192534418+192424382+196085325+201911353+208564764
2930+215569899+222983259+230822132+238960176+247229976+255363965+262974843
2916+269587513+274713084+278127198+279966481+280581212+280430560+279910480
2903+279246061+278575517+277776102+276283672+273564748+269512866+264198411
2889+257459253+248969005+238958859+228719089+220585016+217338109+220541808
2876+229306332+241237681+254310175+267518710+280463107+292933391+304707441
2862+315563552+325467006+334671382+343581395+352584219+361885713+371312043
2849+380405672+388769600+396251566+402899981+408838847+414155623+418948890
2835+423408161+427677669+431789146+435765754+439639474+443409596+447033603
2822+450457981+453664167+456663450+459461265+462077971+464587651+467098669
2808+469661068+472225850+474726290+477126812+479415625+481588926+483634463
2795+485533509+487238904+488715740+489986759+491086035+492046888+492891307
2781+493628826+494300290+494940733+495526618+496006521+496378019+496685845
2768+496932674+497122562+497318094+497540424+497764426+498008496+498293077
2754+498575818+498798149+498943094+499015755+499005428+498933938+498880759
2741+498922399+499155181+499712972+500635863+501788276+502970581+504035491
2727+504902738+505588750+506238851+507038829+508095755+509422001+510936798
2714+512478100+513900796+515143888+516226232+517211124+518138363+518988092
2700+519745219+520449919+521117997+521707728+522199630+522587307+522852281
2687+523014367+523082721+523024150+522888277+522809219+522901070+523261698
2673+523945244+524884106+525925437+526940262+527871808+528735543+529573023
2660+530386672+531144301+531842772+532536519+533251880+533945418+534588537
2646+535209247+535838109+536445733+536981951+537479790+538000581+538509415
2633+538947554+539333684+539703259+540043401+540330073+540589026+540840161
2619+541032139+541141381+541205680+541260573+541322322+541376462+541426297
2606+541513046+541622414+541691061+541689389+541645909+541617731+541620783
2592+541616895+541574921+541516224+541491683+541512001+541542562+541575673
2579+541658493+541823840+542047884+542294630+542539661+542780554+543047367
2565+543329983+543572464+543795505+544043045+544250575+544366172+544429760
2552+544463917+544498658+544600877+544763715+544948043+545162931+545416909
2538+545728331+546116426+546546872+546993121+547469011+547966599+548453652
2525+548933346+549431854+549937135+550424898+550899869+551380399+551892495
2511+552439122+552994697+553564402+554151959+554725093+555262607+555763665
2498+556254898+556744376+557191252+557603386+558018530+558402069+558727579
2484+559055765+559421075+559776435+560110098+560465918+560857107+561279442
2471+561716117+562130718+562542978+562999052+563477618+563965841+564476933
2457+564958969+565378545+565784993+566215983+566673938+567122904+567508240
2444+567845832+568189069+568550115+568919313+569285376+569627609+569934599
2430+570232014+570535576+570807698+571033707+571250435+571479496+571686818
2417+571841379+571972946+572114295+572279015+572490894+572765650+573084262
2403+573395390+573687496+573987839+574293407+574596550+574914117+575258774
2390+575605230+575894786+576053109+576040818+575911592+575789808+575754147
2376+575761379+575716019+575591308+575517769+575692105+576140612+576708728
2363+577292690+577898935+578473908+578904646+579183959+579352735+579236218
2349+578747159+578291420+578412200+579091440+579812487+580366640+580866779
2336+581312902+581643304+581976506+582432789+582924482+583355973+583768944
2322+584219541+584694009+585106436+585386210+585606742+585907628+586322814
2309+586792851+587265271+587706420+588104842+588489049+588888307+589294086
2295+589670601+589993101+590271829+590535464+590792244+591020427+591204127
2282+591362283+591512371+591638503+591733154+591810915+591866017+591884161
2268+591891352+591933327+592021749+592147672+592305493+592484302+592683262
2255+592912867+593171569+593426174+593644198+593902525+594145424+594378958
2241+594600536+594805767+595027804+595288890+595587351+595924023+596268346
2228+596573204+596843738+597115985+597398685+597681426+597945438+598166096
2214+598331150+598454231+598561842+598644202+598677731+598721043+598853948
2201+599070718+599371144+599795193+600307915+600833514+601349330+601844703
2187+602296345+602704466+603079852+603441608+603815573+604183392+604514295
2174+604822371+605127647+605418081+605681967+605946731+606247868+606568947
2160+606885426+607206421+607526747+607825459+608100131+608359419+608614108
2147+608865954+609095684+609295982+609492851+609720198+609982245+610254660
2133+610527201+610812534+611116388+611434791+611751814+612044631+612336152
2120+612663084+613005233+613334798+613644505+613940750+614253844+614575967
2106+614870582+615165113+615511527+615909112+616309206+616667451+616992669
2093+617338915+617697327+617998965+618218662+618372094+618460767+618477740
2079+618436728+618373808+618291615+618161470+618001056+617863845+617793525
2066+617828058+617993280+618287560+618694343+619188503+619725849+620271181
2052+620821990+621380491+621915538+622365466+622681193+622873548+623011636
2039+623152694+623316285+623531173+623840880+624254102+624746589+625303794
2025+625912756+626555248+627196861+627808039+628410313+628997869+629521545
2012+629989617+630434278+630856320+631242743+631587652+631909943+632232067
1998+632549968+632841530+633103619+633363199+633611743+633821698+634029061
1985+634271709+634521089+634744924+634962697+635200203+635440385+635667356
1971+635883833+636102317+636333343+636541166+636704046+636869310+637031062
1958+637111875+637096699+637010869+636846525+636573567+636170253+635677097
1944+635196399+634779415+634398970+634111003+634017857+634094489+634274343
1931+634549225+634951869+635532946+636353494+637414391+638591553+639823776
1917+641075982+642176345+643079754+643901933+644675991+645363593+645961769
1904+646494391+646992481+647483087+647942338+648342599+648698252+649055703
1890+649473774+649906644+650269990+650590441+650906001+651222272+651529011
1877+651799837+652034793+652260217+652581713+653065881+653534790+653857039
1863+654154162+654508812+654878177+655227977+655562100+655864992+656091210
1850+656227000+656327546+656535912+656875219+657105576+657197928+657388777
1836+657732724+658109866+658526056+659052658+659549075+659934621+660349180
1823+660766456+661100788+661417560+661749341+662055787+662359223+662712326
1809+663065220+663341565+663552732+663790865+664144010+664524037+664746199
1796+664867231+665129905+665532716+665796059+665863661+665944433+666126544
1782+666330270+666485458+666566439+666638096+666855284+667197600+667389370
1769+667385900+667386652+667449655+667589584+667765968+667877718+667961834
1755+668022789+668079939+668305196+668664570+668890913+668927662+668941918
1742+669063535+669196147+669179299+669239250+669608992+669904861+669855821
1728+669715140+669667856+669679144+669650841+669627136+669798295+670087642
1715+670155369+669962095+669742482+669673919+669761672+669812049+669779231
1701+669925388+670155913+670112851+669809875+669252252+668517618+667848161
1688+667379420+667220218+667168168+666665020+665757639+664965519+664511244
1674+664183141+663831962+663611638+663456200+663153474+662910533+662910533
1661+662897448+662687158+662552790+663044985+664075697+664485741+664212574
1647+664217005+664492681+664496862+664382269+664570233+665314400+666462841
1634+667301157+667617051+667962879+668604368+669395149+670227152+670907144
1620+671368778+672079206+673231619+674243393+674907958+675592758+676412052
1607+677207767+677925135+678625445+679330564+680006334+680642638+681252185
1593+681816163+682323450+682783830+683197637+683565957+683873198+684081857
1580+684256234+684607121+685026488+685029039+684727191+684601561+684557831
1566+684296369+683873908+683563533+683721313+684090553+683766757+682813639
1553+681844132+681046327+680323190+679595746+678930428+678481922+678216865
1539+677632778+676346081+674806952+673450019+672110353+670620724+669116128
1526+667668683+666215844+664673539+662949456+661014832+658930080+656729688
1512+654415498+652064685+649694933+647004647+643642520+639726825+635443562
1499+630624709+624966704+618486854+611173831+602455672+592017401+580432863
1485+568537071+556947683+546133901+536574666+528360951+520642901+511833644
1472+501350472+490979092+482851960+477245544+472426816+466691886+461358722
1458+461096215+469532302+483932004+499453391+513716635+525518654+533878652
1445+538566482+540562604+541447116+542802628+545406332+548325847+550352614
1431+551632120+552648283+553505412+554346571+555312984+556546879+558284424
1418+560251949+561895303+563307087+564807627+566364398+567845749+569308621
1404+570778015+572101168+573083133+573173018+571527073+567952984+562908414
1391+556460255+548433250+539971033+533860090+532808767+538150125+548955002
1377+562131471+574508672+584374729+591664967+597469632+602537279+606725012
1364+609825970+611759131+612528005+612461657+611973141+611219150+610179073
1350+608879123+607734236+607744688+609633240+612836918+616196829+619213921
1337+622087825+625167378+628646481+632517525+636695643+641096551+645648884
1323+650278477+654917518+659505554+663916036+668004937+671723553+675050186
1310+677860083+679978365+681328567+682024572+682345650+682569360+682867528
1296+683347975+684089800+685113364+686366908+687722419+688962000+689814405
1283+690044762+689555869+688466042+687235116+686635142+687359701+689605954
1269+692988692+696852170+700643488+704008374+706754097+708796290+710061708
1256+710456032+709883359+708234069+705444030+701493426+696322975+690042170
1242+683386730+677479304+673092360+670869142+671701646+676043063+683309011
1229+692198663+701427789+710088130+717610815+723890158+729138454+733488148
1215+737084562+740174106+742884628+745249488+747342853+749269408+751117700
1202+752911977+754601151+756130872+757461174+758633362+759679961+760591941
1188+761338615+761907861+762314895+762599183+762833470+763027037+763095601
1175+762983725+762674687+762174256+761513704+760650220+759535559+758243218
1161+756867430+755455855+754030818+752562135+750953983+749036124+746599356
1148+743498858+739682371+735179580+730187143+725083500+720247087+715919217
1134+712202900+709018370+706190119+703653098+701344050+699025177+696381547
1121+693059262+688601497+682382022+673557254+661157687+644261390+622176749
1107+594909281+564207402+534211980+509988696+494490262+487007042+484905399
1094+486413757+491292938+499517523+509963738+520221945+527261843+527877745
1080+518769859+496792537+460421908+413503474+367736951+337709776+330119175
1067+337442858+343128185+334066580+309166398+277778443+251998222+240265059
1053+246084900+269963442+310591037+364796448+427363029+491669955+551386880
1040+601997717+641487238+669954695+688527122+698402502+699985570+692307027
1026+672193172+634487643+578348904+516527828+473465932+467937737+498016732
1013+545776074+594369092+637231109+674366807+706318969+732532187+752362966
999+765930707+774017789+777537612+777209342+773454396+766382976+755896836
986+741660014+722764544+697388889+662477872+614118305+550452658+476779771
972+408353341+365543834+362786614+400758413+467316567+544891854+619016508
959+682167970+732292716+770180900+797890812+817851946+832249056+842732688
945+850467921+856254023+860604553+863848032+866223260+867907334+869026677
932+869622261+869659302+869152349+868128075+866530124+864277307+861233499
918+857164080+851900734+845471638+838095528+830262132+822918214+817534295
905+815503641+816765714+819073048+819171378+814529787+803650994+786005389
891+763155886+739811221+722335436+714622528+716592060+728099297+750066167
878+779467177+808582894+831151035+845720223+853536980+855930436+853353447
864+845850327+834781479+824756973+822285839+830043063+843947351+857669026
851+867876313+874537605+878744570+881349821+882834642+883537670+883703477
837+883499542+883010232+882286802+881428586+880456236+879346090+878147815
824+876886913+875496242+873892104+872022323+869829791+867327386+864558585
810+861466449+858150477+855159681+853154863+852324240+852351498+852685871
797+852750839+852205424+851113339+849732785+848156574+846343651+844270186
783+841960176+839470396+836783538+833738141+830178267+826299990+822670716
770+819956264+818425874+817448675+815810505+812499299+807275001+801141481
756+796503987+795837248+799239593+804223584+808287903+810593147+811456630
743+811479039+811073427+810330096+809300137+808189740+807204347+806259339
729+805110313+803762954+802350292+800876006+799578732+798396260+797200912
716+795937501+794602600+793276396+792020009+790795061+789592605+788456455
702+787360524+786257904+785208963+784328339+783573135+782763332+781849094
689+780959356+780190607+779544854+779039490+778640734+778250256+777887788
675+777546977+776994538+776359488+776472116+777368209+777740460+777575405
662+777549569+777803589+778243148+778880456+779692517+780545883+781380604
648+782248519+783176553+784195559+785341241+786535754+787678342+788890078
635+790362023+792035812+793701239+795273772+796933848+798880804+800967062
621+802894537+804770672+806865291+809133661+811441162+813822745+816254079
608+818581145+820832457+823223238+825826148+828548877+831338749+834203538
594+837040735+839762628+842409770+845079069+847885329+850846693+853904966
581+856995430+860006879+862908710+865909289+869105943+872297999+875269647
567+878028163+880977654+884189861+887166024+889889506+892632804+895409883
554+898348503+901406442+904296316+907133764+910107586+913032411+915842349
540+918766923+921768924+924493994+926940712+929352982+931778546+934236302
527+936758190+939303740+941794691+944306043+946905191+949328999+951356392
513+953172744+954881650+956271569+957421181+958603318+959608027+959955945
500+959547406+958741365+957728379+956135696+953641986+950618413+947506711
486+944461231+942105234+941296350+942145871+944049515+945849227+946182931
473+944535146+941385232+937824605+935614348+936689626+942134081+951325706
459+962638289+974437088+984598805+991936787+996928303+1000485335+1003248366
446+1005237130+1006432144+1007383339+1008827189+1010853077+1012927964
434+1014759365+1016767193+1020021207+1024902102+1030255835+1035061728
422+1039468531+1043916221+1048259393+1051881727+1054835566+1057698767
411+1060302931+1062497804+1065023203+1067842089+1070118653+1071912846
399+1073741823
##END=
