##TITLE=5
##JCAMP-DX=4.24
##DATA TYPE=INFRARED SPECTRUM
##DATE=16/11/2015
##SAMPLING PROCEDURE=Instrument type and / or accessory
##ORIGIN=Default
##XUNITS=1/CM
##YUNITS=TRANSMITTANCE
##RESOLUTION=4
##FIRSTX=3996.3359
##LASTX=399.24785
##DELTAX=-1.9287336
##MAXY=0.70674926
##MINY=0.068436846
##XFACTOR=1
##YFACTOR=6.5821154e-010
##NPOINTS=1866
##FIRSTY=0.30491164
##XYDATA=(X++(Y..Y))
3996+463242627+463378052+463540826+463699479+463824762+463985317+464170186
3983+464304344+464450138+464682413+464936330+465170326+465446701+465777093
3969+466079367+466328756+466583715+466854386+467078148+467229330+467376890
3956+467564204+467720096+467810561+467936840+468118087+468241378+468377528
3942+468590062+468694155+468662053+468638554+468732868+469005304+469229519
3929+469189358+469179306+469434582+469633759+469607950+469683247+469982126
3915+470192939+470129776+469931052+469714580+469549950+469644625+470059143
3902+470542754+470851458+470763800+470250668+469840135+469988148+470213495
3888+470077526+470086491+470335201+470417652+470497794+470475426+470145080
3875+469894785+469939565+470234685+470472529+470253837+470011647+470145850
3861+470162557+469568921+468651323+468592190+469989868+471083733+470578931
3848+469509924+468922808+468837957+468892789+469089883+469610758+470023464
3834+469917560+469629593+469417195+469203666+468927970+468590696+468607358
3821+469121532+469433360+469606819+469920684+469711138+468930143+468467767
3807+468704252+468935486+468928468+469271763+469613972+469466186+469182385
3794+468899173+468588160+468389482+468320342+468332794+468342257+468330439
3780+468485335+468675908+468460024+467909990+467568189+467697683+467915197
3767+467829849+467509056+467101466+466895181+467024222+466964229+466445980
3753+466166753+466692789+467180113+466887891+466803448+467286652+466951597
3740+465756355+465111691+465508777+466100692+466078416+465432710+464690337
3726+464322093+464265133+464201971+463962180+463388828+462459322+461552907
3713+461223466+461309856+460942926+459825426+458388175+457080102+455811601
3699+454139856+451942710+449417344+446849463+444661644+443162181+441994876
3686+440541552+438821315+437319724+436383290+436133221+436506355+436706211
3672+436218117+435841769+435778652+435369431+434717387+434221369+433776561
3659+433273842+432878523+432394594+431612150+431088468+431103319+430810915
3645+429643338+428099142+426773500+425724913+424701184+423514455+422147113
3632+420875624+420188172+419751921+418524623+416571659+414750136+413435904
3618+412207474+410506073+408450827+406425011+404530409+402685025+400627515
3605+398209729+395671958+393249056+390901361+388547915+386136695+383551337
3591+380811536+378173905+375703213+373100672+370236561+367271889+364300515
3578+361325837+358332911+355287373+352192210+349149162+346250391+343375323
3564+340313326+337069245+333771284+330440541+327085257+323756099+320443853
3551+317105118+313716329+310296955+306904227+303576473+300256620+296857847
3537+293398946+289941154+286512090+283113453+279741078+276378301+273023946
3524+269712876+266446066+263177195+259885029+256630624+253454890+250322735
3510+247182272+244005428+240824283+237676598+234627143+231684159+228744276
3497+225823863+223010848+220235482+217390411+214511494+211664997+208865475
3483+206077499+203270800+200524186+197881823+195282021+192652743+189949142
3470+187227159+184643928+182251974+179929204+177583705+175242235+172970323
3456+170737803+168474584+166213811+164019267+161922637+159901168+157908178
3443+155908306+153867503+151759361+149687825+147875969+146263392+144595688
3429+142906931+141356984+139882232+138364930+136839082+135356632+133889623
3416+132383935+130891547+129494786+128170174+126920690+125706353+124354145
3402+122888369+121665723+120834605+120070453+119056017+117937668+117036427
3389+116342025+115640435+114871529+114097132+113401316+112788832+112191495
3375+111583177+110958458+110330874+109808528+109500821+109367455+109280443
3362+109186752+109120669+109077802+109026231+108935562+108803125+108783452
3348+108992555+109294547+109536194+109723994+109922164+110222740+110704789
3335+111280903+111820500+112335670+112875132+113451336+114098083+114825210
3321+115569417+116305259+117072785+117897949+118759233+119572851+120280700
3308+120978430+121879672+123091904+124436958+125644503+126681375+127702614
3294+128820396+130087222+131521485+133026777+134462997+135819620+137189690
3281+138643614+140153830+141648686+143114541+144581573+146166792+147985519
3267+149920655+151809347+153678661+155580620+157489970+159402411+161390895
3254+163537626+165775058+167939447+170083936+172413181+174891117+177351192
3240+179802924+182286872+184740664+187208776+189880694+192769062+195684676
3227+198540931+201372554+204215724+207120517+210126822+213194456+216283642
3213+219428678+222619445+225806612+229004985+232239965+235498762+238776371
3200+242098466+245480101+248898796+252315747+255719229+259125653+262549895
3186+266011377+269519405+273031009+276503109+279974145+283475743+286954001
3173+290377201+293815229+297343292+300921614+304448182+307879532+311254081
3159+314608663+317920231+321193244+324499130+327853145+331190838+334468742
3146+337681694+340839250+343957867+347053595+350145747+353216913+356222086
3132+359177567+362117676+365004765+367803562+370561723+373316397+376030571
3119+378678005+381284236+383867602+386405011+388870157+391268292+393613497
3105+395913605+398176858+400396734+402568797+404715641+406820829+408823508
3092+410712404+412530214+414309584+416050240+417728686+419318523+420818664
3078+422234499+423584228+424899184+426148939+427292926+428366597+429389240
3065+430307019+431083351+431745176+432345966+432886265+433316947+433628729
3051+433821295+433871373+433777467+433546595+433186230+432715930+432115457
3038+431321105+430327575+429160723+427779843+426121501+424193032+422054837
3024+419692336+416996726+413902627+410431275+406581174+402277299+397414381
3011+391927898+385809337+378995764+371338010+362727001+353125610+342469271
2997+330631183+317449931+302619460+285839671+267247572+247147136+225603632
2984+202852366+179857314+158388507+140363070+126725158+117264626+111302716
2970+107750033+105371922+103973938+104679377+108898559+117234641+128899508
2957+141758009+153169332+161265555+165369823+165393129+161526593+154480778
2943+145781082+137800939+132914431+132204556+135114725+140232036+146342865
2930+152966612+160124579+167841036+176019676+184559938+193249119+201636003
2916+209115951+215133338+219388494+221883500+222931114+223084786+222810132
2903+222328694+221777188+221030196+219487743+216543242+211966094+205775428
2889+197965270+188420589+177450294+166343384+157406727+153355548+155748034
2876+163798640+175268734+188277262+201913284+215777980+229540802+242849284
2862+255450347+267259616+278448489+289470718+300837963+312798369+325149137
2849+337372063+348965108+359644086+369337685+378100397+386048268+393360032
2835+400235183+406841837+413332988+419784113+426139386+432319116+438311307
2822+444103324+449634542+454871680+459835704+464578727+469187049+473773003
2808+478384313+482979323+487539832+492042249+496389364+500489941+504324285
2795+507894389+511149359+514035226+516563806+518782505+520740269+522493920
2781+524091001+525549035+526875401+528043747+529016494+529812204+530464928
2768+531008804+531500113+531971363+532451941+532999802+533615760+534233348
2754+534795697+535248792+535534494+535614500+535504339+535296062+535114362
2741+535109789+535472962+536382908+537920540+539944228+542083555+543961087
2727+545410970+546527836+547614682+549031468+550982123+553459086+556297547
2714+559196181+561846332+564127696+566118512+567939854+569643926+571249112
2700+572763109+574144215+575359288+576403891+577273223+577995901+578566265
2687+578906617+578951940+578715409+578328058+577989472+577933508+578423594
2673+579603351+581331783+583264915+585142311+586894106+588524738+590058159
2660+591517641+592904725+594237293+595548265+596839676+598106320+599340999
2646+600516680+601629516+602708530+603764950+604764274+605667203+606488767
2633+607279407+608057912+608792000+609436755+609970307+610406558+610775708
2619+611065259+611246007+611344984+611407241+611438121+611446452+611483036
2606+611573999+611632362+611571418+611437487+611292870+611131862+610951747
2592+610762532+610580289+610438117+610310660+610126017+609927248+609839636
2579+609906194+610093689+610368434+610712273+611109676+611526095+611918246
2565+612281962+612634675+612943832+613172393+613337204+613454066+613501200
2552+613475981+613450580+613481821+613542992+613653243+613888461+614268613
2538+614772237+615350841+615952129+616587240+617289497+618040655+618782666
2525+619508604+620271941+621091106+621945813+622807584+623645177+624470182
2511+625307141+626165788+627064008+627990978+628923926+629853251+630747894
2498+631582815+632353850+633035370+633629323+634197423+634753886+635267471
2484+635762629+636271550+636774541+637267887+637799764+638382353+638971280
2471+639548390+640151535+640826173+641540384+642227156+642924795+643685914
2457+644445086+645156399+645852046+646537822+647207389+647863780+648491647
2444+649081344+649656054+650241087+650813941+651347856+651853744+652333462
2430+652786284+653217464+653603909+653936837+654214978+654401114+654503849
2417+654584580+654653311+654708686+654823918+655068327+655431545+655866754
2403+656302779+656679127+657001459+657297395+657594779+657944776+658381434
2390+658840505+659176737+659306956+659271775+659180088+659069882+658938078
2376+658785583+658505314+657921548+657222415+656689451+656224086+655997199
2363+656146027+656732102+658378763+660854187+662699661+661919209+658306454
2349+655405601+656449615+659832902+661717225+661430572+660761458+660704996
2336+661409744+662444340+663572842+664715426+665557139+666094268+666926564
2322+668321661+669466961+669732470+669656992+670041264+670834529+671619464
2309+672242440+672750140+673223745+673754218+674324129+674821912+675272290
2295+675703017+676030873+676265185+676487861+676700440+676847004+676921486
2282+676981660+677057138+677107849+677084078+676979034+676813408+676623468
2268+676456529+676342837+676272520+676216874+676194914+676250787+676399887
2255+676595215+676787192+676974416+677160190+677343655+677478447+677607715
2241+677778050+677987188+678210090+678475236+678822652+679199816+679524729
2228+679803413+680083320+680355303+680596226+680804775+680976423+681117961
2214+681213090+681237314+681189410+681040537+680790377+680537501+680409410
2201+680487016+680811658+681383380+682116426+682886781+683610002+684246471
2187+684800897+685319236+685840383+686343645+686788363+687176302+687536985
2174+687888974+688219365+688519557+688814586+689118038+689417776+689700989
2160+689988547+690316449+690654945+690953823+691244461+691550312+691821752
2147+692049273+692258863+692442691+692587896+692720515+692899362+693144224
2133+693425489+693720473+694022295+694334077+694651474+694965203+695292788
2120+695648942+696025698+696399692+696742581+697080307+697443525+697795786
2106+698127400+698493380+698938415+699453041+699983923+700505205+700997600
2093+701458799+701880516+702224627+702460524+702581913+702580057+702455362
2079+702220144+701878614+701443541+700943403+700399844+699849448+699405364
2066+699204919+699261381+699509819+699961148+700612468+701357060+702141678
2052+702979316+703803914+704507303+705035287+705382929+705559739+705585909
2039+705524648+705483808+705562591+705822214+706274402+706901091+707684985
2025+708602493+709598557+710587694+711543145+712496513+713396634+714160832
2012+714817313+715422722+715979593+716482402+716938439+717350149+717715903
1998+718031806+718296182+718554446+718845899+719093432+719252719+719389503
1985+719541365+719710704+719901821+720101496+720286184+720452670+720618794
1971+720784646+720970421+721181415+721334725+721389647+721407351+721390281
1958+721255942+720961999+720499713+719855773+719014649+717958954+716744288
1944+715514047+714336011+713200853+712244814+711652129+711434207+711497731
1931+711758350+712211263+712957078+714168846+715852996+717762675+719784778
1917+721791034+723454040+724777598+726001546+727162602+728161429+728978828
1904+729697114+730355135+730924140+731430843+731937954+732410970+732855688
1890+733366059+733824405+734091000+734281167+734489218+734712663+734941950
1877+735147058+735312548+735489675+735862672+736468579+736953051+737151277
1863+737354211+737711634+738090291+738397274+738660881+738888900+739034422
1850+739076531+739064396+739171931+739370338+739286755+739015089+739013323
1836+739314465+739691402+740180040+740871113+741503689+741939034+742325072
1823+742619151+742825210+743089948+743403180+743693048+744008724+744383986
1809+744703284+744885165+744996141+745181417+745511945+745822595+745909664
1796+745913015+746157288+746523087+746532142+746244312+746094216+746141667
1782+746195955+746172592+746027975+745838397+745872310+746163899+746276278
1769+746001623+745583121+745273376+745234121+745317250+745279760+745204328
1755+745153209+745193506+745472961+745764006+745712163+745401693+745107071
1742+744948327+744794700+744531048+744532723+744942577+745004562+744437278
1728+743767711+743279345+742886289+742471274+742170494+742196347+742215047
1715+741657452+740648936+739695523+739041350+738612117+738139101+737590787
1701+737235403+736844475+735971067+734657560+732967388+731127528+729476204
1688+728120634+727076756+725961611+724112197+721768214+719696351+718128338
1674+716723415+715333842+714151278+713085576+711993523+711173498+710732447
1661+710295834+709763187+709606209+710417495+711830478+712341437+712081271
1647+712318798+712923301+713177988+713353847+714043970+715602655+717796271
1634+719558933+720584020+721689521+723228919+724943586+726653681+728069832
1620+729102798+730413407+732224064+733694005+734597205+735512676+736620757
1607+737704163+738686146+739613298+740475250+741252488+741973173+742649396
1593+743235697+743714192+744091673+744360985+744529599+744593667+744528241
1580+744439361+744567044+744698213+744241950+743432474+742860209+742349477
1566+741542084+740593606+739966827+740065894+740277613+739355894+737594047
1553+735885855+734407129+732982918+731621689+730448543+729465926+728448852
1539+726842081+724441049+721896260+719584967+717236502+714727663+712179795
1526+709592128+706939487+704115243+700979942+697589274+694042987+690373725
1512+686669237+683016955+679042430+674001978+667924847+661513340+654793265
1499+647106691+637918663+627504560+615976443+602124855+585154038+566194850
1485+546924967+528351183+511182276+496294235+483863145+472346483+458987607
1472+442993884+427554541+415827338+407747075+400777610+392823491+385376392
1458+383829252+393042137+410740657+431127769+450587728+466964229+478555871
1445+484873698+487319692+488279579+489992798+493296442+496918751+499468159
1431+501074160+502226568+503143533+504115963+505358293+507012560+509184215
1418+511513347+513614641+515731194+518142866+520726187+523326125+525956761
1404+528514137+530758283+532404717+532617975+530191994+524852663+517383740
1391+508036787+496405890+483929794+474649897+472455557+479208776+493765021
1377+511962502+529221873+542855314+552749946+560606945+567612994+573617319
1364+578104975+580643516+581289856+580712157+579493598+577815469+575681575
1350+573168616+570933617+570518284+573086754+577869486+582973417+587349148
1337+591282741+595538666+600534339+606228284+612458047+619123562+626125672
1323+633306086+640550341+647755068+654689081+661151933+667070185+672307776
1310+676602550+679715348+681573048+682368080+682524786+682485711+682552541
1296+682908560+683732207+685125086+686965172+688965361+690805629+692142454
1283+692565031+691782587+689911394+687655431+686252818+686906357+690005843
1269+694947907+700720591+706474847+711656747+715966281+719238502+721318561
1256+722007824+721063829+718262088+713524815+706857308+698172225+687643433
1242+676422390+666263743+658463477+654211944+655033237+661655421+673188337
1229+687626861+702823560+717118010+729533254+739907875+748567784+755775907
1215+761754197+766773958+771027891+774691583+777949678+780903959+783616004
1202+786135891+788420605+790437184+792187169+793755317+795119354+796237623
1188+797137564+797841813+798355353+798723371+798990690+799109137+799020302
1175+798724005+798187463+797354082+796198051+794699267+792848223+790674802
1161+788287851+785847925+783421401+780907219+778078629+774658983+770409306
1148+765093882+758529019+750811838+742357627+733760880+725651096+718493729
1134+712442180+707361656+703026857+699269168+695893487+692606958+688994475
1121+684440441+678183603+669306768+656583139+638566542+613918525+581800679
1107+542680406+499650311+458792732+426833946+407228102+398554746+397050755
1094+400091970+407031913+417793161+431225161+444473379+453636911+454512719
1080+442904822+415379768+371510835+317659521+267721788+236181641+228184032
1067+235451130+241539150+233475323+210541611+182303511+159850196+149791975
1053+154462837+174716413+211010734+262669360+326699944+397411483+467660193
1040+530889679+582917771+622292686+649205812+664193872+666953594+655690352
1026+626239591+573018339+497692683+418655657+364849395+355627906+387926614
1013+442865023+502368061+558453536+609984389+656442280+696125807+727360013
999+749673285+763819133+771011681+772288694+768312766+759323508+745170777
986+725312102+698455120+662138761+612651337+546373891+464039333+375546710
972+299163638+253307148+248126584+283613863+351511278+438065947+528813966
959+612878903+684074054+740332127+782713438+813863609+836589949+853237754
945+865602286+874872267+881795774+886982338+890852135+893582563+895306286
932+896128801+896066771+895143467+893377364+890690403+886884266+881678867
918+874780715+865913072+855036004+842624836+829612560+817455581+808449660
905+804891827+806764695+810546653+810999702+803891008+786954965+759901523
891+725562850+691211363+666312235+656222683+660016458+676665803+707383661
878+748564343+789911691+822570334+843999649+855363815+858261680+853271350
864+840423976+822012151+805333919+800450082+811717354+833025052+854372957
851+870379992+880881436+887387483+891214900+893201505+893854229+893611903
837+892805597+891559916+889965416+888120439+885996189+883592666+881040361
824+878401756+875561484+872436868+869093742+865419273+861195858+856441243
810+851221537+845667137+840449060+836609780+834667456+834150022+834048510
797+833559058+832279690+830175906+827494468+824407071+821009430+817401701
783+813569394+809441152+804947700+799914809+794146698+787877001+781893640
770+777218443+774294316+772224672+769308876+764076039+755969741+746302132
756+738688863+736899215+741273632+748232638+753874741+756917993+757989988
743+757861082+756953173+755506143+753698565+751671617+749566610+747514533
729+745549570+743528373+741308496+738883014+736796480+734575744+732130882
716+729898373+727800113+725628729+723517700+721529012+719536656+717516500
702+715562404+713709458+711928277+710218273+708574239+706962850+705419423
689+704010109+702713083+701482117+700379197+699474367+698650493+697519954
675+695413181+693088577+694495809+699548170+699492886+693947768+691734457
662+693443600+694932422+695256656+695350019+695744071+696537246+697577366
648+698582894+699536171+700671601+702050624+703493354+704919648+706497939
635+708377236+710380685+712308565+714223270+716207249+718382980+720784872
621+723283026+725802686+728293957+730764536+733414234+736395953+739565938
608+742600677+745450639+748400256+751665595+755215641+758816035+762332756
594+765910059+769711577+773562809+777197615+780658101+784193024+787976702
581+791819695+795471343+799068477+802900875+806976504+811068524+814966393
567+818621120+822360608+826340973+830259488+834031757+837829562+841741377
554+845646400+849307104+852837408+856593920+860467248+864144253+867691944
540+871235107+874735800+878165316+881528998+884819602+888157929+891593875
527+894792293+897711077+900756275+904008484+907077861+909687035+912004893
513+914315325+916679909+918918620+920822458+922287917+923179345+923182243
500+922201437+920738785+919072655+916692858+913031882+908164436+902638833
486+897305116+893408244+891945320+892944328+895521536+897911838+898008732
473+894866820+889470259+883813259+880118597+880910052+888023816+901179894
459+918225418+935755415+950076579+960180303+967254405+972578432+976880178
446+979998002+981816899+982901029+984016853+985644407+987787582+990398749
432+993982843+999065540+1005202030+1011486850+1017609667+1023914681+1030563896
419+1036597063+1041064254+1044864594+1048903368+1052396182+1055030621
407+1058059430+1061697767+1065358018+1069437360+1073741823
##END=
