##TITLE=40
##JCAMP-DX=4.24
##DATA TYPE=INFRARED SPECTRUM
##DATE=16/11/2015
##SAMPLING PROCEDURE=Instrument type and / or accessory
##ORIGIN=Default
##XUNITS=1/CM
##YUNITS=TRANSMITTANCE
##RESOLUTION=4
##FIRSTX=3996.3359
##LASTX=399.24785
##DELTAX=-1.9287336
##MAXY=1.1405039
##MINY=0.026256137
##XFACTOR=1
##YFACTOR=1.062177e-009
##NPOINTS=1866
##FIRSTY=0.10286282
##XYDATA=(X++(Y..Y))
3996+96841504+96933036+97021888+97082535+97125484+97221007+97367560+97460277
3981+97461672+97479756+97613128+97773906+97836615+97863383+97951933+98042012
3965+98047778+98033960+98104855+98234903+98366143+98494072+98581823+98584860
3950+98552594+98589861+98730319+98904333+99029639+99104518+99181565+99256956
3935+99297675+99342287+99448247+99581037+99672983+99718745+99742685+99772819
3919+99839541+99927137+100008021+100081076+100138216+100176227+100212723
3906+100271567+100350999+100421852+100511938+100654282+100767944+100783636
3892+100724195+100648362+100649737+100761372+100875202+100914153+100920102
3879+100945669+101030846+101176613+101299576+101315836+101234068+101155534
3865+101148506+101171135+101202791+101302803+101496044+101695366+101729056
3852+101578498+101450443+101450387+101527531+101651435+101823415+101985848
3838+102064662+102062004+102050767+102075935+102124061+102170637+102194044
3825+102195335+102208480+102238901+102288865+102357761+102370127+102325256
3811+102335048+102431293+102543279+102596855+102595691+102582918+102588873
3798+102635224+102695043+102708118+102680313+102672885+102706344+102730740
3784+102712874+102687187+102692680+102723417+102773570+102850659+102917955
3771+102918369+102866694+102843623+102873302+102915451+102966152+103021980
3757+103034030+102997001+102965471+102976884+103030453+103107149+103157534
3744+103104722+102980630+102902292+102896604+102929529+102984193+103034423
3730+103056834+103043037+102982411+102898715+102836272+102795638+102740981
3717+102647226+102538902+102462438+102403649+102310063+102167684+101998250
3703+101838608+101685981+101498365+101265675+100989846+100655517+100284846
3690+99954767+99706336+99513018+99357256+99237288+99143105+99079933+99021131
3674+98895642+98711345+98540333+98394530+98228730+98018970+97781433+97539947
3659+97311767+97078340+96787795+96456727+96143006+95821422+95436883+95030971
3643+94652647+94283267+93897500+93505674+93122566+92724475+92278728+91793785
3628+91340518+90963773+90576014+90111770+89603903+89072384+88517303+87954731
3613+87398738+86855645+86289979+85684022+85107021+84588106+84047910+83442536
3597+82804572+82141469+81460296+80812512+80180581+79485534+78762625+78094317
3582+77461937+76843628+76230993+75565281+74828301+74077573+73358242+72667881
3566+71989633+71310943+70604007+69861654+69117927+68411621+67741637+67071765
3551+66393222+65667270+64835265+63995251+63283418+62629202+61907787+61155432
3535+60471840+59839186+59160882+58430587+57715756+57017619+56322074+55657757
3520+55008412+54328857+53615288+52908733+52263766+51663891+51045988+50379234
3505+49680206+49046020+48514174+47962274+47320470+46669418+46087619+45552894
3489+45005097+44443026+43910935+43355030+42708666+42104355+41639788+41177926
3474+40592048+39931473+39309372+38784327+38351771+37931785+37435313+36901325
3458+36415802+35955216+35471599+34991639+34530699+34072371+33639110+33242058
3443+32825849+32360353+31887207+31463682+31124369+30821710+30479665+30136062
3427+29866139+29635985+29376615+29083343+28772477+28456869+28140481+27829099
3412+27556639+27342704+27181791+27015538+26741645+26415351+26219795+26148214
3396+26021327+25774567+25511490+25393928+25425788+25448606+25368626+25217954
3381+25099574+25073575+25075392+25044025+24961835+24822090+24719172+24777059
3366+24958139+25115990+25201631+25279091+25395615+25529533+25622622+25690622
3350+25805659+25944769+26056628+26157261+26258013+26361343+26518186+26776947
3335+27094849+27391188+27641705+27856491+28045114+28232025+28448091+28716139
3319+29051996+29416649+29742363+30032627+30288198+30487086+30705505+31030214
3304+31472082+31989320+32452039+32805721+33168816+33580042+33987977+34428316
3288+34913505+35386587+35837882+36286572+36745274+37200848+37629336+38073133
3273+38568444+39098161+39670795+40289578+40921863+41542526+42166348+42805838
3258+43408606+43977253+44610135+45317598+46024973+46701025+47366986+48072952
3242+48838873+49625322+50406338+51189195+52005185+52901112+53834931+54723542
3227+55583481+56458094+57351703+58251109+59146846+60073679+61066805+62103336
3211+63134305+64137574+65131724+66133414+67131100+68140864+69209556+70322180
3196+71422613+72505819+73582992+74645855+75692347+76735023+77816398+78952661
3180+80087541+81188627+82269791+83336197+84416526+85527909+86616676+87678923
3165+88764527+89830554+90839154+91847087+92878793+93897676+94886839+95884896
3150+96917843+97953525+98968782+99957131+100901036+101819262+102760769
3136+103730894+104696271+105621834+106495665+107352936+108232147+109111744
3123+109937085+110711844+111483538+112266083+113064607+113877252+114661965
3109+115402676+116128944+116835579+117500275+118143836+118792378+119451314
3096+120101637+120691300+121214942+121748517+122321386+122873970+123367422
3082+123817721+124265986+124754220+125268350+125752221+126176384+126554098
3069+126913055+127260270+127586133+127872743+128113394+128329832+128535075
3055+128718713+128876496+129014203+129128525+129206792+129234948+129199020
3042+129112335+129004004+128868247+128698385+128503748+128256643+127930303
3028+127534408+127062476+126501517+125870049+125168310+124341448+123350784
3015+122218625+120960051+119558088+117996491+116209716+114097021+111614968
3001+108738407+105421887+101619400+97215080+92068225+86139210+79418595+71938463
2986+63940257+55875201+48335246+42013518+37550546+35336970+35506986+38044521
2970+42692877+48881394+55948692+63342297+70617699+77375456+83218992+87798245
2955+90924513+92605089+92960224+92184608+90563016+88433046+86132126+83971803
2939+82187589+80864342+79935580+79274588+78852277+78823553+79381566+80558919
2924+82191425+83998725+85671382+86973761+87792641+88053213+87764218+87073976
2909+86069788+84776879+83360944+82027203+80911507+80126654+79666086+79399291
2893+79204093+78979456+78678669+78361420+78099283+77940834+78074859+78805883
2878+80305936+82572183+85533653+89075267+93026243+97196379+101410446+105512584
2862+109380418+112944843+116219031+119254714+122063563+124661489+127108688
2849+129419498+131530495+133412189+135126744+136754726+138326045+139853609
2835+141384441+142961765+144563345+146127173+147628558+149076886+150467430
2822+151780996+153008945+154146547+155211031+156269707+157349679+158448772
2808+159634199+160950417+162342939+163722259+165038631+166290373+167474663
2795+168578470+169585506+170464612+171211622+171890746+172539316+173123282
2781+173640682+174114353+174529089+174877132+175171374+175410019+175609117
2768+175794368+175956977+176089803+176209736+176329739+176426061+176490215
2754+176573883+176701392+176859273+177050641+177286874+177572375+177895671
2741+178253029+178639848+179018417+179371426+179734999+180137838+180573744
2727+181024492+181480936+181984026+182606375+183362336+184186743+184989869
2714+185706114+186312695+186816051+187251816+187699829+188210130+188771538
2700+189411900+190161281+190952567+191702383+192392113+193032139+193640024
2687+194240138+194832915+195400692+195941267+196470885+197019162+197598387
2673+198179646+198715339+199197877+199653984+200062351+200412385+200765521
2660+201137609+201485090+201792323+202071470+202362457+202699627+203047515
2646+203354117+203631931+203925752+204232479+204510083+204733689+204903930
2633+205063957+205246684+205433969+205661953+205978865+206329517+206657934
2619+206987304+207337226+207688341+208008004+208275268+208511234+208748224
2606+208998036+209250795+209468846+209649762+209844946+210082188+210343925
2592+210599055+210828904+211034469+211246474+211506261+211781970+212010936
2579+212207916+212397937+212570310+212725273+212869602+213011069+213146322
2565+213260377+213345658+213406950+213478624+213572814+213639592+213662950
2552+213675856+213688903+213728535+213836838+214019480+214271565+214576413
2538+214906246+215264459+215665629+216077546+216449465+216802853+217191706
2525+217573965+217883877+218187644+218543543+218881934+219185603+219491391
2511+219778155+220057400+220367733+220700443+221060059+221464007+221898860
2498+222359078+222833086+223291648+223751291+224239384+224725274+225185828
2484+225653734+226148449+226651440+227133487+227591165+228076775+228609634
2471+229143546+229662067+230169394+230650052+231119767+231621538+232141365
2457+232639264+233128704+233611494+234038435+234400464+234743597+235078999
2444+235395856+235711590+236009900+236246315+236429504+236589406+236734043
2430+236889063+237056147+237175981+237239224+237298061+237372891+237475302
2417+237640590+237888200+238202840+238570369+238986493+239428010+239864758
2403+240298082+240753376+241216329+241662139+242089122+242498990+242891911
2390+243252313+243533564+243705671+243785551+243799664+243772055+243763442
2376+243840460+243983386+244124798+244256641+244403720+244532084+244609103
2363+244777870+245205864+245784050+246358982+246936579+247483145+247879152
2349+248094917+248248028+248499874+248941055+249525386+250105256+250563636
2336+250917220+251269906+251679017+252066494+252328161+252499005+252713479
2322+253053595+253478923+253898078+254266757+254596015+254923870+255290389
2309+255704213+256135826+256553437+256949361+257325644+257689385+258048468
2295+258394757+258732432+259089018+259463421+259819166+260116354+260341826
2282+260537361+260752424+260968693+261146523+261301009+261457151+261593231
2268+261680715+261723363+261739889+261761297+261836043+261999648+262265355
2255+262658641+263196733+263835861+264489467+265049163+265529260+265963678
2241+266389707+266826567+267266260+267677615+268040486+268368285+268681971
2228+268994198+269321773+269679537+270059496+270427810+270768768+271089076
2214+271399507+271734741+272110098+272487924+272824617+273120122+273435463
2201+273822773+274239515+274630696+275003781+275354194+275671556+275980275
2187+276298086+276623163+276970154+277361812+277768846+278157474+278554015
2174+278963771+279333656+279666197+280045678+280471399+280861991+281209992
2160+281542224+281861606+282180819+282511844+282844020+283141657+283385423
2147+283617826+283877809+284160856+284475103+284820438+285173180+285546770
2133+285985565+286504971+287068034+287649363+288263969+288904135+289536613
2120+290137414+290722054+291316009+291892344+292421093+292912637+293394529
2106+293880377+294337803+294732155+295081924+295445272+295823659+296195649
2093+296574260+296997792+297444837+297877404+298312468+298784063+299289355
2079+299797032+300300585+300814996+301334683+301844184+302330986+302787093
2066+303236270+303715441+304208388+304671734+305105760+305544303+306013906
2052+306509097+307004513+307485957+307953006+308402941+308821563+309208788
2039+309600334+310021594+310446445+310842031+311226872+311635253+312073038
2025+312523702+312965107+313377332+313763379+314168982+314615970+315060798
2012+315473949+315876353+316283107+316691348+317093219+317492930+317889050
1998+318249003+318562043+318859288+319181054+319535789+319875007+320189984
1985+320512059+320830206+321112916+321371328+321654178+321999766+322396335
1971+322779295+323131953+323528438+323982384+324399744+324747604+325090807
1958+325464873+325851341+326219122+326533762+326773488+326916526+326932603
1944+326843015+326713135+326517152+326139803+325539928+324780825+323974641
1931+323270643+322838497+322830865+323354423+324420142+325860011+327519151
1917+329311257+331039167+332568933+333923170+335144160+336273457+337328654
1904+338291204+339173396+340003486+340787392+341520682+342183013+342777698
1890+343383634+344036847+344663489+345245463+345837118+346445691+347035213
1877+347614718+348206260+348728022+349160982+349681510+350353886+351021016
1863+351575942+352067683+352584788+353161431+353760829+354323247+354817738
1850+355259086+355689577+356188893+356812561+357457609+358008580+358507559
1836+358996326+359438404+359856100+360349440+360881079+361357247+361869610
1823+362466006+363025731+363493342+363928518+364369558+364806221+365256773
1809+365745539+366246146+366696417+367078844+367493651+367996474+368465881
1796+368819998+369170580+369635188+370142473+370567688+370927922+371274520
1782+371612363+371968501+372320906+372583583+372807568+373125519+373513081
1769+373870425+374174599+374441008+374751299+375156874+375620641+376151045
1755+376709619+377215950+377746831+378382929+379033701+379601394+380098998
1742+380597557+381069348+381355594+381514064+381836336+382318733+382734241
1728+383057915+383285071+383389670+383361416+383229881+383173036+383313185
1715+383506559+383615423+383610373+383474264+383226823+382907553+382530092
1701+382156278+381850561+381544731+381189913+380736639+380097399+379272921
1688+378332060+377353826+376421185+375575664+374707164+373749328+372798394
1674+371976301+371261501+370651553+370216742+369882658+369573994+369397006
1661+369379273+369311373+369087529+369043674+369498884+369979177+370126648
1647+370392496+371026798+371729869+372326967+372937728+373848877+375258555
1634+376845643+378247522+379631780+381207926+382934938+384765006+386589154
1620+388253878+390037090+392221191+394432144+396355869+398111275+399792525
1607+401391173+402925597+404405784+405784151+407025875+408175964+409315502
1593+410445753+411509760+412497871+413432840+414313910+415104214+415747971
1580+416268864+416894243+417708256+418373926+418755764+419125089+419591886
1566+419957114+420046422+419873755+419779172+420124703+420605305+420833667
1553+420874716+420866130+420820985+420611169+420229162+419940532+419999650
1539+420271866+420286204+419915869+419479627+419103877+418628102+418014310
1526+417362415+416679349+415934134+415161900+414363797+413526806+412562179
1512+411294417+409698659+407986181+406371428+404744750+402721897+400056717
1499+396633753+392436703+387559588+381877693+375176823+368331484+363011141
1485+359779194+357888465+356422362+354949385+353277226+350991527+347515954
1472+342851742+337706283+332281593+326086325+318972865+311461463+304295704
1458+298933835+297401993+299595550+303282481+307030860+310901233+315214050
1445+319548022+323100837+325292065+326079002+325923477+325365549+324641349
1431+323815300+323058189+322558060+322421222+322658787+323255997+324369975
1418+326130067+328299326+330644001+333148859+335790948+338462525+341079754
1404+343511914+345472984+346768888+347318512+346863780+345079221+341795311
1391+336786213+329718151+321205703+313404295+308664608+308516294+313280476
1377+322092581+334076449+348666071+364790340+380977992+395220876+405510700
1364+411495872+414246824+415115661+415151659+414921277+414516151+413759713
1350+412529941+410930227+409224455+407614612+406116635+404751204+403737252
1337+403242425+403214872+403618119+404533223+406008024+407976753+410354594
1323+413106219+416231182+419711609+423480413+427514896+431863234+436517458
1310+441360875+446304514+451302333+456268335+461083498+465607926+469726442
1296+473353386+476406409+478814888+480494763+481305465+481039477+479477725
1283+476540918+472555704+468393642+465364104+464862936+467754514+473903487
1269+482244502+491391056+500263148+508314607+515396558+521472076+526562822
1256+530823058+534425115+537466746+540027299+542192461+543984960+545390318
1242+546464594+547375518+548328135+549564529+551336939+553698505+556474654
1229+559424929+562336091+565033902+567407421+569461699+571294209+572977507
1215+574481684+575766393+576889770+577994966+579156390+580270564+581265212
1202+582234496+583267639+584229684+585052170+585754400+586401131+587019693
1188+587534609+587864961+588071916+588258724+588419046+588431841+588219499
1175+587842852+587345388+586596133+585402723+583768695+581820475+579578603
1161+577097342+574690265+572707647+571193425+569997547+569030732+568193488
1148+567217526+565869799+564151148+562088453+559622904+556757251+553621178
1134+550311932+546832880+543277567+539789257+536366769+532811906+528769285
1121+523894135+517899199+510289874+500294798+487182727+470333837+449029850
1107+422457595+390167811+352787730+312222137+271332168+233663162+202901278
1094+181868470+171841996+172629928+183021714+201156492+224714388+250976562
1080+277012970+300087458+317893427+328992240+333855550+334896325+333665571
1067+327722598+311636992+281307436+237404287+186056359+136686798+97730578
1053+73036889+62157979+63523571+76902212+103578555+144736994+199348252
1040+263069575+329123326+390951885+444847783+490394837+528601107+560009147
1026+584219359+600088555+606765239+606333430+605615993+612317929+628103120
1013+648262799+667756161+684583980+698721787+710641627+720734794+729134562
999+735823872+741014504+745239948+748844475+751704684+753583096+754503279
986+754619606+753770073+751275624+745963502+736186042+720014607+697016548
972+672171501+656451235+658964707+678553017+705842457+731900104+752760161
959+768195921+779290526+787133403+792597767+796535451+799648966+802232919
945+804282146+805840531+807142749+808303779+809191303+809781975+810242066
932+810607996+810690317+810346161+809641181+808700853+807532134+805998047
918+803931144+801268517+798043613+794240606+789761014+784595409+778856584
905+772499647+765040712+755486647+742366440+723758075+697325239+660563214
891+611827535+552285572+487269369+425695294+379326792+362489238+386700544
878+450084149+534678589+617883076+685289352+733489016+765476562+785639439
864+797550974+804035631+807801826+811172967+815023392+818764503+821716461
851+823820570+825091531+825419190+825014148+824381276+823741279+822784452
837+821246830+819418922+817690451+815987513+813995074+811636650+809081765
824+806344785+803103383+799099875+794321244+788594091+781509615+772784377
810+762627126+752181834+743838968+740410701+743088310+750243211+758603978
797+765553777+770207495+772788081+773868642+774116448+773844568+772937573
783+771546244+770114792+768778176+767295828+765458268+763442429+761579393
770+759934085+758297307+756478321+754530326+752497092+750190350+747660717
756+745488540+744134865+743390380+742676534+741711908+740667261+739556285
743+738139368+736469706+734889772+733564884+732257785+730714214+729097862
729+727639082+726223343+724738077+723236369+721620466+720146815+718934607
716+717736821+716422595+715137324+713981232+712923229+711950747+711036512
702+710126486+709239356+708463558+707865703+707406566+706923972+706268991
689+705521476+704957571+704704097+704619026+704512631+704316844+704107589
675+703950185+703724207+703386672+703498791+704618240+705921917+706652148
662+707055956+707613408+708547058+709664543+710722321+711831333+713152798
648+714539525+715861607+717299624+718986514+720835297+722768758+724767313
635+726824060+729015597+731409598+733890018+736257701+738598056+740973091
621+743254580+745526418+748389153+751903052+755453708+758772942+761986960
608+765241886+768570941+771890513+775324616+778994629+782644721+786177194
594+790004668+794189372+798160726+801837865+805648279+809617444+813575779
581+817594325+821760288+825912838+829871678+833564137+837151828+841135920
567+845475784+849418968+852876190+856637784+861081237+865791352+870325825
554+874593019+878698938+882703007+886793493+891159732+895599931+899724143
540+903422719+907164223+911262061+915325107+919130863+922940548+926707192
527+930150722+933316144+936523428+939950910+943465202+946954804+950545189
513+954203025+957635164+960551601+963130671+965831849+968673204+971463606
500+974213492+976759679+978683432+980018982+981424003+983166728+984720904
486+985846470+987092796+988873791+990924814+992680558+993868973+994700942
473+995220460+995180281+994582987+994014536+994428557+995858157+996976203
459+996688218+995180393+993120952+990641319+987637341+983928440+979165801
446+973383992+966985361+960252842+953344793+946925960+942216968+940038731
432+941025972+946509134+956826314+969902808+983511389+996742089+1009498948
419+1021622264+1032028443+1040131191+1045893136+1049875993+1053852677
407+1058116898+1061406616+1064381413+1068588059+1073741823
##END=
