##TITLE=40
##JCAMP-DX=4.24
##DATA TYPE=INFRARED SPECTRUM
##DATE=16/11/2015
##SAMPLING PROCEDURE=Instrument type and / or accessory
##ORIGIN=Default
##XUNITS=1/CM
##YUNITS=TRANSMITTANCE
##RESOLUTION=4
##FIRSTX=3996.3359
##LASTX=399.24785
##DELTAX=-1.9287336
##MAXY=1.0623102
##MINY=0.023865331
##XFACTOR=1
##YFACTOR=9.8935349e-010
##NPOINTS=1866
##FIRSTY=0.13432215
##XYDATA=(X++(Y..Y))
3996+135767603+135758310+135768025+135819776+135928083+136067869+136218861
3983+136415896+136619316+136735290+136777869+136828340+136916375+137013024
3969+137107340+137218418+137323683+137392529+137466768+137589700+137732829
3956+137871967+138010895+138110105+138159567+138230733+138326253+138409784
3942+138537219+138726196+138888710+138986700+139084736+139211282+139301305
3929+139325961+139338417+139374459+139413980+139453487+139538991+139668942
3915+139776074+139838052+139879788+139899594+139905498+139944010+140028008
3902+140147672+140307535+140438404+140437214+140336377+140269745+140313138
3888+140449158+140606973+140687642+140692582+140708984+140730462+140720762
3875+140714602+140730914+140755494+140763959+140746066+140743475+140779035
3861+140821825+140831901+140820304+140884662+141042160+141132921+141108943
3848+141066198+141046498+141047853+141079513+141192881+141404028+141593110
3834+141667379+141641774+141552444+141479471+141489728+141564508+141673463
3821+141746045+141730878+141744162+141820916+141821051+141712232+141616561
3807+141612253+141631969+141668237+141765745+141833326+141849909+141874429
3794+141862094+141800492+141753817+141753184+141781469+141804755+141797871
3780+141779963+141778020+141773909+141755684+141751136+141783804+141834411
3767+141861913+141834125+141744027+141643446+141578666+141524686+141461367
3753+141415670+141407808+141413215+141438941+141522411+141548091+141390488
3740+141185561+141068337+140999928+140940118+140904904+140865187+140791898
3726+140698712+140595059+140484462+140365265+140202496+139944733+139600773
3713+139265956+138996249+138742101+138418264+137967488+137419821+136837046
3699+136215276+135518787+134752728+133944211+133125828+132383612+131794165
3686+131348299+131014761+130710007+130264593+129661650+129140492+128846235
3672+128637151+128347337+127924094+127449716+127008339+126591300+126189685
3659+125797649+125372666+124896616+124417216+123991969+123606974+123167886
3645+122625739+122014656+121378638+120753668+120152473+119548070+118914206
3632+118247847+117539489+116794855+116058144+115332570+114593916+113821177
3618+112990060+112111620+111241396+110402899+109546306+108608553+107618500
3605+106639336+105660992+104680631+103745943+102839248+101871327+100829643
3591+99809481+98823833+97762004+96620251+95515459+94490937+93513979+92524912
3576+91480577+90413868+89387494+88391378+87332749+86188571+85066097+84016791
3560+82991245+81931781+80854807+79802632+78764879+77718247+76617363+75454328
3545+74326959+73302414+72335179+71345977+70322961+69335054+68415804+67519930
3530+66598843+65624138+64598938+63582007+62638957+61760001+60870833+59942317
3514+59010906+58119433+57268578+56432393+55607350+54792247+53983214+53146362
3499+52284625+51515080+50868384+50225570+49513168+48747045+47968225+47239188
3483+46535781+45735514+44906073+44226245+43637272+42970205+42180899+41343897
3468+40620673+40103269+39678534+39203648+38640946+38003788+37351718+36753934
3452+36180569+35568002+34971009+34480700+34043257+33531011+32967127+32444361
3437+31960995+31532040+31160809+30790061+30437840+30137628+29821441+29434613
3422+29034756+28690299+28393424+28082326+27720003+27349405+27029336+26789291
3406+26607250+26365118+26011261+25720888+25624200+25542563+25285919+24975635
3391+24856647+24902227+24914675+24828348+24695086+24589198+24532453+24472190
3375+24397099+24322208+24216403+24122148+24159681+24310541+24438127+24528837
3360+24641329+24736063+24800676+24866633+24896217+24943172+25122236+25356343
3344+25523185+25655478+25799571+25984993+26273593+26636639+26986127+27278711
3329+27477008+27618174+27836240+28156224+28502544+28871883+29251691+29587658
3314+29877636+30127056+30348478+30614014+31013163+31567114+32165934+32653923
3298+33008377+33344090+33771367+34307711+34880666+35424036+35953524+36492143
3283+37007371+37504156+38052229+38645800+39195760+39684717+40226814+40921395
3267+41697869+42441516+43165609+43923448+44689605+45428986+46191927+47021059
3252+47856574+48640865+49413430+50247966+51145019+52050155+52955951+53892348
3236+54863416+55886169+56999467+58163402+59296351+60401705+61533374+62691141
3221+63836547+65011510+66271451+67552764+68802524+70057592+71349689+72679771
3206+74040496+75424115+76815083+78187052+79530019+80889313+82321497+83806706
3190+85290370+86747353+88192152+89671260+91175649+92646963+94106537+95630393
3175+97212756+98787076+100338238+101874257+103386214+104881672+106363401
3161+107832689+109319758+110815765+112252717+113656736+115145243+116707679
3148+118229389+119671446+121073439+122467157+123863419+125285399+126719730
3134+128119969+129483502+130815046+132135413+133503405+134855824+136058185
3121+137168836+138340155+139598107+140884918+142137719+143316840+144440896
3107+145566578+146706238+147804810+148812741+149753333+150692012+151653614
3094+152600546+153485245+154340392+155220226+156078657+156864627+157605277
3080+158338953+159086802+159847123+160588104+161272168+161876586+162423726
3067+162972447+163521530+164015005+164446804+164835526+165170118+165443108
3053+165670973+165862405+166008562+166090180+166081309+165980864+165815579
3040+165596931+165286799+164840225+164273415+163618978+162866068+161983327
3026+160957081+159804062+158548353+157155269+155530824+153628585+151476204
3013+149119123+146567672+143756320+140578913+136970747+132916534+128363272
2999+123216075+117415239+110883941+103422324+94893584+85531927+75755370
2986+65875047+56283183+47565657+40396904+35391112+32906320+33054265+35797521
2970+40925413+47982044+56313795+65264476+74264348+82753394+90198918+96184039
2955+100393198+102706804+103285641+102399745+100343427+97506561+94406984
2941+91576037+89362845+87859179+86880188+86154758+85665312+85658127+86403627
2926+87957200+90073802+92371835+94497782+96182767+97240318+97530772+97060966
2910+96010787+94527002+92707744+90724790+88833900+87394818+86632705+86324690
2895+86077974+85767052+85462569+85140794+84714358+84257143+84005367+84289412
2880+85454563+87677221+90926328+95070783+99976032+105515016+111496244+117625362
2864+123615966+129335613+134717047+139699968+144344156+148741666+152889366
2851+156748593+160304691+163584366+166636748+169483765+172160814+174739194
2837+177244903+179676268+182084619+184536799+187017461+189439729+191772140
2824+194014001+196111949+198039221+199812669+201471002+203104016+204791117
2810+206580470+208515919+210581847+212717931+214885223+217014303+218997362
2797+220801069+222465728+224008253+225410404+226661308+227771688+228749497
2783+229595110+230338592+231017941+231635584+232197363+232675130+233003214
2770+233229197+233455798+233697656+233912900+234039432+234078019+234121683
2756+234216419+234339005+234496744+234720724+235014544+235370222+235794309
2743+236279320+236771922+237246721+237764325+238359480+238972017+239555591
2729+240149993+240811766+241567733+242442612+243453947+244610611+245887888
2716+247145780+248232709+249150814+249941303+250598361+251216546+251947873
2702+252834860+253862447+254987422+256103902+257152514+258162660+259162112
2689+260127645+261029589+261884902+262720093+263540012+264343212+265137858
2675+265924370+266673951+267391994+268126906+268862661+269504100+270014384
2662+270478851+270967778+271458723+271919244+272342292+272738289+273147872
2648+273603784+274068974+274489702+274868409+275206751+275481503+275707787
2635+275944614+276238495+276563703+276868126+277159326+277484986+277874024
2621+278291439+278706414+279148831+279603719+280030050+280432644+280792313
2608+281088905+281349137+281600544+281854301+282110166+282355337+282585838
2594+282848963+283173117+283487963+283755365+284013579+284272848+284522960
2581+284757799+284955105+285102557+285242448+285426711+285636307+285793549
2567+285870423+285923319+285996880+286085110+286139301+286112823+286016701
2554+285894250+285814123+285804152+285841174+285930850+286091195+286350403
2540+286720103+287147338+287568428+288004700+288526340+289105847+289676919
2527+290224406+290722008+291150508+291512075+291837464+292200597+292607890
2513+292994609+293350423+293724972+294138321+294568839+295030655+295540427
2500+296084991+296673535+297290304+297909121+298540861+299193326+299877119
2486+300566635+301202171+301809752+302455529+303130707+303806035+304484677
2473+305182025+305907538+306619436+307280395+307942108+308649728+309372138
2459+310078433+310766774+311413847+311985431+312496980+312976901+313400009
2446+313741664+314036629+314338582+314659904+314965984+315220193+315406021
2432+315532297+315631312+315722554+315799760+315844010+315852505+315849312
2419+315867777+315967936+316208439+316578530+317032123+317548160+318115889
2405+318707023+319308189+319927277+320527448+321086803+321628385+322155086
2392+322625065+322993801+323227074+323329221+323362116+323390461+323428356
2378+323489777+323569934+323543426+323274096+322882647+322645579+322570211
2365+322526985+322474209+322809569+324035124+325830457+327225936+327234551
2351+325981795+325233719+326312154+328259487+329327168+329426875+329478024
2338+329807931+330352405+330910555+331444636+331996640+332427249+332682120
2324+333111223+333948944+334801908+335276857+335553537+335925527+336391952
2311+336866811+337332874+337802131+338282202+338784594+339288220+339746452
2297+340158746+340540917+340896157+341252573+341616670+341947060+342193195
2284+342360950+342516686+342713992+342919341+343057726+343118604+343145625
2270+343160355+343133214+343038567+342896658+342760652+342701581+342799300
2257+343120110+343682176+344435312+345287854+346140215+346828858+347429119
2243+347991817+348531984+349052238+349528694+349943850+350325177+350688491
2230+351045901+351421143+351813375+352196872+352557625+352910366+353269161
2216+353639554+354008470+354338227+354650482+355006025+355380725+355745635
2203+356129854+356538082+356937543+357301550+357660466+358044655+358422940
2189+358769385+359114715+359507158+359932465+360368616+360821486+361249534
2176+361645200+362071622+362528769+362965131+363383690+363792942+364178396
2162+364567586+364978554+365383709+365744824+366044729+366317493+366585587
2149+366830699+367069484+367335440+367607150+367857623+368119121+368453275
2135+368902771+369464837+370124230+370864112+371625983+372381228+373168071
2122+373998232+374842219+375661746+376405815+377065810+377697340+378338810
2108+378969375+379536411+380025910+380470586+380886917+381297252+381734157
2095+382236729+382800211+383364295+383887562+384393267+384917709+385496101
2081+386132480+386765606+387372615+387996192+388641006+389287235+389920391
2068+390510350+391068982+391642856+392229381+392812503+393401589+394001398
2054+394603738+395179660+395715730+396244419+396784977+397318817+397832114
2041+398331764+398824788+399309919+399781224+400231262+400684764+401190650
2027+401749312+402304028+402825035+403315438+403784876+404271031+404783695
2014+405295786+405811824+406329157+406796546+407204924+407611795+408042404
2000+408459759+408831778+409167469+409502889+409869396+410246958+410579094
1987+410867492+411150378+411441426+411734825+412012047+412279479+412594325
1973+412967911+413348334+413740988+414177320+414628412+415063479+415496106
1960+415922468+416301988+416612225+416853842+417023525+417106634+417078409
1946+416909057+416595567+416159445+415563973+414730319+413637666+412352106
1933+411004552+409765502+408874703+408630616+409260640+410762092+412812416
1919+415114387+417556823+419938259+422075006+423972124+425712753+427324696
1906+428769095+430046944+431208820+432272735+433241823+434149731+435000345
1892+435771946+436537101+437352471+438126904+438832868+439542626+440252235
1879+440917803+441559604+442192308+442744373+443230468+443827476+444592330
1865+445364504+446006456+446548068+447097813+447699039+448302011+448873957
1852+449432799+449955223+450392459+450846383+451477641+452173001+452757056
1838+453301108+453866909+454372795+454815965+455322876+455859547+456311694
1825+456785951+457341841+457857909+458300838+458745876+459206065+459644205
1811+460098912+460617449+461136650+461557921+461885448+462237677+462672201
1798+463058951+463276891+463466937+463848174+464340656+464723640+464997820
1784+465245401+465473221+465706855+465915247+465975041+465933441+466025888
1771+466330432+466681998+466922500+467027449+467140712+467386817+467735039
1757+468163629+468645839+469130368+469677492+470336795+471002695+471548313
1744+471930604+472206712+472426851+472499086+472477638+472640122+472947528
1730+473118867+473122964+472988374+472702055+472233220+471576629+470917808
1717+470477228+470183439+469831572+469279447+468462721+467441279+466322359
1703+465097406+463737773+462383382+461127011+459909649+458639481+457159236
1690+455358963+453267160+450988232+448786932+446896109+445059358+443012076
1676+440850598+438828439+437038891+435490808+434276549+433321438+432452449
1663+431739768+431267138+430841921+430291302+429907023+430170298+430738328
1649+431079773+431585839+432612944+433853772+435020919+436163425+437688162
1636+440048181+442857274+445432913+447902399+450579945+453435517+456426523
1622+459396322+462045251+464733430+467995995+471380317+474334723+476995279
1609+479556158+481980791+484225529+486316880+488252586+490017765+491639439
1595+493155530+494571855+495898865+497144452+498278885+499278337+500139735
1582+500822865+501303056+501822136+502594461+503284880+503631928+503925447
1568+504344759+504642525+504569236+504080671+503550505+503593340+504066904
1555+504373617+504371207+504163358+503830740+503329342+502604522+501794845
1541+501226845+501023846+500767921+500157658+499417777+498673376+497734110
1528+496531599+495185732+493785644+492395798+491053817+489635173+488060401
1514+486307331+484230379+481701671+478754645+475671643+472731154+469554379
1501+465508164+460266968+453897725+446675036+438433406+428743852+418739483
1487+410786582+405707267+402464523+399821077+397252547+394540209+391083320
1474+386001234+379242681+371858593+364229997+355685178+346021350+335993635
1460+326495001+319149320+316503735+318730851+323209844+328113571+333404892
1447+339289214+345034730+349573969+352262088+353156651+352823581+351876453
1433+350646048+349225385+347801078+346649385+345921341+345592789+345653819
1420+346246399+347437584+349003770+350736477+352656218+354860982+357409722
1406+360311955+363402186+366274236+368453848+369119476+367356707+363732967
1393+359643344+354467877+346302729+335555134+325550764+319630475+319717561
1379+326141868+337774840+353496499+372585733+393744931+415164482+434159611
1366+447979062+456101285+459854975+461023387+461100231+460839095+460261757
1352+459093767+457200203+454782649+452289637+450048062+448043254+446168849
1339+444604229+443626345+443313276+443665565+444707219+446435528+448795878
1325+451753297+455305916+459420511+463996018+468904565+474119946+479704846
1312+485665199+491900214+498299309+504741299+511076623+517176295+522883284
1298+528046310+532572657+536358820+539262379+541136392+541789339+540936737
1285+538299345+533806737+527882923+521645950+516861269+515456813+518618586
1271+526113918+536439429+547761290+558722577+568576061+577058464+584210032
1258+590166138+595099748+599133944+602371868+605252473+608201578+610684378
1244+611771578+612072989+613156093+614831235+616056097+617278128+619397102
1231+622541163+626405044+630600037+634792922+638749943+642395311+645770235
1217+648907548+651727545+654147208+656254133+658207852+660073371+661765382
1204+663228276+664574956+665912479+667123545+668125919+668981473+669781420
1190+670523531+671071228+671309983+671354987+671373663+671351915+671126594
1177+670632637+669932698+668938337+667427306+665292487+662599006+659415785
1163+655779273+651895210+648183933+645019388+642483993+640445327+638695300
1150+636953707+634940103+632499414+629583445+626141528+622113657+617515498
1136+612541704+607423621+602171671+596777601+591449620+586294606+580986507
1123+574962143+567780512+559045135+548073364+533962834+515908658+493244243
1109+465316160+431479686+391632102+346986793+300099909+254389660+213611516
1096+181127355+159062674+148004239+147519018+156526209+173247276+195428367
1082+220515006+245685446+268113772+285254618+295515576+299409037+299062291
1069+295719900+288222821+272684429+244084588+201703325+152454962+106935392
1055+72872581+52214036+43252371+44182337+54998850+77532358+114090025+165372620
1040+228721271+298500225+368086467+432005122+487231506+532858825+570373441
1026+601495108+623430275+632053654+629747977+626483906+633061269+652346272
1013+678752540+705756810+730337923+751966980+770856890+787206464+800961422
999+811999041+820538136+827190687+832435286+836235186+838397236+839021566
986+838350003+836165903+831515269+822871767+807983039+783960467+750049830
972+713135265+688352809+688404139+712358573+748394449+784787344+815605189
959+839603302+857517225+870491213+879628853+886064577+890851970+894529028
945+897203410+899091401+900584359+901780122+902498496+902735565+902636219
932+902242089+901467024+900198302+898398150+896172420+893546053+890238243
918+886003066+880896008+875014969+868232830+860387889+851579193+842067426
905+831974163+820829185+807277980+789311341+764552923+730178693+683399017
891+623258272+552260465+476829723+406802631+354650573+335050332+360392414
878+430208313+526443042+624089788+705596556+765344496+805699894+831387065
864+846525875+854650838+859345452+863698531+868867281+874039887+878131196
851+880873416+882291487+882296729+881221337+879745911+878170898+876185670
837+873488515+870408676+867385168+864249963+860588328+856435327+852186534
824+847923041+843126491+837278045+830339206+822313166+812769046+801140774
810+787662226+773976852+763028638+758032071+760368594+768185158+777555950
797+785249672+790085744+792295689+792725063+792226406+791108360+789283688
783+786953491+784506959+782054463+779457617+776517428+773400117+770463061
770+767733373+765028204+762181880+759177168+756014973+752557090+748851416
756+745469925+743120871+741745454+740519868+738934132+737127051+735255508
743+733271123+731062684+728664650+726308848+724058537+721734184+719312233
729+716998483+714800225+712636187+710611076+708745135+706611340+704261804
716+702149156+700305687+698556021+696886844+695324663+693866106+692431467
702+690922364+689347050+687838127+686491989+685257849+684036119+682801376
689+681610974+680561187+679693463+679059855+678662472+678306538+677575754
675+675800182+673735188+675138680+680061928+680718610+676441803+674877092
662+676767493+678497820+679251016+679831908+680620348+681721586+683008382
648+684212580+685433948+686928713+688667956+690523234+692433696+694322832
635+696177627+698157493+700472026+703100501+705695058+708274854+710764281
621+713069356+715549083+718654466+722117409+725444859+728603922+731843412
608+735276955+738787372+742302489+746029189+750017719+753889131+757563357
594+761472723+765715853+769837346+773680984+777642825+781952466+786358441
581+790573255+794707640+798942275+803217938+807418594+811578162+815878164
567+820168105+824100004+827936834+832178457+836662752+841027759+845424095
554+849999421+854495946+858785405+863213188+867839182+872239855+876345804
540+880529110+885081482+889728622+893992416+897965222+901998695+906081871
527+910051785+913878494+917603146+921305748+924979071+928581182+932285532
513+936059405+939578738+942778527+945894392+949006643+951977919+954833883
500+957719910+960386702+962313973+963629144+964989560+966536498+967932038
486+968993031+970036433+971641870+973836935+976067123+977907520+979115031
473+979280286+978408887+977089438+976007479+976232920+978019577+979735626
459+980079028+979246247+977483448+974705683+971055615+966538004+960627264
446+953159766+944737186+935749921+926611980+918784873+913785113+911852239
432+913205004+919607292+932068224+948236699+964745925+980201388+995259227
419+1010357912+1023985811+1035072411+1043106222+1047664198+1050332013
407+1052994769+1056547599+1061746713+1067832528+1073741823
##END=
