##TITLE=40
##JCAMP-DX=4.24
##DATA TYPE=INFRARED SPECTRUM
##DATE=16/11/2015
##SAMPLING PROCEDURE=Instrument type and / or accessory
##ORIGIN=Default
##XUNITS=1/CM
##YUNITS=TRANSMITTANCE
##RESOLUTION=4
##FIRSTX=3996.3359
##LASTX=399.24785
##DELTAX=-1.9287336
##MAXY=1.1424361
##MINY=0.027022114
##XFACTOR=1
##YFACTOR=1.0639766e-009
##NPOINTS=1866
##FIRSTY=0.11076514
##XYDATA=(X++(Y..Y))
3996+104104871+104116481+104141068+104198664+104268213+104350417+104438516
3983+104500349+104549101+104619183+104712674+104806915+104862172+104877536
3969+104934299+105088587+105265822+105360147+105381217+105391609+105445431
3956+105581610+105734119+105825559+105895991+106015700+106136355+106154001
3942+106147923+106215575+106324990+106456716+106561285+106634700+106742869
3929+106854609+106921729+107004961+107142002+107220053+107213078+107225571
3915+107293006+107324965+107332528+107429955+107565777+107601133+107586743
3902+107628632+107707236+107836364+107956717+107958986+107914120+108025699
3888+108164673+108159743+108195533+108230707+108229937+108329093+108370696
3875+108317455+108321846+108336264+108410673+108493976+108500635+108591578
3861+108722778+108791593+108787349+108709144+108720776+108906456+108989437
3848+108978562+108999282+109062235+109148157+109191706+109209801+109286325
3834+109367107+109414598+109471151+109495254+109494869+109475430+109356078
3821+109356813+109496136+109459254+109447895+109554370+109600426+109576855
3807+109566596+109652196+109640837+109611504+109779986+109887966+109867224
3794+109811413+109732522+109718657+109758852+109775917+109802163+109831042
3780+109810349+109838450+109938363+110025132+110050075+110009313+110010483
3767+110057533+110127944+110194188+110193614+110231904+110329338+110327692
3753+110182284+110128154+110328946+110464677+110220105+109994384+110000679
3740+109964042+109907657+109920443+109971877+110003669+110036126+109981275
3726+109848408+109749069+109707887+109736395+109739602+109642154+109458224
3713+109270849+109189829+109152758+109061052+108905791+108688200+108452829
3699+108205148+107920045+107660578+107389277+107001180+106555564+106257471
3686+106104283+105925668+105755183+105660536+105550820+105383983+105332759
3672+105211545+104923711+104747603+104596326+104343610+104056084+103777361
3659+103478203+103181140+103005557+102799997+102379933+101908995+101516655
3645+101149348+100737121+100313037+99912448+99487293+99007350+98549984+98112232
3630+97573096+97062993+96618098+96130964+95608522+95033043+94472004+93945368
3614+93378698+92838218+92316190+91704143+91025474+90324138+89624545+88970672
3599+88363969+87732112+87045278+86380222+85732455+84970253+84120328+83336698
3584+82613660+81876051+81139772+80442210+79749675+79023494+78283489+77531482
3568+76762627+76026488+75304018+74531556+73741406+72977418+72235655+71480028
3553+70686342+69877453+69025666+68118965+67253187+66473275+65739432+65005016
3537+64236616+63479238+62778672+62088281+61348451+60550493+59734510+58955368
3522+58232863+57533334+56817715+56085568+55384273+54738541+54090309+53418936
3506+52716053+51923466+51120949+50435666+49828577+49225155+48621644+48043266
3491+47500087+46945927+46329886+45678180+45014623+44332648+43705361+43173105
3476+42631543+42012417+41342522+40664750+40066456+39600242+39160743+38647825
3460+38111424+37605039+37111966+36635595+36175399+35690467+35186079+34735347
3445+34358489+33974678+33518306+33006123+32506867+32086198+31733250+31382718
3429+31031094+30708573+30388636+30070551+29792328+29532745+29253189+28937869
3414+28603181+28320513+28130605+27989517+27807235+27481622+27042630+26719627
3398+26617001+26551373+26380760+26177319+26082594+26077251+26038341+25948486
3383+25857604+25778832+25705657+25643080+25596401+25534297+25446987+25397283
3368+25439389+25558465+25671031+25721851+25765788+25853058+25979157+26100669
3352+26155442+26199808+26334079+26511904+26659083+26801209+26980155+27227300
3337+27523094+27774217+27978665+28212295+28460906+28681890+28922714+29243507
3321+29600958+29912355+30159098+30407630+30728779+31069017+31344835+31603097
3306+31945862+32385495+32827578+33201274+33549870+33944609+34391940+34868571
3290+35385911+35919924+36400781+36873203+37418956+37974373+38453850+38899049
3275+39383568+39878202+40350159+40887911+41551998+42267094+42956288+43622405
3260+44268158+44898219+45564962+46286631+47017542+47696323+48327336+49036554
3244+49894783+50791618+51628174+52431254+53237013+54067802+54980732+55978236
3229+56967630+57892552+58797194+59744307+60765738+61848575+62904221+63896557
3213+64908744+65973438+67057633+68148425+69252620+70387087+71544333+72696236
3198+73836410+74980057+76130770+77292624+78477937+79656590+80787752+81906827
3182+83085690+84320196+85526958+86669344+87810296+89002562+90206466+91368033
3167+92507843+93671098+94846039+95969940+97025900+98068031+99124903+100226219
3152+101425173+102658726+103800168+104844869+105857239+106840968+107820062
3138+108880350+110011974+111122128+112168916+113151273+114087966+115002608
3125+115896907+116777677+117655647+118523911+119384724+120241489+121065217
3111+121851214+122645349+123456066+124252847+125025806+125772365+126502888
3098+127218678+127868713+128420082+128925318+129464181+130040829+130600363
3084+131135991+131686323+132242650+132778138+133313345+133843594+134307991
3071+134692573+135051553+135415365+135768519+136109405+136436901+136715114
3057+136925079+137092273+137248094+137390793+137488367+137521335+137493941
3044+137423817+137346578+137257142+137089752+136840320+136562472+136239639
3030+135848026+135377145+134797611+134155559+133488381+132707159+131733353
3017+130590392+129312827+127917591+126404404+124687693+122654886+120286628
3003+117594626+114519507+110949248+106779920+101936648+96343926+89903871
2990+82589565+74538083+66016434+57456263+49513157+42917763+38258541+35915495
2974+36101116+38806990+43725080+50292155+57840890+65789977+73646864+80918784
2959+87167298+92060665+95383985+97111640+97426371+96595858+94900835+92654337
2943+90184142+87843054+85933920+84529314+83512981+82778921+82323109+82288335
2928+82878351+84130202+85856961+87749969+89510172+90940260+91872751+92175655
2912+91878935+91098819+89931454+88503656+86988326+85578357+84442671+83638159
2897+83117615+82795496+82572009+82373584+82138514+81808616+81444727+81240945
2882+81421436+82223848+83861709+86380712+89631457+93440678+97693008+102235077
2866+106838608+111279581+115429730+119269335+122833760+126173837+129305068
2853+132205341+134892230+137386857+139662303+141725754+143621744+145394013
2839+147101704+148776623+150439273+152131559+153833494+155497825+157128950
2826+158723451+160263949+161729827+163072711+164282155+165413772+166530053
2812+167676781+168904109+170264164+171752605+173282528+174772971+176214508
2799+177596215+178882365+180061795+181122840+182057853+182882687+183618322
2785+184296956+184917440+185450308+185919929+186345490+186698504+187000497
2772+187288710+187522288+187688669+187844869+187984976+188073027+188136036
2758+188202462+188280681+188386490+188523054+188702601+188954721+189261995
2745+189575878+189882171+190198940+190547612+190921956+191297434+191674873
2731+192085477+192541527+193018094+193537616+194164444+194901858+195703850
2718+196537185+197378208+198172161+198849016+199393915+199860917+200339137
2704+200892663+201525332+202230576+203000005+203780695+204526876+205250256
2691+205965654+206663279+207342767+208001500+208620276+209199375+209738560
2677+210244174+210779885+211363606+211936963+212489607+213020921+213481074
2664+213863807+214236961+214646626+215048223+215379305+215652420+215924722
2650+216217892+216513219+216819414+217165005+217522529+217833387+218082567
2637+218310207+218532777+218721371+218908704+219139369+219374025+219618583
2623+219944357+220339205+220715915+221035513+221336554+221660745+222000216
2610+222308904+222567243+222799505+223011585+223206397+223413197+223640949
2596+223861516+224073050+224318028+224588398+224837353+225063103+225282886
2583+225500162+225716275+225938901+226152088+226323777+226467708+226638333
2569+226843859+227014245+227101526+227141300+227178736+227216452+227260792
2556+227308830+227325538+227334025+227371363+227409009+227465268+227625304
2542+227898559+228211336+228532839+228881371+229278768+229730938+230194033
2529+230629271+231029721+231382539+231713270+232066130+232422996+232766458
2515+233111335+233423202+233683558+233962891+234304659+234664395+235023152
2502+235424427+235872312+236335239+236812087+237315432+237831802+238327977
2488+238815357+239330606+239864063+240376624+240863415+241391942+241976237
2475+242514371+242994720+243511146+244067683+244596294+245093953+245630043
2461+246218960+246792807+247313911+247793420+248254582+248707397+249120605
2448+249462443+249752798+250035506+250320287+250585152+250831699+251073428
2434+251270369+251391597+251488849+251600022+251702008+251785422+251869369
2421+251969674+252101855+252285210+252524951+252817098+253167844+253589259
2407+254053642+254504020+254946947+255420181+255912575+256408357+256901423
2394+257369391+257778538+258106035+258338548+258462634+258492829+258495070
2380+258519103+258574759+258674896+258800382+258886990+258968108+259142613
2367+259355491+259523021+259605623+259671111+260122918+261147423+262205933
2353+262548807+262197782+262063052+262760537+263796247+264391886+264631879
2340+264960608+265406112+265824054+266124492+266397901+266726070+267032167
2326+267278714+267581225+268012472+268471365+268860428+269212014+269567885
2313+269904093+270244446+270641492+271086940+271544041+271995931+272426870
2299+272815625+273187938+273575433+273962872+274321628+274645063+274936763
2286+275197567+275434142+275653267+275867882+276088687+276287980+276434334
2272+276544723+276644468+276726062+276779169+276811045+276836282+276884740
2259+277013896+277283299+277708496+278258114+278888542+279559614+280166569
2245+280693975+281173456+281658567+282125835+282540416+282917631+283282493
2232+283632818+283971575+284335737+284719646+285075041+285411305+285753815
2218+286077363+286372059+286687259+287054166+287431829+287783443+288125197
2205+288479639+288848115+289234321+289624253+289980824+290320001+290683463
2191+291053171+291393777+291715279+292042076+292389516+292774097+293178342
2178+293568274+293951427+294351078+294757816+295163714+295589134+296013939
2164+296400761+296754672+297088107+297421345+297765172+298092753+298367926
2151+298601028+298856902+299150954+299447052+299731188+299989079+300234422
2137+300531751+300924792+301415197+301984282+302599725+303236119+303887219
2124+304557562+305247708+305929900+306562989+307139469+307688780+308229631
2110+308754348+309259178+309735858+310172034+310569977+310936100+311310458
2097+311709857+312118219+312522184+312944356+313406442+313887267+314347813
2083+314790544+315250305+315749113+316277499+316810732+317338138+317859578
2070+318366985+318841816+319297796+319803970+320324178+320794191+321268882
2056+321767746+322245518+322704187+323169466+323630348+324088737+324562699
2043+325026298+325460430+325869913+326262590+326675154+327115364+327559215
2029+327986653+328402382+328830043+329276360+329714329+330110087+330501391
2016+330957735+331419373+331840984+332266797+332664796+333019799+333391160
2002+333798710+334199313+334558153+334892260+335204828+335524313+335931695
1989+336292860+336563944+336850294+337159808+337461339+337748501+338056250
1975+338392150+338750878+339137560+339506092+339865184+340291193+340710760
1962+341104445+341529894+341942598+342292951+342592325+342849068+343046148
1948+343159618+343169674+342998166+342754225+342530394+342105898+341456395
1935+340657736+339759866+338930648+338407163+338385819+338909052+340049548
1921+341670197+343333422+345179470+347113666+348715184+350080071+351360731
1908+352592457+353722869+354717151+355620344+356473538+357263990+357988785
1894+358738145+359412269+359959058+360662117+361372263+361926447+362519622
1881+363140666+363722357+364292843+364909070+365514177+365890747+366305496
1867+367112866+367903933+368421508+368859141+369355316+369926110+370508360
1854+371047755+371561941+372086238+372629526+372940973+373363508+374253424
1840+374924355+375306864+375795560+376353189+376758079+377144789+377828661
1827+378325564+378671884+379291304+379829298+380186542+380623138+381176846
1813+381626468+382000882+382513695+383090259+383596378+383947095+384250447
1800+384765332+385401951+385804459+385890395+386222849+387000668+387504041
1786+387642384+387908510+388273260+388621121+389082843+389441487+389485491
1773+389603863+390165413+390606968+390917519+391159472+391203112+391560719
1759+392112243+392568615+393245708+393776952+394121899+394857338+395711288
1746+396318664+396748118+397106370+397630695+398274681+398170734+398050766
1732+398859928+399395458+399440862+399461982+399543296+399768695+399712899
1719+399310614+399385962+399764129+399843819+399649399+399311819+398955471
1705+398896986+398703014+397821334+397468740+397159590+396410762+396065367
1691+395393960+394471272+393546959+392015887+390724303+390337677+389633301
1678+388312279+386883080+386103945+385501864+384470580+383938468+383839003
1664+383292942+382771474+382892142+383236025+383191460+382423922+382464957
1651+384106530+384623376+384129050+384599791+385665248+386490040+387245730
1637+387941758+389163680+391303389+393121258+394350743+395882039+397734754
1624+399558113+401683508+403681232+405052197+406933538+409589897+411716776
1610+413294318+414901914+416560797+418140691+419638150+421078161+422411396
1597+423612170+424739025+425820924+426819576+427756941+428669405+429527137
1583+430343274+431190446+431889920+432141648+432717821+433940359+434380849
1570+434242058+434752854+435409416+435836713+435753383+434802460+434904138
1556+436242331+436522266+436136004+435829543+435754923+435730274+435537507
1543+435223372+434655714+434697618+435266003+434690531+433655830+433384578
1529+433007671+432214167+431604550+430868775+429801302+429125469+428280566
1516+427092900+426027892+424891346+423375427+420956344+418613393+417308812
1502+415446238+412219281+408091933+403451548+398567052+392656203+385186804
1489+377715023+372109318+368668895+366524985+364892068+363426484+361723876
1475+359218325+355285425+350338326+345149919+339289376+332350184+324870981
1462+317366148+309840532+303751453+302112177+304824893+308736982+312427761
1448+316291028+320806852+325402253+329134908+331498586+332181086+331770875
1435+331405564+330817011+329713853+328760438+328269641+328126844+328429496
1421+328966258+329833177+331772947+334261608+336597052+339014063+341705154
1408+344501480+347177670+349758233+351927072+353208908+353748583+353218319
1394+351190596+347824876+342564875+334821254+325737032+317690340+312780075
1381+312593890+317605160+326888732+339422453+354788298+371894367+388948589
1367+403973212+414838302+420979845+423764771+424650065+424559787+424195205
1354+423742754+422920792+421529379+419738483+417874677+416163975+414567050
1340+413039228+411935789+411405610+411283429+411593055+412468545+413943289
1327+415940480+418417097+421358572+424678635+428340060+432367159+436664698
1313+441198645+446068995+451158358+456311024+461508674+466671760+471679585
1300+476393946+480678236+484445624+487648043+490193789+491915247+492651806
1286+492246833+490476693+487255171+482947016+478471807+475225635+474676689
1273+477695249+484145801+492924235+502566451+511932653+520388520+527751312
1259+534076042+539388871+543804530+547549453+550696636+553282941+555454357
1246+557262591+558655432+559682795+560540359+561466548+562722867+564529980
1232+566922678+569774352+572848204+575865868+578636257+581077020+583194992
1219+585066978+586772582+588314214+589649690+590818168+591964070+593152436
1205+594262149+595215564+596131501+597131750+598082756+598874440+599522935
1192+600130086+600723345+601188036+601441305+601560629+601646341+601697320
1178+601620403+601356434+600953422+600380555+599432293+597987857+596125339
1165+593920255+591409522+588729607+586165038+583995639+582291827+580959825
1151+579864845+578827623+577620546+576084405+574190179+571895237+569124457
1138+565937499+562507747+558942930+555241871+551418406+547602673+543891082
1124+540082350+535744561+530494643+524039329+515919250+505359416+491522038
1111+473769939+451477675+423793481+390210146+351480083+309712469+267905725
1097+229629177+198545202+177429036+167449043+168302490+178751347+196972969
1084+220698115+247274949+273778340+297320480+315441727+326685853+331552534
1070+332477491+331043307+324794849+308227614+277252040+232773993+181211087
1057+132043091+93568111+69420983+58859125+60145982+73170766+99421462+140275155
1042+194997821+259527670+327082704+390818698+446717406+494142964+533979070
1028+566749406+592023116+608556038+615417110+614785421+613863657+620779909
1015+637290423+658459165+678968040+696643559+711426117+723853174+734376819
1001+743166121+750235645+755751101+760140878+763743341+766512665+768264934
988+769070455+769075609+768052616+765290911+759573108+749114840+731813707
974+707276724+680905626+664276404+666893520+687486482+716174874+743526669
961+765388051+781602215+793264872+801423605+807050262+811134670+814371655
947+816947932+818856723+820269899+821499384+822614195+823428735+823918748
934+824242211+824446126+824352123+823781777+822840462+821760777+820504738
920+818774485+816383468+813367597+809775498+805544035+800609737+794994901
907+788759916+781881422+773920049+763785132+749834873+730086478+702251337
893+663756701+612919934+551186201+484249159+421204347+373915816+356842574
880+381662881+446653486+533750786+619842516+689842318+739915131+773112120
866+794033811+806340592+812964360+816788161+820239480+824143726+827878174
853+830845307+833006191+834262006+834432028+833834960+833065741+832267279
839+831103506+829387314+827371523+825390242+823415626+821081919+818321726
825+815493916+812599106+809116303+804747029+799604503+793603516+786214226
812+776988468+766235755+755293972+746566965+742873413+745545317+752958136
798+761585426+768656575+773297324+775729572+776631560+776752621+776323335
785+775246394+773745713+772143243+770552649+768933933+767045645+764917365
771+762895020+761043482+759189255+757165566+754959809+752688732+750264664
758+747626484+745280844+743797473+742932066+742022683+740901206+739724213
744+738435514+736941107+735306761+733637795+732004289+730362324+728636272
731+726930668+725391221+723954236+722482966+720891811+719194330+717426151
717+715768724+714397059+713227684+712054668+710792971+709546512+708454278
704+707461088+706411821+705314713+704348525+703612190+702986720+702268983
690+701420327+700637718+700124849+699873205+699737635+699542235+699182694
677+698671954+697824026+696826971+697434346+699977515+700815416+699336023
663+699185944+700720349+702130500+703144362+704151893+705140097+706176143
650+707390278+708704466+710115514+711742017+713577645+715520105+717451472
636+719295783+721143400+723189106+725582531+728261774+730844214+733237807
623+735539079+737799232+740207223+743161191+746630941+750102316+753337283
609+756549002+759867777+763172602+766433003+769919392+773737590+777473270
596+781024475+784900822+789076377+793089583+796986210+800999529+805007693
582+808894293+812780052+816775164+820875034+825090923+829204351+833248592
569+837436807+841579421+845372186+848901710+852697725+857022350+861534084
555+866014334+870448760+874627171+878544022+882563390+886792500+891014832
542+895097728+899077378+903112488+907186757+910955209+914528261+918492002
528+922584197+926190525+929589690+932980115+936259507+939475707+942756612
515+946232356+949710229+953104408+956322121+959372781+962323500+964995236
501+967886125+970969389+973505107+975255079+976395547+977693434+979418533
488+980918766+981888147+982840049+984516523+986771914+988838067+990312530
474+990914640+990964386+991030379+990538966+989877362+990205979+991530419
461+992766010+992722650+991761560+989801062+986668164+983698622+980192962
447+975077494+968777973+961899984+955048548+948119019+941155318+935753192
434+933158932+933785579+938892925+949095683+962806622+977917292+992909759
420+1006180487+1018647992+1029965953+1037726380+1042737650+1046592318
409+1050616392+1054784328+1058722130+1064139662+1070154710+1073741823
##END=
