##TITLE=40
##JCAMP-DX=4.24
##DATA TYPE=INFRARED SPECTRUM
##DATE=16/11/2015
##SAMPLING PROCEDURE=Instrument type and / or accessory
##ORIGIN=Default
##XUNITS=1/CM
##YUNITS=TRANSMITTANCE
##RESOLUTION=4
##FIRSTX=3996.3359
##LASTX=399.24785
##DELTAX=-1.9287336
##MAXY=1.1244385
##MINY=0.027347095
##XFACTOR=1
##YFACTOR=1.047215e-009
##NPOINTS=1866
##FIRSTY=0.12096503
##XYDATA=(X++(Y..Y))
3996+115511176+115607650+115678285+115716405+115759150+115829151+115912877
3983+115962864+115979356+116032012+116170598+116370349+116539493+116623617
3969+116675853+116771175+116903472+117021277+117126823+117217513+117270368
3956+117334664+117457576+117587760+117641163+117664784+117739829+117810698
3942+117888647+117991866+118061035+118144326+118275158+118430094+118599608
3929+118712688+118696161+118613581+118589548+118608295+118644700+118719127
3915+118833310+118945110+119032656+119093835+119096005+119080680+119184454
3902+119366540+119460396+119515677+119562776+119540081+119496852+119565637
3888+119620078+119571769+119627932+119691893+119711074+119847790+119962649
3875+119987792+120014856+120007500+120108258+120267740+120275680+120228851
3861+120201915+120247691+120306444+120237844+120245272+120488479+120570141
3848+120468003+120427976+120527155+120689682+120758751+120748976+120798252
3834+120835917+120829542+120883955+120945724+120988384+121028041+120949381
3821+120943860+121078811+121048232+121010567+121053298+121041644+120987203
3807+121002955+121228248+121393834+121425836+121501180+121472707+121407253
3794+121385055+121310507+121244526+121235063+121257090+121317821+121356297
3780+121322858+121347390+121440905+121502817+121507911+121461281+121441574
3767+121437888+121475866+121552178+121542388+121511198+121542972+121584834
3753+121561043+121534377+121635135+121698584+121466304+121325676+121428824
3740+121371466+121182842+121108067+121179825+121226199+121202151+121056144
3726+120868644+120787750+120777306+120780337+120732839+120619375+120432743
3713+120201815+120042177+119927204+119754758+119486835+119105140+118691686
3699+118321709+117938328+117519417+117052660+116515560+115954946+115533551
3686+115294513+115114711+114981276+114850843+114565111+114174174+114026011
3672+113920871+113674184+113554729+113419444+113106007+112727799+112383022
3659+112076473+111825119+111672858+111407915+110918654+110480235+110196914
3645+109914512+109535030+109121476+108727701+108314510+107852975+107391212
3632+106897960+106277027+105721038+105251022+104696285+104082311+103458092
3618+102886927+102323203+101659655+100963222+100258187+99516348+98803345
3605+98090976+97314425+96529820+95796768+95050340+94278392+93576424+92863798
3589+91963736+90985648+90140241+89384956+88608170+87794566+86982626+86217765
3574+85470255+84645282+83711952+82758431+81910178+81128063+80273201+79351653
3559+78434979+77537742+76634621+75723261+74851245+73980887+73041304+72117287
3543+71301356+70517121+69657322+68739502+67864199+67040378+66179967+65258056
3528+64342740+63494715+62701075+61920276+61139186+60360180+59570079+58772355
3512+58001709+57270670+56553021+55766303+54884793+54068108+53404015+52765873
3497+52087088+51423357+50776001+50087672+49351628+48637021+48000458+47373219
3481+46660297+45935925+45313086+44726233+44071286+43363488+42655074+42003157
3466+41466473+41002558+40504994+39952946+39405768+38877096+38346890+37838166
3451+37351694+36827518+36262927+35740661+35273217+34785656+34244437+33707002
3435+33254777+32885565+32554299+32260264+31997854+31717889+31372401+30986886
3420+30632913+30298204+29925688+29559290+29268307+29032725+28822403+28615069
3404+28329237+27953546+27653108+27532995+27464319+27298433+27090278+27007452
3389+27019297+26964361+26821000+26662267+26537453+26469538+26443066+26401616
3373+26297669+26166215+26114118+26195221+26363284+26531652+26624511+26662605
3358+26749790+26911120+27043703+27100475+27188167+27353401+27514829+27646346
3342+27785475+27948443+28156038+28438844+28774496+29098750+29363738+29551218
3327+29712029+29965149+30351482+30769184+31112637+31384215+31658933+31975333
3312+32302237+32605197+32901598+33280076+33790877+34332338+34788086+35172512
3296+35566633+36024561+36540352+37067243+37585784+38110469+38644268+39192396
3281+39760029+40321393+40861492+41389197+41907074+42472611+43146227+43856210
3265+44533252+45223018+45940674+46620263+47262785+47990355+48850350+49727186
3250+50534476+51315150+52134809+53000169+53895688+54825443+55768214+56662064
3234+57522871+58471860+59548024+60672187+61792162+62893825+63970153+65037636
3219+66132967+67277225+68461959+69658695+70828758+71991037+73188186+74401407
3204+75622830+76868124+78110579+79361635+80669509+81984213+83258215+84557914
3188+85913278+87267483+88601219+89922063+91214875+92493764+93783197+95080542
3173+96380874+97686379+99021011+100394177+101769007+103113223+104420713
3159+105702590+106955332+108151492+109328527+110574347+111874417+113153448
3146+114407364+115638855+116810341+117940947+119095094+120261536+121398302
3132+122526773+123655913+124761816+125854087+126929041+127935325+128870348
3119+129805641+130778970+131770725+132763391+133734116+134660288+135543787
3105+136372161+137154803+137960680+138791018+139577075+140321169+141050991
3092+141751344+142425358+143092045+143744061+144342475+144856936+145345073
3078+145907146+146540009+147161162+147704381+148141349+148511624+148887179
3065+149259617+149577771+149876359+150195935+150461213+150586573+150627781
3051+150712104+150830990+150877164+150842359+150769406+150661248+150510361
3038+150276459+149918008+149472346+148969197+148372163+147668779+146891673
3024+146027099+145010798+143835968+142543376+141132752+139554635+137762053
3011+135740920+133474502+130912370+128002345+124697030+120930101+116647658
2997+111808414+106300029+99941015+92620505+84474046+75783985+66783048+57835781
2982+49592733+42761968+37899022+35427705+35618548+38439327+43542450+50403250
2966+58423406+66944629+75337440+83119621+89859362+95148117+98760117+100703131
2951+101147321+100319295+98486779+96006365+93294078+90778597+88794631+87422576
2936+86486158+85766560+85267374+85236781+85914651+87310541+89185212+91215252
2920+93104444+94581178+95491620+95793246+95474673+94612902+93334077+91744071
2905+89994369+88324437+87012102+86208942+85809333+85581949+85371781+85127720
2889+84831074+84481723+84145797+83976397+84248597+85298429+87290286+90156214
2874+93777057+98078176+102948241+108163580+113437117+118542349+123371426
2860+127873086+132026369+135857430+139425262+142806064+146008402+148956248
2847+151634961+154092095+156345735+158445500+160475967+162455679+164376396
2833+166291293+168264530+170281736+172253878+174103818+175823204+177434831
2820+178965764+180424754+181772171+183026628+184315293+185736034+187290616
2806+188952160+190693075+192431500+194067018+195588574+197013015+198302320
2793+199449957+200495087+201457203+202337258+203110835+203767291+204351732
2779+204906049+205418689+205846024+206172573+206428359+206642127+206817546
2766+206966370+207097778+207192204+207278903+207401531+207522481+207615042
2752+207707021+207828041+208017846+208310501+208679581+209077859+209494295
2739+209907116+210314445+210769299+211264252+211742187+212216137+212749495
2725+213377051+214088816+214872624+215740997+216685553+217656989+218571622
2712+219320867+219891107+220407105+220987363+221658460+222399367+223203380
2698+224044974+224861509+225650497+226453145+227255764+228021344+228745090
2685+229432722+230090501+230727477+231357011+232014434+232693429+233342556
2671+233955840+234528485+235048823+235553381+236041347+236466106+236849829
2658+237240267+237618269+237957525+238263825+238559724+238893786+239267448
2644+239626482+239962949+240288800+240570484+240776467+240948130+241153260
2631+241386792+241620864+241878443+242183890+242514380+242851814+243223057
2617+243616555+243979830+244312198+244640583+244948448+245207365+245442348
2604+245694406+245970285+246254843+246517459+246736619+246928886+247133589
2590+247372158+247618581+247846762+248077448+248304178+248496957+248693549
2577+248920706+249140208+249325474+249482765+249636612+249791968+249906286
2563+249955918+249984235+250031704+250076668+250080055+250048608+250012722
2550+249990723+250025187+250151657+250360259+250634116+250958886+251329731
2536+251743434+252197691+252678472+253137652+253562682+253971291+254350389
2523+254688705+254999303+255314141+255661109+256026831+256386434+256745810
2509+257117537+257501615+257900918+258325578+258767598+259220574+259702237
2496+260195197+260678681+261189799+261754760+262344053+262908075+263442244
2482+263991894+264559986+265109038+265653594+266223763+266812061+267419710
2469+268034701+268620835+269173189+269728759+270321154+270930198+271522280
2455+272085277+272582905+272991031+273355614+273712543+274051542+274384907
2442+274712267+275008578+275280216+275528205+275723715+275859890+275965073
2428+276045469+276097719+276141346+276181331+276234833+276345224+276531571
2415+276786105+277108684+277515301+277988910+278479110+278961683+279458515
2401+279988386+280517802+281018048+281489921+281937490+282361439+282748818
2388+283041572+283172767+283165481+283139840+283174816+283251910+283327411
2374+283349865+283269270+283155578+283161981+283287597+283407693+283506956
2361+283846923+284691206+285840793+286788324+287037764+286660801+286519447
2347+287256156+288438157+289236991+289518305+289641275+289854060+290232333
2334+290673954+291127215+291546724+291865204+292152124+292546419+293073786
2320+293610687+294028375+294328414+294622164+294993094+295432980+295875768
2307+296300968+296744923+297219158+297685709+298101661+298471168+298818534
2293+299172446+299558089+299959669+300317309+300590142+300804094+301007687
2280+301230348+301470596+301682271+301819613+301897219+301946595+301962873
2266+301949697+301926219+301903224+301929804+302084989+302400994+302867545
2253+303470556+304181538+304939819+305600998+306153950+306637235+307108140
2239+307565385+307981166+308367037+308746049+309114788+309476725+309850245
2226+310225785+310568398+310884147+311215918+311577400+311958262+312345157
2212+312720925+313089351+313467083+313838639+314187485+314537868+314917506
2199+315312910+315702026+316095950+316487370+316842677+317160076+317471783
2185+317801221+318155787+318568039+319022808+319429681+319794066+320197780
2172+320641508+321084922+321507647+321902055+322278335+322636971+322973011
2158+323315596+323683709+324037763+324339396+324608956+324876382+325144178
2145+325409014+325675131+325950411+326235596+326556979+326962686+327465180
2131+328050375+328695390+329369433+330049396+330748511+331500189+332271703
2118+332986328+333618765+334199492+334755802+335275371+335755782+336223243
2104+336684473+337131302+337558438+337960359+338338347+338731873+339169710
2091+339648982+340155289+340652718+341111841+341571676+342093636+342656235
2077+343193250+343706103+344241354+344810868+345372784+345879718+346361637
2064+346910092+347488286+348006603+348484282+348962615+349447920+349931233
2050+350415315+350913370+351424345+351912154+352344754+352766512+353213369
2037+353651063+354064994+354467599+354890807+355351837+355824536+356281553
2023+356733106+357182497+357605563+358032870+358508442+358970668+359401816
2010+359847649+360278314+360672552+361056743+361451237+361838218+362201350
1996+362553697+362850577+363108071+363465426+363817830+364113743+364426987
1983+364735280+365024391+365299700+365592483+365919700+366266241+366617563
1969+366947427+367308226+367785734+368264636+368681953+369082452+369436876
1956+369730569+370004484+370258876+370451996+370541897+370494912+370234486
1942+369904224+369606205+369064779+368248671+367293114+366281922+365369851
1929+364790461+364759299+365313104+366535118+368327074+370209756+372254538
1915+374329942+376036436+377522575+378942605+380303441+381528557+382581812
1902+383534892+384456411+385322977+386117799+386942473+387665664+388210591
1888+388917987+389670434+390283405+390917549+391537065+392103221+392682042
1875+393326915+393955509+394332273+394755539+395605713+396416926+396925539
1861+397386797+397934000+398530948+399112302+399640039+400145009+400689907
1848+401271061+401583708+402006262+402919613+403563690+403898847+404398894
1834+404997949+405382709+405698885+406383486+406938316+407318267+407946891
1821+408489483+408855547+409286809+409809310+410229957+410617792+411168267
1807+411757162+412256355+412592196+412876071+413395697+414056137+414452850
1794+414463892+414702689+415451322+415961870+416091812+416340285+416687907
1780+417015466+417461043+417804027+417811056+417887582+418433703+418839068
1767+419102453+419303599+419291247+419626462+420198794+420676529+421376896
1753+421904975+422223200+422969898+423861706+424482105+424876826+425166507
1740+425648881+426288176+426080599+425783263+426533774+427111940+427206736
1726+427228677+427236703+427354123+427159068+426574072+426527229+426893122
1713+426976932+426723536+426246000+425708758+425514955+425197413+424104800
1699+423557967+423079919+422150602+421693243+420919537+419843089+418674179
1686+416793290+415225247+414723748+413902546+412388631+410703680+409681559
1672+408876805+407654250+407004340+406844772+406190337+405542732+405612342
1659+405964547+405898266+404985398+404894985+406617303+407233034+406784156
1645+407396756+408664191+409607111+410378938+411058075+412376081+414800103
1632+416947877+418453226+420215186+422248300+424216472+426514394+428685419
1618+430192703+432284385+435242405+437613551+439358351+441112769+442892203
1605+444544996+446097444+447614290+449027461+450287781+451484922+452659240
1591+453721032+454662472+455553171+456397824+457209322+458040286+458661738
1578+458748366+459217023+460468321+460887859+460645277+461111686+461781033
1564+462224931+462085911+460930233+460870670+462232330+462545148+462150711
1551+461797084+461617538+461442916+461077507+460584945+459877064+459918728
1537+460536081+459847638+458609516+458234118+457801575+456884922+456084750
1524+455102358+453762895+452895304+451894784+450504322+449208344+447825908
1510+446011527+443155730+440334739+438710262+436591999+432998128+428343801
1497+423059286+417506606+410888263+402598628+394289102+388029651+384175325
1483+381738496+379809939+378012719+375955073+373078046+368743908+363374814
1470+357747088+351381287+343842164+335716423+327591508+319478744+312847026
1456+310861210+313546112+317664762+321691119+325994835+331024702+336092163
1443+340165648+342732021+343478406+343012139+342542287+341827349+340572294
1429+339463830+338814318+338495382+338630418+338995884+339599464+341155554
1416+343210012+345134614+347188076+349546928+352075763+354643331+357340300
1402+359819817+361455904+362044771+360933034+358122884+354589032+349617505
1389+341825613+332160345+323441184+318178241+318124511+323740199+333977315
1375+347704458+364447250+383060771+401684850+418150226+430061024+436805325
1362+439908001+440967346+440977875+440658569+440183851+439283960+437776961
1348+435845472+433850976+432041120+430332207+428617033+427309955+426679881
1335+426553154+426898187+427872184+429502580+431651920+434276518+437406401
1321+440980095+444928363+449214861+453764659+458607040+463830369+469296848
1308+474866547+480479759+486006770+491339409+496341414+500858371+504804049
1294+508121416+510705803+512410818+513079368+512509228+510435787+506770427
1281+501933652+496931362+493233730+492391866+495368242+502038551+511201666
1267+521268856+530991696+539678642+547150118+553498047+558811277+563226067
1254+566907307+569924834+572509847+574946647+576997434+578204252+578904562
1240+579919625+581226389+582437475+583882378+585991448+588730536+591830423
1227+595025817+598152398+601076068+603735928+606186388+608461031+610488254
1213+612231403+613786896+615277503+616739139+618093088+619297628+620444000
1200+621619740+622722057+623653224+624442440+625179177+625847215+626330329
1186+626584807+626723457+626861425+626972129+626907926+626584124+626036522
1173+625229037+624024382+622348395+620255091+617811575+615021318+611981195
1159+609035611+606537283+604552008+602975683+601655999+600375758+598924196
1146+597140010+594916023+592215355+589032426+585382319+581404483+577280655
1132+573025062+568634576+564276646+560026120+555602678+550540055+544455369
1119+537039614+527784521+515891936+500544927+481068341+456792688+426984531
1105+391335521+350694153+307223881+264072489+224943613+193411047+171951149
1092+161500735+161780711+171635357+189235138+212306607+238178563+263887394
1078+286623804+304072456+314778485+319145123+319332467+316628810+309288129
1065+292962655+263278208+220087329+169734078+122178311+85542704+62782274
1051+52869053+54137316+66502745+91628002+131378281+185551992+250367203
1038+319262032+385443841+444360755+494479251+536008728+570062688+597436150
1024+616352841+624416770+623811511+622777495+630194672+647954690+670857356
1011+693291479+712970577+729766074+744073887+756289932+766517515+774637336
997+780822823+785611275+789410106+792189378+793737642+794069641+793367054
984+791524926+787901400+781343617+770060047+751664320+725342120+696634061
970+678287738+680917203+703003789+733722964+763149035+786976323+804916541
957+818085552+827583285+834259740+839040053+842766201+845762726+848035946
943+849728154+851113748+852251468+853021730+853458969+853694322+853729952
930+853410077+852585800+851331002+849858950+848106694+845764433+842728237
916+839051266+834723502+829656895+823723552+816945214+809520751+801505373
903+792410900+781073316+765791079+744459615+714593630+673605038+620015811
889+555390206+485562360+420038685+371091689+353413007+379056667+446662092
876+537734461+628050939+701727760+754714746+790071542+812497583+825783275
862+832973409+837161498+841022710+845427255+849597016+852832935+855139622
849+856462437+856625904+855926447+854937964+853877937+852500652+850631317
835+848462541+846239863+843928907+841260568+838194945+834994144+831675012
822+827779592+822904854+817126439+810478043+802467902+792552283+781013895
808+769334067+760020121+755910294+758428713+766028368+775090853+782575079
795+787351920+789667942+790408208+790458523+790013430+788777357+786955377
781+785122584+783431457+781614657+779343600+776764791+774384054+772361214
768+770410430+768187241+765668593+762997009+760164975+757264869+754804846
754+753275251+752370436+751341315+749971942+748451339+746847580+745213143
741+743550077+741752401+739865308+738007015+736191866+734401305+732597425
727+730734123+728874294+727100295+725341949+723482917+721677159+720173916
714+718857191+717455318+715964996+714617194+713544474+712540396+711331131
700+709960961+708675427+707616367+706754525+705936965+705082295+704318977
687+703725614+703218310+702772762+702358176+701907733+701392517+700538473
673+699501099+700059059+702547369+703347000+701866240+701664525+703035492
660+704202012+704918885+705666437+706623046+707889968+709408636+710861051
646+712156204+713588756+715349037+717313310+719252311+721059720+722857851
633+724839996+727102857+729605453+732134687+734710764+737260659+739770313
619+742534615+745812255+749362585+752678245+755605616+758540954+761883081
606+765524877+769120798+772650866+776297671+779969576+783561399+787374630
592+791634776+795959466+799891028+803749395+807915115+812111399+816239611
579+820508123+824783181+829015039+833063965+836922616+841059593+845472561
565+849525471+853202499+857183124+861601329+866035300+870360560+874700845
552+879014550+883226259+887472061+891789580+896008005+899998704+903824856
538+907865870+912235525+916378535+920209012+924275923+928392353+932180085
525+935907485+939382798+942504199+945556275+948643356+952091235+955904807
511+959636419+962808420+965649845+968656786+971417844+973988457+976666188
498+979235662+981327714+982626567+983780394+985426784+987093892+988226432
484+989209052+990922377+993135777+994848759+995775487+995886362+995616005
471+995491583+994858549+994249193+994857297+996502662+997848187+997574187
457+996587811+995022813+991786381+987816172+983247762+977711303+971390068
444+964430449+957381925+950138516+942632889+936854133+934632594+936217229
430+942405049+953471365+967395499+981834961+995866441+1009346847+1023993602
417+1037815967+1046322940+1050605625+1053366683+1056090859+1059597306
405+1064161276+1068974089+1072124461+1073741823
##END=
