##TITLE=40
##JCAMP-DX=4.24
##DATA TYPE=INFRARED SPECTRUM
##DATE=16/11/2015
##SAMPLING PROCEDURE=Instrument type and / or accessory
##ORIGIN=Default
##XUNITS=1/CM
##YUNITS=TRANSMITTANCE
##RESOLUTION=4
##FIRSTX=3996.3359
##LASTX=399.24785
##DELTAX=-1.9287336
##MAXY=1.1376494
##MINY=0.026655382
##XFACTOR=1
##YFACTOR=1.0595186e-009
##NPOINTS=1866
##FIRSTY=0.10599092
##XYDATA=(X++(Y..Y))
3996+100036871+100025852+100075013+100227932+100432276+100582227+100614476
3983+100570821+100570476+100671147+100823855+100981731+101116522+101191603
3969+101224435+101266621+101348052+101483482+101628919+101693473+101692355
3956+101743583+101867973+101971161+102013213+102051903+102124804+102196876
3942+102262203+102348704+102420361+102461745+102545855+102669162+102738694
3929+102757273+102820477+102965014+103110043+103182670+103228385+103286139
3915+103319485+103334878+103388891+103481482+103566971+103632228+103682690
3902+103726036+103789739+103878954+103961750+104016494+104032176+104022141
3888+104054172+104157845+104243172+104252433+104252454+104289443+104344968
3875+104397068+104434050+104473528+104531198+104598607+104666803+104716035
3861+104737131+104755998+104811720+104921195+105005931+104956538+104854158
3848+104859102+104966094+105057447+105100519+105185234+105328912+105426468
3834+105455996+105467887+105487844+105524445+105556125+105573452+105612156
3821+105674523+105734014+105781825+105774477+105701758+105649433+105681766
3807+105756995+105810453+105881160+105963294+105959384+105920687+105955144
3794+106005121+105975692+105901461+105877658+105922023+105990185+106062755
3780+106129553+106145881+106107156+106073522+106074119+106089062+106109568
3767+106156992+106211779+106212299+106180795+106191561+106234513+106269744
3753+106323300+106390273+106382095+106322132+106349164+106420243+106373051
3740+106228965+106094850+106034121+106080111+106178974+106213776+106158145
3726+106081798+106039585+106025113+105995642+105921883+105825994+105753908
3713+105697370+105600525+105457929+105301023+105156241+105035578+104882715
3699+104647718+104369798+104075852+103748187+103399552+103064292+102757322
3686+102504830+102339204+102242260+102147419+102031489+101920868+101811618
3672+101684704+101553704+101422099+101260728+101046890+100783407+100486493
3659+100189044+99908051+99617332+99297016+98939992+98551429+98174575+97841305
3643+97504843+97107195+96688894+96304290+95898584+95439286+95007997+94616867
3628+94176317+93676810+93172626+92702401+92241612+91698154+91073723+90486723
3613+89969685+89436298+88823314+88176296+87559101+86956806+86351249+85750375
3597+85113251+84411600+83701308+83027729+82339974+81602651+80891676+80255599
3582+79650183+79010991+78283822+77493982+76736807+76036479+75343098+74634915
3566+73927084+73228837+72531772+71814813+71051477+70258875+69473923+68704899
3551+67949510+67178073+66381603+65610321+64882582+64162171+63433243+62707283
3535+61982863+61257030+60534086+59813843+59092932+58363119+57640277+56957378
3520+56296088+55584948+54815172+54073119+53409853+52793628+52174182+51501202
3505+50774957+50088911+49478097+48859105+48200076+47561130+46990058+46446098
3489+45870057+45291362+44734062+44136187+43463973+42812128+42297821+41875196
3474+41381100+40732605+40020473+39430210+39001832+38578067+38068160+37532564
3458+37021848+36544671+36108231+35670898+35203914+34738080+34274956+33809104
3443+33338460+32854962+32389229+31978470+31644835+31352369+31026159+30687644
3427+30392558+30087350+29721469+29355778+29060230+28812572+28529337+28221605
3412+27966927+27743132+27535968+27366334+27147356+26857647+26641895+26528617
3396+26359954+26061074+25774965+25701072+25774900+25794769+25728993+25633862
3381+25532504+25433675+25355924+25321542+25298006+25233382+25158012+25158485
3366+25253126+25363805+25430270+25470639+25534365+25654151+25773158+25819045
3350+25881413+26079818+26357396+26599303+26783844+26922412+27047985+27228778
3335+27463904+27717300+27979440+28217846+28424138+28637313+28894383+29207907
3319+29542099+29859832+30161889+30438839+30696374+30972020+31282692+31656923
3304+32103718+32537409+32896004+33232899+33606455+34020871+34487781+35000670
3288+35500089+35958754+36398155+36828354+37262305+37727950+38225024+38722973
3273+39207042+39712122+40305580+41001774+41710635+42350481+42956232+43555049
3258+44109983+44671934+45324023+46030286+46738585+47500704+48353842+49191165
3242+49937599+50684757+51485253+52266196+53019121+53857875+54809142+55775770
3227+56736456+57723414+58704240+59627086+60509312+61422873+62393246+63401768
3211+64436455+65495488+66573479+67638412+68683254+69740726+70824603+71941242
3196+73082866+74209266+75311658+76425878+77560548+78704450+79852459+80980448
3180+82094310+83227974+84352144+85434228+86530700+87692520+88874641+90020140
3165+91122343+92183154+93227237+94322773+95464911+96538268+97527979+98552519
3150+99628408+100688530+101730328+102752583+103734755+104715029+105729802
3136+106734674+107677291+108577920+109501565+110466924+111425736+112333088
3123+113172946+113954768+114730389+115551176+116399043+117220084+117989277
3109+118729118+119493726+120282074+121025741+121694714+122326585+122971142
3096+123635586+124263913+124821230+125364006+125931717+126487304+127000109
3082+127479033+127965229+128499439+129054436+129567775+130017277+130393506
3069+130699034+130988501+131301919+131623846+131937982+132226619+132467635
3055+132654913+132791953+132900907+132991072+133038510+133039242+132994054
3042+132903284+132812838+132733854+132578390+132294984+131966180+131655701
3028+131278587+130754531+130132940+129469580+128734970+127863095+126811088
3015+125595289+124251016+122782866+121160124+119298488+117123674+114595149
3001+111638856+108184717+104187802+99561202+94206927+88057258+81051929+73260875
2986+65001811+56705536+48939484+42474322+37968586+35752860+35961304+38572484
2970+43311810+49673591+57038243+64779148+72346541+79308053+85296942+89960403
2955+93104317+94785095+95154277+94380816+92716711+90506779+88136727+85941239
2939+84132056+82803042+81887582+81194806+80672143+80531586+81047098+82285110
2924+84023755+85888885+87547674+88826683+89661225+89994853+89800051+89105025
2909+87980496+86569256+85091655+83751109+82664201+81888236+81414262+81151644
2893+80962749+80716051+80374462+80004267+79675779+79484290+79663508+80485892
2878+82082623+84445551+87487191+91121885+95247557+99621186+103974576+108181587
2862+112192334+115946503+119385756+122516703+125421570+128158160+130713506
2849+133084598+135279313+137270099+139074901+140753168+142344576+143925886
2835+145552200+147191004+148828936+150473956+152072156+153568350+154979836
2822+156329158+157592887+158765607+159895361+161025930+162153814+163293427
2808+164529576+165903764+167351267+168807744+170232858+171570958+172784238
2795+173869381+174844810+175737626+176558308+177298810+177955687+178525212
2781+179022673+179497786+179935798+180286711+180591494+180880708+181103919
2768+181251733+181388956+181553140+181704104+181794620+181842621+181906486
2754+182013162+182144746+182304331+182534363+182827065+183121651+183410626
2741+183718658+184055647+184435532+184843292+185257888+185679346+186091789
2727+186505850+186979360+187550067+188211529+188958711+189795665+190659411
2714+191433892+192076537+192621464+193092526+193544251+194081485+194724143
2700+195410034+196109470+196817329+197543697+198291597+199024772+199714995
2687+200352956+200943071+201516731+202088169+202627611+203143819+203686890
2673+204231156+204749601+205287454+205825053+206288043+206661205+206992119
2660+207337393+207689121+208011330+208318011+208636183+208957800+209265649
2646+209573329+209893076+210198126+210474528+210740564+210989105+211200544
2633+211402645+211628120+211867336+212105343+212348145+212618077+212924506
2619+213253085+213602198+213966950+214308327+214600298+214862495+215132384
2606+215405411+215626695+215802609+216006805+216253869+216498134+216717632
2592+216929662+217147346+217383820+217645581+217900872+218132409+218343005
2579+218532560+218705759+218865106+219037883+219234063+219413675+219566524
2565+219699261+219797695+219871405+219926677+219938252+219912852+219896777
2552+219917535+219950361+219981808+220080327+220301105+220602020+220917998
2538+221241964+221599938+221988753+222397498+222826467+223249599+223630637
2525+223976163+224321437+224652716+224950003+225249399+225551777+225847671
2511+226166870+226502017+226845223+227217710+227608425+227990476+228378743
2498+228812704+229281334+229747629+230227341+230752747+231304579+231820872
2484+232266689+232692381+233165919+233680524+234201880+234725823+235261440
2471+235807000+236344698+236866082+237380462+237894616+238409390+238923292
2457+239433199+239920464+240358223+240774604+241207778+241598534+241889295
2444+242128103+242371750+242618884+242869647+243142462+243401241+243582246
2430+243690173+243779312+243882514+243974718+244030834+244096401+244217099
2417+244383617+244595507+244877210+245244761+245703419+246221062+246728776
2403+247196913+247646682+248092120+248527685+248955655+249379715+249788390
2390+250147080+250414101+250569256+250631813+250647199+250651334+250668464
2376+250714144+250750767+250712991+250639661+250672992+250868905+251113536
2363+251275864+251428712+251828442+252635045+253662117+254497552+254934158
2349+255090213+255155414+255280809+255614353+256180742+256829856+257420941
2336+257877265+258184340+258423345+258719225+259092430+259418914+259694316
2322+260059223+260510990+260930072+261263278+261534658+261805983+262135336
2309+262556077+263063790+263588746+264049570+264443477+264812041+265156667
2295+265480310+265829690+266212908+266575762+266889925+267173373+267440028
2282+267689665+267917841+268114148+268282270+268440238+268587601+268701689
2268+268769056+268805341+268828097+268844299+268884888+269015824+269299609
2255+269742544+270290424+270896193+271529695+272097913+272622925+273155335
2241+273664089+274085084+274439330+274790088+275154067+275515739+275877270
2228+276246059+276611556+276957026+277294761+277634887+277964128+278297503
2214+278646180+278983746+279296419+279614436+279968935+280348834+280718438
2201+281065878+281422346+281800417+282170555+282515800+282846700+283189611
2187+283561690+283931829+284276709+284647044+285058531+285450244+285821705
2174+286219015+286635256+287039852+287418822+287779679+288145007+288503417
2160+288827763+289147805+289481152+289791884+290088130+290399312+290683491
2147+290920752+291173540+291457972+291747861+292056117+292390561+292769335
2133+293234575+293790360+294409827+295056325+295697900+296342120+296996297
2120+297629574+298231658+298812251+299365026+299900615+300431562+300949627
2106+301442067+301873328+302229178+302573298+302968949+303388790+303792091
2093+304163552+304551215+304996005+305471962+305949438+306425451+306895698
2079+307360038+307837935+308352597+308899464+309433281+309912698+310364436
2066+310854710+311385011+311882485+312329667+312791926+313299133+313813259
2052+314296727+314744190+315166759+315589666+316025625+316458377+316887388
2039+317323487+317765493+318198357+318590127+318958577+319368433+319816627
2025+320249295+320667589+321081636+321476443+321886523+322337390+322792869
2012+323243877+323708132+324149126+324535241+324890556+325255603+325640650
1998+325996218+326294405+326591214+326933899+327297371+327638200+327964347
1985+328283179+328576416+328847599+329139767+329477839+329837711+330203884
1971+330572250+330935019+331313287+331729415+332153532+332557424+332967983
1958+333390609+333774980+334102420+334387949+334596520+334676910+334635196
1944+334513654+334357571+334149310+333781197+333189774+332433941+331616987
1931+330861689+330364074+330327451+330876878+332013116+333530575+335244368
1917+337048284+338743822+340240635+341609127+342901250+344121366+345246465
1904+346249628+347141376+347949217+348697848+349430053+350149459+350802511
1890+351418883+352070894+352718883+353322542+353915652+354518749+355114278
1877+355685983+356223963+356687121+357115851+357669301+358365417+359046850
1863+359614139+360119743+360669255+361282027+361874125+362397703+362887583
1850+363363090+363816629+364301727+364874867+365470340+366013917+366550743
1836+367095699+367566424+367966322+368436006+368980933+369491516+370009834
1823+370577179+371120559+371602957+372061812+372524689+372973784+373423300
1809+373908286+374406211+374857162+375241336+375634765+376090554+376519199
1796+376848383+377181983+377649277+378190153+378645802+378995744+379324619
1782+379684463+380064277+380388905+380606898+380833583+381193399+381619175
1769+382009763+382342716+382600314+382841119+383143890+383531019+384042783
1755+384630352+385179414+385732864+386376802+387040261+387615370+388111888
1742+388615917+389107204+389422296+389594553+389879491+390282849+390639570
1728+390960682+391215073+391342634+391333633+391233131+391187985+391270739
1715+391364434+391390030+391332199+391160195+390886817+390559208+390198380
1701+389833136+389480015+389090777+388667110+388160241+387474251+386629590
1688+385693653+384705623+383730166+382836871+381925519+380918052+379879138
1674+378923539+378097921+377471226+377087557+376788386+376466600+376242446
1661+376166894+376067405+375870254+375881055+376351162+376819186+376983342
1647+377291515+377951711+378675055+379315815+379984872+380961904+382455678
1634+384116506+385549018+386941025+388519888+390265691+392152472+394040210
1620+395734567+397526135+399718979+401936520+403864481+405635122+407351025
1607+408996045+410563009+412052930+413450338+414746287+415957880+417114848
1593+418205827+419213519+420175868+421122944+422022736+422822617+423477722
1580+424010216+424636209+425426189+426032885+426351043+426699776+427186337
1566+427559429+427634194+427477576+427432318+427797759+428254083+428430868
1553+428391348+428279342+428156225+427940904+427611495+427373024+427431221
1539+427636923+427554788+427120461+426653871+426230036+425691437+425055628
1526+424435571+423784122+423013326+422152069+421235822+420280196+419217879
1512+417912197+416346021+414641706+412907464+411084505+408914557+406168910
1499+402650638+398293106+393213355+387304385+380343675+373253378+367780507
1485+364483407+362555502+361037762+359489334+357739199+355397923+351856642
1472+347050325+341708897+336110406+329755521+322457160+314770883+307481580
1458+302038975+300449621+302600666+306284641+310098090+314087425+318528638
1445+322959641+326563676+328779473+329595640+329453621+328856572+328081950
1431+327240271+326485733+325984095+325829024+326028706+326600215+327726101
1418+329523829+331746967+334168268+336750097+339435016+342122663+344748596
1404+347183652+349158813+350491329+351058139+350558246+348692869+345323339
1391+340190454+332934932+324221274+316265952+311424784+311241923+316093864
1377+325135834+337443738+352398503+368919867+385535938+400173446+410737291
1364+416860063+419627144+420419402+420374031+420124309+419732287+418952799
1350+417635529+415931805+414171403+412548239+411019360+409578382+408465575
1337+407885741+407817221+408220241+409129119+410571757+412532656+414961946
1323+417798419+421015551+424596183+428491428+432679432+437164666+441926175
1310+446887563+451962448+457075953+462139699+467042581+471650819+475846614
1296+479532587+482631130+485071980+486750220+487527063+487212647+485580425
1283+482552371+478452521+474136028+470962185+470402491+473339832+479632835
1269+488203434+497629072+506764990+515010764+522237229+528443542+533638591
1256+537996038+541729435+544884628+547468482+549579220+551303533+552680464
1242+553780613+554761330+555786714+557046856+558810774+561184004+563981745
1229+566945554+569893612+572645447+575052094+577125422+578975693+580668221
1215+582171672+583466581+584631650+585780292+586960494+588086183+589082708
1202+590040079+591057643+591987054+592761817+593437906+594077315+594679540
1188+595172120+595473992+595627403+595744416+595861204+595882638+595703011
1175+595324912+594744741+593861122+592575777+590869522+588791807+586428477
1161+583889853+581430270+579358855+577744354+576476055+575430080+574452008
1148+573336163+571905001+570130732+568022188+565468488+562428564+559102182
1134+555676733+552124314+548434347+544791018+541292885+537658107+533444112
1121+528383967+522236329+514431717+504153345+490688670+473418366+451611887
1107+424442237+391467776+353381048+312165849+270744104+232712226+201758226
1094+180634024+170564757+171366761+181844562+200121335+223854987+250371402
1080+276762464+300169014+318151974+329267891+334087597+335115231+333868535
1067+327805366+311450437+280731124+236402754+184716561+135201244+96299727
1053+71736448+60910497+62235496+75559256+102186046+143368835+198256957
1040+262577511+329477136+392289963+447186903+493641960+532631489+564719153
1026+589461876+605646152+612423691+611941687+611169231+617977655+634087504
1013+654726101+674695754+691895907+706340568+718521698+728840913+737458260
999+744326766+749641190+753922805+757511453+760347730+762224779+763135569
986+763208477+762266183+759618310+754110420+744065793+727380554+703579788
972+677947821+661812882+664442304+684576956+712547274+739195399+760524487
959+776343378+787727468+795737472+801282266+805284287+808447862+811025584
945+813008002+814493507+815776095+816934470+817774883+818291767+818690624
932+819005378+819000147+818545595+817777190+816810481+815573854+813873787
918+811616332+808850208+805544641+801586838+796930782+791582210+785601485
905+779016792+771379093+761538845+747895218+728644072+701624373+664140657
891+614277619+553439699+487376634+425050340+378153502+361147912+385732976
878+450091925+536034155+620588344+689156617+738263626+770944906+791626202
864+803823197+810416553+814237372+817627885+821457536+825191833+828142872
851+830227732+831520897+831878349+831425936+830673507+829883949+828826274
837+827267185+825382598+823508980+821671704+819577899+817127767+814499245
824+811634053+808183007+803931772+798885352+792978773+785845694+777034037
810+766668693+755963279+747354933+743696695+746273854+753505383+762059554
797+769237695+774003733+776481881+777423837+777634630+777322070+776340734
783+774934044+773542993+772230758+770705761+768731050+766557305+764588614
770+762825653+761039964+759083312+756979156+754785665+752409678+749879492
756+747672950+746300689+745590846+744846237+743766565+742577081+741352324
743+739948166+738337490+736680291+735154056+733735609+732256123+730672619
729+729075839+727466795+725883741+724416013+722819233+721274828+719982507
716+718808775+717583061+716296197+715020528+713857541+712831256+711823311
702+710787745+709842132+709076820+708423853+707762222+707069200+706408638
689+705868633+705480015+705147877+704792506+704430102+704110285+703955524
675+703994510+703903712+703417994+703132156+703962725+705334198+706352326
662+707076907+707803233+708696527+709724893+710763611+711883506+713204911
648+714578579+715845078+717197762+718890065+720866294+722880103+724831579
635+726798863+728824936+730966109+733375062+736052976+738817807+741434177
621+743730955+745997354+748966339+752654787+756320338+759502084+762440353
608+765571019+768880973+772174670+775651819+779410924+783099821+786710973
594+790682558+794968842+799036907+802795056+806597141+810525915+814418855
581+818270277+822246250+826428572+830700116+834862974+838949491+843126975
567+847187558+850825937+854278333+858071529+862326647+866750815+871121595
554+875333227+879478307+883794069+888318767+892791484+896938252+900710746
540+904363808+908355702+912579879+916464942+920049934+923795932+927735170
527+931510646+934856211+938065635+941461775+944810265+948084047+951637873
513+955321988+958731010+961777629+964667855+967593523+970467997+973193279
500+975977406+978767383+980862932+982108223+983359026+984962782+986354677
486+987276606+988318136+990202498+992707819+994789866+995860312+996266257
473+996515248+996697406+996558228+996266032+996642387+997828609+998855962
459+999007517+998152533+996219790+993375244+989897139+985645284+980313983
446+974137599+967897307+961685369+954729834+947536110+941989515+939648295
432+941327772+947400982+957735273+971083216+985200072+998508748+1011731465
419+1025235913+1036401785+1044080214+1049534267+1054356561+1059799025
407+1064902488+1068152755+1070204311+1072004627+1073741823
##END=
