##TITLE=25
##JCAMP-DX=4.24
##DATA TYPE=INFRARED SPECTRUM
##DATE=16/11/2015
##SAMPLING PROCEDURE=Instrument type and / or accessory
##ORIGIN=Default
##XUNITS=1/CM
##YUNITS=TRANSMITTANCE
##RESOLUTION=4
##FIRSTX=3996.3359
##LASTX=399.24785
##DELTAX=-1.9287336
##MAXY=1.4553601
##MINY=0.2482937
##XFACTOR=1
##YFACTOR=1.3554097e-009
##NPOINTS=1866
##FIRSTY=0.51481688
##XYDATA=(X++(Y..Y))
3996+379823820+380053503+380368939+380679537+380925183+381124699+381332483
3983+381581340+381892290+382242861+382569686+382878261+383201568+383543301
3969+383906362+384289343+384642245+384911111+385180020+385480768+385734286
3956+385990135+386267927+386501876+386674259+386891542+387199677+387449985
3942+387766080+388152975+388369334+388494312+388585077+388789871+389256977
3929+389658296+389788200+389941674+390308164+390565332+390676766+390948534
3915+391393828+391683890+391837012+392087628+392280020+392341410+392633362
3902+393131427+393491629+393840486+394052535+393929448+393845675+394254162
3888+394557065+394546159+395039782+395492465+395580899+395881559+396039387
3875+396055262+396279316+396473028+396998226+397512737+397495851+397632790
3861+397960847+398184461+398084989+397678437+398076634+399488155+400046247
3848+399652931+399296510+399353503+399653327+399829272+400124611+400813705
3834+401239254+401264276+401433142+401638727+401793344+401956669+401911506
3821+402350028+403093124+403128173+403374479+403877337+403846906+403575622
3807+403714013+404430767+404644707+404672016+405338639+405655877+405634813
3794+405727249+405713529+405742465+405913397+406146290+406479712+406780415
3780+406961198+407319377+407698049+407823511+407821224+407905833+408300688
3767+408624083+408784637+408920037+408908339+409172851+409727073+409943740
3753+409742332+409952974+410896070+411403810+410945718+411228744+412077908
3740+411844091+411190134+411199852+411823731+412404514+412728656+412604777
3726+412448049+412675050+412918542+413070081+413137627+413048489+412711901
3713+412445411+412749720+413158163+413064628+412518542+411785560+411175622
3699+410545762+409559703+408444619+407305657+406074698+405100952+404865596
3686+404785780+403958296+402882746+402403239+402354470+402433538+402993652
3672+403061814+402610143+402984417+403509439+403611990+403754690+404002095
3659+404052667+404152843+404821224+405283230+405180503+405571928+406379932
3645+406678172+406358472+405964584+405758735+405636968+405498401+405333362
3632+404940354+404370917+404530415+404768366+404113045+403128173+402430371
3618+402222412+401931735+401050160+400086396+399226546+398331911+397546071
3605+396652711+395531383+394445983+393449237+392333230+391134418+390041278
3591+388850689+387344136+385954427+384894620+383701041+382270390+380850205
3578+379476854+378067795+376619510+375112518+373444225+371811155+370581604
3564+369352009+367659045+365845940+364208385+362611068+360870017+359054713
3551+357308891+355416873+353325382+351382330+349632616+347827823+345850097
3537+343757572+341728439+339788839+337800713+335713685+333541874+331289873
3524+329059244+327002626+324977824+322780638+320466588+318163774+315926131
3510+313752670+311649548+309431189+306957200+304537829+302329320+300112565
3497+297849021+295642029+293460631+291222878+288907816+286580376+284291524
3483+281986950+279675979+277424725+275206146+272954123+270597989+268078574
3470+265514414+263167646+261111533+259078860+256892250+254704959+252639656
3456+250616261+248553398+246482378+244425914+242353882+240322286+238367427
3443+236418065+234437260+232377014+230324639+228501794+226874486+225236733
3429+223592472+222014855+220417933+218751311+217109600+215553554+214000146
3416+212359732+210721276+209206698+207772265+206356149+204910854+203300234
3402+201584667+200143748+199093154+198057028+196723607+195315934+194239746
3389+193425916+192547266+191538449+190519122+189569914+188699575+187902961
3375+187181259+186447376+185601180+184808216+184358535+184226466+184137801
3362+183956556+183755424+183610756+183512449+183372794+183187196+183202016
3348+183510756+183837240+184046189+184249971+184486492+184823432+185392209
3335+186110239+186814615+187468506+188040186+188572838+189269826+190208062
3321+191237767+192253181+193240450+194201817+195149970+196064284+196939328
3308+197865582+199020947+200488976+202066175+203494143+204753972+205971936
3294+207281918+208786557+210464394+212163294+213803290+215439855+217101113
3281+218761755+220405598+222039261+223692581+225386557+227207247+229264569
3267+231456016+233587942+235641526+237697572+239754608+241788557+243921802
3254+246242910+248613975+250911974+253230685+255702013+258289348+260870504
3240+263424022+265970064+268488842+271055816+273813380+276706761+279551836
3227+282339039+285143547+287961181+290790446+293665688+296569909+299480595
3213+302429672+305377913+308275054+311159750+314086114+317073009+320082925
3200+323075141+326051527+329009706+331930660+334832441+337741192+340670237
3186+343605440+346512871+349413311+352335562+355245984+358106802+360914718
3173+363688882+366458297+369245764+372023512+374736265+377390970+380031692
3159+382667531+385261023+387741366+390142597+392638595+395240794+397770345
3146+400161198+402466387+404716299+406964188+409276237+411602798+413836528
3132+415946202+417973775+420016255+422095366+424095630+425975533+427819684
3119+429676588+431565287+433510977+435438594+437253765+439013571+440776500
3105+442486922+444119376+445740176+447389780+449012296+450560581+452022542
3092+453407546+454792902+456191055+457527511+458781161+459963922+461113395
3078+462336965+463658513+464941055+466077423+467071794+467966649+468847959
3065+469777686+470714538+471594397+472406842+473149234+473789911+474332567
3051+474853236+475377158+475807677+476106138+476344441+476571573+476773992
3038+476893825+476885162+476747651+476478302+476089515+475571574+474871618
3024+473971222+472881468+471600905+470066868+468181820+465927423+463343826
3011+460375576+456881425+452764934+447979094+442438769+436030722+428705612
2997+420443695+411102842+400407504+388177558+374382967+358878746+341286970
2984+321251549+299003990+275828727+253814502+234684687+219346166+208428950
2970+201314174+195971035+191600652+189735085+192602983+201215010+214420198
2957+229314591+242647924+252411336+258086336+259569691+256682114+249619559
2943+239709028+229849881+223357929+221927124+225054499+230980224+238025365
2930+245480224+253361820+261678530+270262303+278987038+287730046+296229342
2916+304034685+310581254+315482112+318700779+320505133+321352054+321685256
2903+321799878+321849152+321725295+320921711+318781056+314937587+309484069
2889+302405991+293185587+281719184+269212435+258253486+252215887+253346890
2876+261031388+272643349+285794514+299241589+312459465+325196228+337264455
2862+348484661+358777031+368284484+377354603+386417663+395766168+405343256
2849+414821576+423824302+432097785+439558250+446242815+452276851+457793606
2835+462884986+467661372+472250509+476711547+481051345+485261986+489314537
2822+493184502+496845979+500308908+503604774+506722848+509692504+512613788
2808+515542680+518460842+521344923+524175222+526906180+529509038+532000331
2795+534379839+536594526+538602750+540427288+542095450+543587754+544928211
2781+546223814+547517437+548743910+549852441+550838017+551718800+552541711
2768+553325704+554060577+554765502+555480981+556241579+557030981+557813259
2754+558582520+559283180+559846592+560293250+560664578+560980805+561285730
2741+561646548+562170383+562990172+564156355+565584367+567084323+568452792
2727+569590875+570554859+571507498+572576539+573835862+575367700+577145360
2714+578995008+580752396+582339072+583740611+585002220+586204111+587381596
2700+588516116+589585861+590568139+591458113+592270162+592987664+593582343
2687+594067919+594455870+594725747+594890654+595035905+595320997+595904594
2673+596811323+597929484+599139950+600393073+601641402+602825746+603960003
2660+605090038+606216731+607307188+608340390+609345051+610352307+611355517
2646+612330451+613268270+614211146+615174295+616092632+616924558+617708243
2633+618514752+619347206+620130275+620828384+621489818+622164884+622815059
2619+623375789+623862289+624306044+624706088+625098261+625532693+625991225
2606+626413520+626800240+627213124+627643643+628029263+628373942+628725393
2592+629089422+629419369+629709606+630013960+630356264+630720864+631087487
2579+631478604+631947777+632509122+633118841+633730011+634343511+634974514
2565+635612596+636235420+636830011+637389245+637908287+638402966+638892060
2552+639383748+639859254+640293863+640717521+641192279+641746369+642356396
2538+643007539+643709474+644442016+645170995+645898656+646648172+647413563
2525+648179922+648958462+649751998+650565234+651430406+652333616+653197380
2511+653996061+654810133+655707978+656628383+657490784+658317433+659148347
2498+659993246+660831988+661617960+662332252+662996940+663657626+664334715
2484+664998875+665630933+666260352+666930625+667638980+668356219+669073721
2471+669785154+670482032+671179745+671895445+672615937+673340255+674103668
2457+674917212+675732032+676475787+677153448+677853228+678605207+679353008
2444+680067608+680758857+681436605+682115497+682809033+683507142+684170642
2430+684782251+685377810+685981372+686571477+687127854+687662023+688193641
2417+688717476+689213957+689668267+690100193+690558373+691078865+691646939
2403+692218399+692783263+693321257+693827678+694332779+694890782+695512198
2390+696111407+696558021+696797994+696901776+696981811+697104327+697283922
2376+697503711+697758372+698100457+698574775+699111802+699641398+700254151
2363+701071345+702121345+703409340+704799577+705979656+706645839+706376534
2349+705220069+704201424+704506261+706084713+707717167+708746982+709333702
2336+709710922+710053095+710601072+711364704+712020949+712459031+712971960
2322+713768794+714647466+715256920+715533086+715756437+716211846+716917167
2309+717712769+718470948+719157360+719810878+720478160+721146982+721790737
2295+722413912+723026577+723631151+724222224+724779084+725276225+725708019
2282+726113824+726550192+727014704+727446982+727819145+728169585+728543815
2268+728944211+729354105+729768793+730186339+730611625+731065363+731551335
2255+732040913+732520288+733005732+733491001+733974598+734413032+734865671
2241+735356216+735880139+736422091+736987570+737607008+738267606+738911933
2228+739503753+740067957+740648168+741252214+741852478+742423190+742972443
2214+743518881+744027852+744447113+744818265+745193199+745556787+745935327
2201+746419320+747064615+747832425+748658458+749513691+750379478+751219672
2187+752000323+752728115+753441659+754184579+754935151+755617825+756253797
2174+756919760+757591791+758229610+758870683+759514834+760138317+760765758
2160+761401993+762065406+762792143+763534183+764227499+764893814+765563383
2147+766224245+766868748+767499794+768124421+768739108+769321694+769884139
2133+770482116+771131544+771781676+772395045+772989328+773599970+774234007
2120+774870331+775495397+776111931+776740603+777393813+778057226+778715537
2106+779364965+780003488+780635678+781307709+782057050+782827586+783535326
2093+784157050+784726883+785293813+785836293+786288272+786638756+786926707
2079+787179829+787393285+787579741+787772529+787962415+788111227+788208677
2066+788366021+788786337+789401113+790057049+790788272+791594956+792414481
2052+793198298+793944296+794665229+795364437+796018615+796566988+797032863
2039+797458193+797846759+798256433+798709556+799228289+799858896+800608060
2025+801434885+802299089+803163821+803977805+804790118+805675079+806475606
2012+807160479+807873584+808558192+809134269+809657576+810210347+810782818
1998+811316679+811803838+812204278+812615624+813247902+813783610+814148341
1985+814564524+815019845+815489063+815938139+816375342+816843680+817349924
1971+817816591+818141657+818490294+819048605+819502871+819772704+820071208
1958+820340514+820489766+820599792+820697154+820714040+820603750+820367163
1944+819941129+819710610+819862677+819876749+819891525+820185017+820671824
1931+821242360+821842888+822538051+823330047+824460126+825872879+826911841
1917+828225738+829769889+830696626+831371912+832192668+833157224+834019493
1904+834720988+835419845+836135852+836768569+837342008+838088534+838728464
1890+839129959+839935500+840738314+841149484+841625209+842174462+842719405
1877+843326441+844041392+844700055+844907971+845349132+846653705+847711401
1863+848136819+848554673+849176572+849891260+850560829+851128991+851652562
1850+852198208+852773758+852885807+853386686+854821515+855507970+855616590
1836+856230926+857120108+857676132+858256607+859550890+860397152+860909377
1823+861960653+862738577+863192403+863907266+864834619+865503045+866085543
1809+866990995+867906035+868549922+868900054+869354760+870424944+871647108
1796+872188005+872142095+872881233+874510960+875256518+875195129+875609289
1782+876339368+877020283+877896888+878496448+878494249+878891875+880285366
1769+881147371+881597064+881932156+881909289+882609728+883537785+883987037
1755+884712367+884987477+884975955+886012982+887276483+887914478+888170502
1742+888367248+889080616+890140423+889685542+889564082+891602692+892771469
1728+892757397+892801900+893070062+893659860+893668919+893194864+894095216
1715+895526263+895926614+895636289+895243413+895104011+895735146+896045084
1701+895199174+895984574+896693369+896223184+896566632+896044644+895074372
1688+894314653+892773756+892600493+894129957+893994776+892322569+890785718
1674+890738048+890704803+889515181+889316940+889535498+888299174+887073405
1661+887109113+887208849+886178770+883639280+883226263+886190907+885971734
1647+883336729+882985718+883650801+883329869+882676923+881885806+882257925
1634+884503132+885757925+885596887+886128902+887337609+888401549+890097503
1620+891567600+891762674+893158629+896194512+897967687+898687388+899771205
1607+901156693+902442709+903627318+904828549+905966280+906988267+908007617
1593+909050361+909974459+910772348+911521689+912187915+912816675+913545611
1580+913990554+913627933+914214916+916134529+916167599+915097502+915608496
1566+916359595+916525734+915742709+913677889+914334529+917161618+917150624
1553+915775074+914815532+914405681+914099173+913523184+912890554+912078505
1539+912688443+913934705+912527933+910438047+910098118+909407265+907878417
1526+906881847+905739191+904119578+903486860+902477977+900728197+899215445
1512+897555198+895321953+891825559+889210344+888544996+886103660+881146756
1499+875553352+870175428+865052209+858311049+848777804+837735764+825746758
1485+812649221+798890822+785564701+773654324+763056347+752824245+741392935
1472+728921212+716963693+706289638+697873060+691614793+685102084+677538540
1458+674330493+682680536+700073280+718700676+735642100+750071827+760893462
1445+767326883+770328554+771941307+773303664+775946936+780524420+784135678
1431+785776575+787124420+788505159+789600849+790927058+792055466+793100057
1418+795509732+797903487+799041922+799902432+801030048+802162238+803164525
1404+804622396+806316504+807437260+808114041+807194340+803941482+799442537
1391+793016240+783962503+774594781+768092494+766711140+772257754+784159600
1377+798742010+812081587+822619053+830135852+835352298+839934708+844064523
1364+847205332+849778155+851536643+851983432+851672526+851170592+850385719
1350+849176572+848039281+848060653+850086423+853566634+857257575+860938225
1337+864643502+868233739+871942622+876044821+880557750+885324064+890244645
1323+895266984+900258716+905140246+909868742+914223711+918116147+921626086
1310+924507704+926542268+927781406+928324942+928436727+928422743+928469093
1296+928717202+929315267+930285628+931507792+932906384+934413596+935716235
1283+936460650+936562849+936088266+935238662+934544203+934723007+936239981
1269+938898908+942060386+945206736+948054757+950446753+952284220+953419048
1256+953758186+953224941+951537870+948465399+944020720+938258627+931313772
1242+923809903+916801108+911186508+907746843+907391610+910588003+916854142
1229+925052911+933992576+942652998+950257835+956673666+962235847+967044993
1215+971040772+974366629+977273753+980012363+982712539+985275072+987618607
1202+989877358+992129513+994201984+995904271+997328985+998698378+1000085713
1188+1001285098+1002141386+1002837604+1003598114+1004360911+1004911395
1177+1005238308+1005545256+1005867771+1005991518+1005804798+1005447982
1165+1005055194+1004547982+1003842881+1003051500+1002232063+1001258097
1153+1000003567+998428721+996499873+994000137+990656514+986531184+981932592
1140+977115617+972376567+968145521+964657922+961711220+959093191+956947105
1126+955299171+953707351+951663727+948946929+945417817+940494599+933018697
1113+921742269+905653175+883790731+855469800+821896010+787852212+760346584
1099+744068837+738423542+739660042+744793991+752614131+762310700+772463646
1086+781104455+785929961+783851157+770753708+742139285+695025479+632670468
1072+568921966+523608643+508187799+515151519+523473155+514973639+486128301
1059+447633096+416040485+404693784+419398665+459090264+517956356+587908728
1045+660568356+728635196+787365757+834761533+870598735+895734706+911586596
1032+919624591+920644907+913638487+894536465+856510785+796522836+726809251
1018+675320510+665698611+697180668+748982029+801239987+846357839+884551153
1005+916917819+943525821+964034176+978309549+986909197+990958097+991320718
991+988204095+981495477+971163815+957230042+939114212+914850360+880749482
978+831695306+763672970+679884362+596799669+540953453+533283181+575283135
964+650203097+735149708+813259159+877692314+927981319+965869268+993746487
951+1014221069+1029529688+1041113240+1049779203+1056188613+1061092219
939+1064968824+1067955631+1070170143+1071826080+1073067329+1073741823
928+1073684391+1073008402+1071870143+1070178850+1067655192+1064098464
916+1059478235+1053845078+1047319045+1040270760+1033482634+1028319397
905+1026277357+1027510426+1030112097+1031133381+1028141473+1019844464
893+1005828457+987198027+968151502+955139805+952229251+958406119+971038221
880+988813242+1009431887+1028530567+1042724498+1051387734+1055485887+1055934524
866+1052690636+1045167945+1034199168+1024024675+1020668474+1026530479
854+1038020716+1049689229+1058776388+1065068736+1068935667+1071025904
843+1072257830+1073070759+1073267065+1072752201+1071965482+1071311920
831+1070673397+1069717725+1068439361+1067203389+1066149651+1064915966
820+1063201806+1061201630+1059254401+1057309282+1054949387+1052043319
808+1049031798+1046392220+1044269792+1042682545+1041669705+1041001631
797+1040177884+1038844991+1036947189+1034759854+1032695387+1030730567
785+1028414912+1025659503+1022786152+1019925466+1016832414+1013108316
773+1008886680+1004983338+1002132767+1000267507+998576039+996280876+992836109
760+987747191+981389408+976031624+974518960+977101721+981120982+984210428
746+985906382+986455986+986108669+985184922+983988352+982761879+981483427
733+979985626+978328986+976717025+975147192+973456691+971584043+969743234
719+968016585+966396884+964794949+963134879+961450183+959817289+958288969
706+956856339+955418784+953893719+952287122+950658538+949109286+947704449
692+946408846+945135583+943890113+942749832+941727668+940818961+939962145
679+939010078+937947721+936855373+935671116+934485012+933772611+933631186
665+933459507+933135584+932729691+932234441+931784573+931436727+931165487
652+931098557+931271116+931427405+931396710+931356164+931518082+931870940
638+932253174+932571556+932951855+933547633+934310430+935087035+935805329
625+936511485+937136199+937684836+938576481+939997589+941582813+942907088
611+943883956+944807879+945958099+947170236+948234440+949413596+950970939
598+952484660+953700491+955095302+956709462+958069092+959143323+960434440
584+962014035+963441300+964690816+965946137+967257570+968805503+970269180
571+971430657+972700754+974205415+975502953+976428634+977456075+978911396
557+980511747+982034703+983619399+985102161+986251677+987375599+988769971
544+990148510+991198115+992161703+993384922+994732943+995752644+996509636
530+997410779+998199785+998583866+999068827+999698290+1000131536+1000368651
517+1000600841+1000993277+1001324587+1001426083+1001087120+1000303479+999293013
503+997791078+996248510+994982635+993423181+991041474+987482635+983369883
490+979553700+975801194+971742443+968114474+966151678+965761088+965583780
476+964613067+962398116+959040068+954859594+949808846+945596269+944737079
463+947909374+953581581+959476568+965485803+970944290+974198907+975940771
449+976732680+976972785+976946312+976465046+975901633+974919048+973369531
436+972876040+973389408+973307438+973292838+974091343+974596620+974472434
422+974644026+974637781+975583164+977471466+977343058+975542794+973779030
409+973102865+973275248+973349391+973083428+971333296+967925908
##END=
