##TITLE=25
##JCAMP-DX=4.24
##DATA TYPE=INFRARED SPECTRUM
##DATE=16/11/2015
##SAMPLING PROCEDURE=Instrument type and / or accessory
##ORIGIN=Default
##XUNITS=1/CM
##YUNITS=TRANSMITTANCE
##RESOLUTION=4
##FIRSTX=3996.3359
##LASTX=399.24785
##DELTAX=-1.9287336
##MAXY=1.5378207
##MINY=0.29545411
##XFACTOR=1
##YFACTOR=1.4322071e-009
##NPOINTS=1866
##FIRSTY=0.54338694
##XYDATA=(X++(Y..Y))
3996+379405272+379611111+379847331+380089544+380325639+380543215+380773650
3983+381037629+381309848+381553392+381755361+381984090+382276618+382595157
3969+382941205+383315928+383618070+383793071+384033036+384409548+384738741
3956+384985283+385183215+385316973+385416438+385617783+385933034+386135752
3942+386372222+386748900+387014627+387177809+387254218+387364879+387751087
3929+388184698+388371102+388529124+388895939+389119174+389094162+389226672
3915+389662072+390008661+390156486+390352837+390505198+390505656+390696721
3902+391134202+391509882+391922768+392225242+392153577+392039088+392436700
3888+392787493+392737926+393102619+393474803+393557829+393963474+394293707
3875+394373155+394524767+394594226+395012730+395478012+395400187+395475098
3861+395873501+396317475+396441453+395975297+395940422+397025968+397688933
3848+397562624+397358324+397451880+397779284+397934059+398057662+398574300
3834+399022935+399165849+399408353+399667546+399885828+400083303+399945216
3821+400191882+400851517+400888348+401116162+401705172+401862236+401643370
3807+401612365+402168206+402329598+402232755+402754553+403075464+403173723
3794+403444735+403602340+403706716+403861033+404026212+404266761+404470103
3780+404546804+404840497+405265285+405494930+405521939+405523479+405827244
3767+406129428+406334143+406566784+406603740+406798260+407317478+407626528
3753+407437377+407405623+408100924+408596087+408100383+408203428+409107190
3740+409192006+408725434+408647485+409130454+409700070+410122028+410089900
3726+409925927+410104549+410353421+410542696+410688607+410767596+410582607
3713+410263527+410408480+410855784+411004399+410680075+410049489+409538470
3699+409150388+408523007+407805025+407078469+406170213+405298538+405081378
3686+405207187+404772120+404050392+403708589+403566507+403441239+403929119
3672+404096795+403678832+404047104+404687720+404893518+405007591+405217717
3659+405298621+405405536+406063464+406537236+406280041+406283786+406841417
3645+407267121+407219843+406998564+406871548+406798260+406690263+406583390
3632+406253114+405595144+405610876+405963707+405598058+404768249+404002865
3618+403704677+403501376+402814940+402027914+401309807+400543008+399954331
3605+399340933+398452985+397519758+396682875+395733750+394675879+393772034
3591+392819871+391467058+390187533+389378783+388529332+387388226+386214118
3578+385096859+383953006+382779231+381551769+380094080+378535220+377375261
3564+376414317+375143324+373721426+372386217+371067530+369627154+368129263
3551+366709154+365093445+363180504+361432118+360016796+358618994+356994461
3537+355188602+353439342+351762996+349994883+348137106+346227599+344222226
3524+342205096+340358056+338583389+336693629+334681056+332640642+330668084
3510+328744094+326830674+324764623+322468012+320303328+318389930+316415915
3497+314336713+312315776+310333126+308265993+306083205+303927531+301865267
3483+299706659+297441012+295287252+293269623+291248414+289110553+286763501
3470+284308994+282075850+280180367+278320863+276281738+274195108+272185948
3456+270207522+268216236+266245135+264292388+262332648+260452627+258657192
3443+256807780+254875945+252865661+250884926+249136811+247559305+245946467
3429+244336188+242862415+241442764+239912016+238296702+236747663+235256139
3416+233690953+232091515+230584156+229157285+227794609+226464248+224960843
3402+223283102+221855565+220841517+219840787+218551253+217211466+216209632
3389+215447994+214609446+213667875+212717876+211779488+210911329+210190476
3375+209561763+208844405+207991187+207242782+206855408+206788862+206767304
3362+206633504+206506467+206477148+206479354+206417011+206292866+206345658
3348+206706043+207129479+207442337+207726688+208049160+208488618+209145527
3335+209925040+210687491+211431192+212143099+212839481+213675927+214703730
3321+215764702+216784763+217825030+218912866+220020802+221065855+221998229
3308+222969765+224245087+225875737+227593118+229116229+230437122+231725907
3294+233108414+234658951+236398681+238196321+239935717+241659986+243426101
3281+245215438+246965717+248674588+250408616+252185010+254074354+256204058
3267+258475491+260681397+262812350+264959160+267132646+269307089+271538091
3254+273885142+276277951+278630933+281008844+283528399+286169726+288813696
3240+291423270+294009870+296552107+299134733+301914105+304828900+307685202
3227+310492770+313344473+316204895+319019912+321838134+324706005+327594498
3213+330488526+333368467+336229138+339097988+341988957+344900922+347806686
3200+350685939+353550044+356405743+359229021+362021211+364816856+367630937
3186+370432824+373198629+375946954+378673348+381372024+384070450+386749941
3173+389375412+391957643+394521312+397068585+399583021+402056173+404496322
3159+406911792+409272868+411519913+413699455+415952700+418267748+420522658
3146+422684679+424758637+426741537+428713075+430792402+432920795+434923297
3132+436772896+438549540+440344454+442189267+443961833+445573423+447123460
3119+448714283+450360623+452070471+453775492+455368562+456880770+458370837
3105+459806135+461169769+462520751+463889254+465232120+466558964+467872407
3092+469094958+470231902+471331182+472381687+473397650+474410907+475416839
3078+476463182+477582647+478651505+479549899+480313743+481027481+481749957
3065+482508225+483263414+483934202+484506898+485052626+485597314+486086317
3051+486496248+486842754+487105568+487295800+487474380+487663323+487818264
3038+487857426+487749554+487557906+487324059+487027285+486601374+485991430
3024+485214351+484268888+483120375+481743465+480100538+478169244+475969601
3011+473470688+470524264+466960946+462731210+457849621+452244557+445790873
2997+438406335+429965257+420270457+409257220+396791288+382459110+365843597
2984+346702203+325254355+302688208+281056017+262157814+246989668+236148727
2970+228963640+223482740+219035262+217253749+220487686+229764544+243729637
2957+259290837+273131722+283155778+288822935+290134984+287022070+279744446
2943+269627584+259553026+252887261+251401855+254635439+260807081+268168689
2930+275952982+284136948+292721314+301556841+310481616+319326986+327822707
2916+335541349+341999215+346861285+350049152+351797580+352602917+352970731
2903+353184145+353260013+352996159+352014032+349814306+346008754+340584642
2889+333476568+324198690+312684734+300109432+289031521+282924531+284184434
2876+292169281+304086447+317440264+330983939+344208888+356842933+368667417
2862+379515558+389382695+398481909+407153006+415742200+424481466+433382332
2849+442203501+450553436+458160253+464980960+471065206+476487154+481361793
2835+485842773+490089572+494201739+498188264+502028878+505726287+509277078
2822+512651578+515831975+518838619+521681791+524361281+526931984+529470725
2808+532016000+534567767+537088029+539520229+541830616+544038291+546179378
2795+548223288+550097983+551782653+553319789+554747596+556053798+557222163
2781+558288108+559302114+560287696+561244645+562140125+562942591+563656952
2768+564294738+564890074+565489655+566089402+566687901+567328142+568021570
2754+568726984+569357903+569831217+570190874+570514574+570784753+571032168
2741+571369477+571880122+572633853+573664881+574901415+576194216+577380102
2727+578371261+579212181+580019973+580936095+582069793+583417862+584908470
2714+586445898+587926226+589287446+590492351+591547975+592528355+593498788
2700+594482372+595433369+596268837+597001219+597701056+598362356+598927603
2687+599385768+599759408+600033999+600209708+600365398+600640905+601181140
2673+602021477+603043848+604127564+605216148+606246136+607219607+608207394
2660+609199136+610156334+611087106+611977800+612819469+613651150+614507552
2646+615362205+616173743+616974502+617788787+618574814+619313854+620014357
2633+620714985+621449448+622156901+622777374+623339083+623882314+624421800
2619+624961119+625472596+625910785+626281637+626647453+627051225+627473474
2606+627877703+628269114+628669390+629067252+629444970+629802630+630143018
2592+630473002+630798158+631133094+631485510+631834513+632181227+632555950
2579+632978740+633452387+633972895+634526031+635096105+635685948+636283573
2565+636851108+637390094+637936905+638468441+638949621+639423309+639912188
2552+640388166+640830267+641228087+641629195+642115660+642692559+643295511
2538+643879111+644460547+645094753+645782979+646484523+647195263+647909916
2525+648620491+649340138+650050837+650749800+651496249+652282983+653019818
2511+653722069+654494195+655343314+656196511+657010296+657769022+658482759
2498+659209356+659961756+660673038+661318564+661931962+662546900+663168455
2484+663772822+664358752+664945390+665553253+666193744+666851589+667527121
2471+668228665+668928668+669602203+670247605+670875361+671523135+672233168
2457+672985568+673696434+674321110+674915197+675565302+676286197+677006635
2444+677658820+678240048+678794932+679392640+680065301+680744038+681342371
2430+681886351+682445230+683007563+683538018+684045125+684547530+685054013
2417+685553421+686018536+686443699+686865823+687328150+687848159+688403001
2403+688949270+689476520+689965025+690432887+690921682+691457339+692018549
2390+692546257+692962888+693221290+693360999+693475821+693647327+693918006
2376+694285528+694722386+695201318+695726778+696314498+696922486+697521776
2363+698225525+699167242+700262693+701297300+702114249+702514857+702228114
2349+701456944+701000236+701585708+703047809+704497923+705498820+706145054
2336+706539170+706838482+707299186+707922863+708419358+708654413+708840942
2322+709243215+709838093+710362388+710696159+710997802+711436365+712007105
2309+712642769+713319633+714003239+714654551+715285636+715917470+716550636
2295+717189130+717834448+718465866+719054419+719575634+720025434+720436613
2282+720854119+721304335+721780853+722241890+722658480+723056175+723465190
2268+723872291+724263993+724654281+725056887+725484963+725952409+726438249
2255+726907194+727371643+727863477+728373372+728896086+729340726+729791941
2241+730305499+730840947+731365076+731903105+732503560+733153872+733783459
2228+734369931+734935927+735494848+736066753+736645484+737207484+737754253
2214+738292615+738817243+739292513+739714179+740119366+740526966+740955292
2201+741443629+742044834+742763565+743537814+744333121+745142245+745914413
2187+746619161+747295193+747968062+748644760+749343765+750048097+750714640
2174+751330077+751920794+752522164+753143511+753768354+754392114+755002058
2160+755576294+756170506+756855611+757582499+758272015+758933981+759579882
2147+760194237+760800851+761416788+762026731+762615284+763181529+763740450
2133+764319930+764939695+765567035+766172817+766773938+767380552+768005561
2120+768647134+769277553+769891992+770506680+771124947+771736389+772334014
2106+772931888+773552652+774178744+774795013+775457062+776171465+776861064
2093+777463600+778000796+778524010+779012181+779414121+779739652+780034802
2079+780324126+780597801+780860740+781135248+781406842+781627914+781783979
2066+781993647+782452686+783069788+783674155+784308320+785017562+785774499
2052+786520697+787237931+787936186+788605892+789214421+789724733+790180692
2039+790616509+791034181+791483315+791950428+792447339+793034143+793710924
2025+794437147+795198744+795966917+796679322+797388232+798177047+798890035
2012+799497898+800143799+800766977+801291605+801779860+802300909+802821375
1998+803297311+803738705+804066316+804391015+805008782+805583934+805977301
1985+806420359+806900956+807362825+807776086+808180606+808628492+809113334
1971+809554478+809845300+810155931+810701618+811184545+811509410+811861909
1958+812171625+812371721+812568571+812772913+812893853+812898014+812787812
1944+812468190+812363981+812729797+812951118+813048503+813332915+813778637
1931+814303182+814868179+815504508+816156652+817094124+818326996+819178486
1917+820321382+821789641+822671929+823250077+823952328+824828456+825636831
1904+826291888+826938039+827598506+828165084+828673565+829395043+830025878
1890+830388532+831171853+832001453+832443180+832938509+833500676+834029383
1877+834591050+835272077+835914648+836046076+836345388+837604395+838757945
1863+839261265+839676106+840290212+841030418+841720017+842278355+842786586
1850+843328943+843878042+843884118+844277735+845789027+846670649+846888807
1836+847517561+848387613+848840743+849234276+850405388+851235654+851763528
1823+852877042+853735191+854197560+854868681+855758127+856380889+856891783
1809+857752762+858696061+859386659+859707945+860061026+861059676+862296460
1796+862854132+862705808+863299937+864959803+865861151+865880045+866309037
1782+867084118+867830400+868760631+869367745+869258874+869466378+870779904
1769+871761407+872389330+872819903+872769546+873410952+874351670+874848748
1755+875613924+875847148+875659453+876566711+877902794+878699433+879070743
1742+879320031+880053828+881106247+880499133+880111093+882133862+883613858
1728+883924656+884123504+884423815+885014032+884938205+884220306+884928466
1715+886508677+887319882+887412688+887188787+887017740+887600965+887912263
1701+886973292+887639087+888442218+888276331+889054326+888970758+888307045
1688+887701346+886104156+885788613+887517398+887906436+886656585+885270727
1674+885306102+885414890+884336168+884287393+884788133+883767759+882597646
1661+882723247+882984770+881951079+879043442+878106137+880920883+880800693
1647+878066184+877564362+878299491+878094567+877357607+876198231+876070466
1634+878048705+879282742+879024298+879309460+880258668+881102585+882677135
1620+884127582+884211899+885367446+888295475+890135794+890892480+891940738
1607+893297463+894571453+895744729+896938147+898051328+899018598+899984952
1593+901004327+901922156+902725787+903516849+904262549+904968379+905731474
1580+906131500+905630011+906117100+908160345+908387992+907345311+907847965
1566+908748481+909118876+908324983+905835684+905989751+908886151+909372325
1553+908432522+907735016+907498380+907255501+906581050+905766433+904830875
1539+905559345+907205061+906159883+904244903+904092167+903650191+902283977
1526+901357159+900246060+898673923+898238356+897592122+896282674+895241159
1512+893963756+891878728+888384536+886049138+886213360+884764328+880548741
1499+875486991+870746444+866532106+860816880+852328109+842589153+832367187
1485+821297308+809504703+797960138+787603081+778257492+769035174+758629841
1472+747477477+737047257+727664879+720063805+714391529+708514079+701455196
1458+698318498+706352059+723214571+740996243+756707370+769775130+779542719
1445+785444307+788283441+789812212+790884608+793042217+797311323+800868191
1431+802461302+803765340+805208629+806397303+807765265+808824093+809712873
1418+812177868+814969392+816577736+817772903+819124634+820390633+821380793
1404+822695567+824135194+824896958+825394285+824800489+822197741+818243428
1391+812197761+803654887+795111681+789476194+788479958+793631685+804448280
1377+817575303+829448812+838857576+845703545+850486209+854650856+858290542
1364+860886381+863073039+864746306+865255119+864984690+864510669+863811414
1350+862761908+861816362+861949205+863845707+866875782+869955881+873162996
1337+876604333+879952032+883299481+886943744+890965061+895215023+899575105
1323+903987458+908321154+912530748+916637630+920439207+923845919+926970881
1310+929567720+931399715+932528294+933057916+933235039+933321021+933453364
1296+933748514+934337566+935241578+936350014+937592208+938926793+940079094
1283+940714757+940760869+940312816+939599912+939103250+939422955+940943069
1269+943488719+946497902+949492019+952190321+954460963+956243766+957388076
1256+957786271+957416210+956068141+953464727+949547537+944476881+938530180
1242+932162727+926115728+921283290+918517235+918535880+921637703+927347601
1229+934589101+942307619+949702187+956160781+961548561+966140035+970061720
1215+973302046+975976293+978288635+980476791+982657207+984721510+986587049
1202+988368936+990164392+991848146+993257225+994441738+995592124+996755745
1188+997732754+998379987+998850595+999377471+999978009+1000453612+1000720545
1175+1000955683+1001211214+1001277302+1001050737+1000669439+1000275406
1163+999808626+999154402+998405040+997676487+996868861+995829510+994489348
1150+992795772+990602206+987741597+984277453+980440834+976394963+972370484
1136+968779823+965852876+963353588+961064219+959190773+957802585+956446609
1123+954638086+952240927+949178058+944897049+938324174+928377464+914213337
1109+894942763+869798151+839688758+808893261+783836712+768876279+763586549
1096+764587696+769231608+776640326+786077806+796026430+804641801+809856453
1082+808768160+797412037+771328622+727314378+667973842+606427005+562551221
1069+548398372+556331469+564682279+555369900+525459105+485942488+453541270
1055+441948844+457209380+497963281+557710584+627624753+698895980+764380608
1042+819855517+863847371+896424007+918583906+932059433+938680751+939344964
1028+932810626+914877716+879255274+823168340+757659908+709133845+700776418
1015+732030454+782307025+832048647+874049778+908820313+937698249+961013695
1001+978644130+990561671+997416795+1000398427+1000281899+997124891+990777415
988+981285250+968680691+952316837+930272634+899035411+853581707+789619358
974+709625678+629300475+575019650+568321507+611118153+686047626+769352548
961+844176272+904346366+950085233+983688734+1007869738+1025283180+1038110725
947+1047713759+1054807350+1060015094+1064033997+1067221469+1069604977
935+1071287815+1072496216+1073354699+1073741823+1073502357+1072728524
924+1071617674+1070100806+1067873779+1064775202+1060840782+1056091412
912+1050568209+1044580057+1038856757+1034550861+1032857702+1033956233
901+1036234865+1037033918+1034187292+1026663544+1014150959+997458912+980172236
887+968098381+964976332+970054396+981197104+997242418+1015943501+1033306669
874+1046292194+1054285386+1058094287+1058606430+1055904217+1049433553
862+1039897773+1031066242+1028212957+1033353031+1043241060+1053199673
851+1060974873+1066337017+1069512087+1071105115+1072011790+1072669095
839+1072915552+1072558143+1071864299+1071262429+1070696100+1069804823
827+1068629383+1067584455+1066733547+1065625527+1063994211+1062150812
816+1060449246+1058766491+1056708930+1054123161+1051345787+1048895608
804+1046990116+1045633475+1044835004+1044356988+1043745795+1042670820
793+1041035342+1039093643+1037248913+1035444552+1033322651+1030938726
781+1028542567+1026143743+1023479901+1020142607+1016338200+1012959288
770+1010560548+1008937555+1007440746+1005386931+1002254727+997704204+992183082
756+987666103+986488748+988797761+992342976+995106034+996618991+997044320
743+996677338+995885860+994882466+993753221+992512358+991106858+989589989
729+988129470+986680022+985122784+983437615+981814373+980285019+978859126
716+977475849+976029896+974500459+972977348+971595319+970375348+969149135
702+967750876+966226100+964773738+963527965+962421943+961281045+960042596
689+958838524+957794345+956926790+956222874+955518542+954565172+953424192
675+952322664+951189757+950040203+949411115+949451317+949387976+949048961
662+948619553+948174248+947833485+947600844+947444862+947498216+947705970
648+947745506+947549322+947459345+947718954+948161263+948498780+948678650
635+948881326+949314563+950027801+950856818+951630817+952413223+953139279
621+953629781+954232067+955375046+956887753+958263872+959252783+960084047
608+961073125+962132203+963131352+964241036+965535086+966735330+967740139
594+968907505+970359034+971720587+972741294+973818517+975203709+976485106
581+977528037+978614499+979834303+981287331+982698325+983806095+984854685
567+985940482+986817942+987615413+988749485+990155652+991574803+993074109
554+994604545+995806287+996726530+997788604+999089479+1000294051+1001131974
540+1001915046+1003051199+1004263762+1005028522+1005581533+1006424451
528+1007210436+1007555277+1007870820+1008145161+1008187445+1008162807
517+1008277172+1008717400+1009157045+1009220720+1008858316+1008277088
505+1007467714+1006027755+1004595119+1003487099+1001933608+999441811+995906668
492+992086114+988635371+985097897+981268686+977978170+976268613+976002095
478+975894057+974850877+972326619+968848575+965286381+961307930+957850362
465+957130631+960000230+964968341+969780970+974473990+978694321+981318710
451+983054236+983709210+983186829+982360142+981947798+982174862+981754360
438+979968477+978457019+977854566+977452210+977805708+978963668+979643279
424+979631460+979531412+978433547+978048836+979415466+979519926+978296959
411+976978688+975685221+974642540+974262741+974242015+973278324+971128706
##END=
