##TITLE=25
##JCAMP-DX=4.24
##DATA TYPE=INFRARED SPECTRUM
##DATE=16/11/2015
##SAMPLING PROCEDURE=Instrument type and / or accessory
##ORIGIN=Default
##XUNITS=1/CM
##YUNITS=TRANSMITTANCE
##RESOLUTION=4
##FIRSTX=3996.3359
##LASTX=399.24785
##DELTAX=-1.9287336
##MAXY=1.4350874
##MINY=0.24881518
##XFACTOR=1
##YFACTOR=1.3365293e-009
##NPOINTS=1866
##FIRSTY=0.50925696
##XYDATA=(X++(Y..Y))
3996+381029392+381179593+381352896+381577573+381807112+382031879+382305969
3983+382666666+383067010+383419234+383708844+383991631+384304565+384641849
3969+384996972+385354770+385673413+385946879+386221237+386523201+386814372
3956+387036374+387207312+387430474+387764993+388121765+388402189+388682746
3942+389011066+389279537+389459841+389594345+389769565+390122992+390547597
3929+390800192+390960695+391236792+391530505+391704387+391928351+392325484
3915+392709193+392939579+393096470+393203011+393248990+393401198+393774115
3902+394254955+394711446+395002305+395023399+394978446+395151614+395407822
3888+395563062+395825647+396196334+396482822+396787818+397042688+397103295
3875+397139462+397308662+397682872+398113541+398325910+398479724+398757337
3861+398955123+398861247+398621407+398884438+399975939+400904395+400911575
3848+400525860+400335744+400406742+400558772+400807041+401291583+401814835
3834+402169378+402466480+402724248+402867403+402914720+402909012+403068177
3821+403461118+403808703+404229874+404771276+404978472+404850168+404858329
3807+405173493+405434963+405585476+405961024+406372784+406627252+406889525
3794+407089228+407172758+407272832+407431775+407639639+407858475+408070532
3780+408401438+408821672+409058078+409041622+409021598+409251048+409656342
3767+409999022+410184900+410226197+410314052+410579491+410753819+410678049
3753+410737140+411258073+411766474+411828775+412038156+412612248+412733060
3740+412333787+412176004+412585936+413215149+413628381+413704061+413655451
3726+413773008+414055304+414314812+414459572+414427150+414163986+413829378
3713+413800301+414104940+414267941+414028323+413552834+413073243+412531573
3699+411678217+410464253+409031900+407554192+406305443+405608399+405357989
3686+404983823+404159233+403150592+402482535+402388927+402659494+402759970
3672+402582833+402718808+403222481+403608554+403857715+404104602+404279911
3659+404450493+404833578+405258271+405461631+405790174+406507109+407093019
3645+407146178+406941524+406794266+406713279+406604151+406399631+406034787
3632+405666508+405687290+405908222+405609603+404801200+404030170+403601864
3618+403293702+402712965+401920484+401125951+400344039+399575506+398758140
3605+397781742+396691445+395614215+394588716+393578113+392524162+391319920
3591+389961374+388652152+387482339+386273192+384942698+383584419+382233633
3578+380870271+379488669+378040886+376442455+374803084+373379784+372099327
3564+370622756+368929000+367256405+365676482+364061617+362340033+360554141
3551+358724231+356815051+354862568+352969733+351156726+349325456+347387712
3537+345406977+343474986+341525714+339496213+337426485+335280698+333019517
3524+330803402+328772429+326782507+324626819+322330162+320056048+317889167
3510+315765812+313554223+311205655+308823595+306551377+304369935+302176764
3497+299969902+297779608+295606059+293416612+291151797+288840400+286602098
3483+284378601+282021605+279668734+277504484+275412904+273160509+270660692
3470+268089208+265763920+263735734+261711963+259529161+257324306+255227553
3456+253194662+251153454+249101899+247054091+245021223+243012793+241062919
3443+239180096+237265765+235224066+233157996+231308821+229707379+228146521
3429+226519125+224888874+223275526+221633770+219996406+218435102+216915005
3416+215333744+213724097+212184757+210700069+209252843+207811772+206214077
3402+204482726+203017549+201962037+200909781+199569765+198193804+197158762
3389+196382068+195532838+194552605+193557722+192612809+191744714+190964140
3375+190244753+189469709+188569148+187775574+187384506+187308960+187208350
3362+186961050+186738357+186640000+186579426+186433908+186213968+186165146
3348+186418466+186750019+186959389+187104796+187311814+187690327+188292560
3335+189002939+189700117+190367215+190981600+191568090+192263796+193148370
3321+194131635+195114834+196091432+197095814+198110230+199031573+199835605
3308+200691793+201854515+203381034+204999288+206417259+207615524+208782372
3294+210105552+211650244+213359631+215081729+216703461+218287287+219924606
3281+221583420+223200582+224791810+226430645+228152319+230005039+232057397
3267+234213418+236323506+238372228+240407973+242474089+244588435+246781985
3254+249071953+251382034+253630170+255888942+258346638+260986555+263586157
3240+266098617+268609561+271090134+273588948+276306084+279214272+282095078
3227+284901764+287694402+290483651+293275932+296093834+298937224+301809957
3213+304724522+307655745+310582819+313506906+316428071+319344710+322247725
3200+325143805+328069007+331029194+333963917+336850877+339744906+342669906
3186+345586947+348474955+351350966+354218772+357082609+359938864+362759486
3173+365539994+368302574+371054474+373772413+376450794+379109732+381731119
3159+384286593+386779765+389201092+391593164+394079691+396658444+399186847
3146+401582977+403854058+406046516+408259398+410565755+412897666+415151265
3132+417290207+419332374+421346712+423367562+425343057+427219235+429027091
3119+430840879+432707469+434648090+436584563+438407849+440164464+441930757
3105+443655931+445288032+446867153+448448726+450035339+451605941+453135961
3092+454590300+455975738+457327550+458642212+459900460+461096184+462267469
3078+463507967+464838417+466121818+467237045+468200108+469092753+470023930
3065+471017720+471973693+472834630+473623231+474356354+475007955+475559749
3051+476071851+476589172+477036654+477361049+477613243+477829403+477997933
3038+478076066+478020588+477838679+477559727+477181191+476645453+475896854
3024+474937894+473775618+472379432+470703136+468699411+466359741+463692240
3011+460627697+457035531+452789223+447822278+442090234+435475356+427910438
2997+419438736+409967046+399156878+386777892+372870357+357379332+339944542
2984+320168944+298207356+275312205+253564568+234613071+219345095+208515238
2970+201591752+196488409+192336243+190640302+193592440+202173604+215236947
2957+229940597+243125756+252816951+258486805+260025142+257254980+250346635
2943+240552399+230787130+224436910+223130899+226297123+232222961+239279501
2930+246725704+254500227+262653263+271125143+279786424+288467216+296855856
2916+304492397+310882932+315658580+318760027+320485982+321292377+321551394
2903+321549476+321544102+321462089+320703189+318579879+314783438+309447613
2889+302553628+293522284+282221197+269900810+259148529+253272617+254501520
2876+262262731+273913321+287005563+300351404+313533508+326278744+338321338
2862+349501992+359795084+369347517+378487966+387594544+396907471+406398383
2849+415816379+424820296+433125428+440609360+447300765+453310557+458787463
2835+463876112+468670245+473254016+477719249+482088510+486301505+490327373
2822+494197241+497878823+501311735+504524607+507597133+510589787+513528836
2808+516450982+519378213+522257502+525038768+527727809+530338939+532861768
2795+535265836+537490759+539464738+541214396+542844713+544386819+545819841
2781+547149800+548405774+549611219+550747050+551777320+552701361+553541873
2768+554314688+555032068+555718633+556412288+557156114+557944939+558731355
2754+559507960+560248531+560869137+561351850+561738547+562054291+562353356
2741+562722348+563257462+564085487+565256281+566666515+568152785+569542771
2727+570716643+571705973+572640539+573677901+574964245+576543365+578323661
2714+580137003+581857539+583455345+584899606+586174399+587371461+588565044
2700+589731423+590823905+591793435+592640904+593415547+594125658+594752419
2687+595288737+595726720+596044069+596243015+596396650+596659725+597219502
2673+598133955+599289586+600560544+601859107+603099784+604260500+605379696
2660+606485379+607592400+608683322+609716580+610702432+611691183+612708966
2646+613736293+614724152+615652698+616554128+617464478+618364259+619205039
2633+620011256+620822200+621606297+622340981+623039498+623701088+624313979
2619+624861937+625330915+625748785+626174638+626636212+627104030+627542504
2606+627974645+628428504+628865373+629245871+629604739+629979663+630350662
2592+630699140+631021751+631333972+631656539+631979820+632318040+632701526
2579+633130278+633596312+634115773+634724427+635393599+636043059+636652472
2565+637237534+637813811+638419745+639034375+639593349+640096666+640562656
2552+641014642+641477287+641931949+642367747+642835208+643412734+644086589
2538+644762896+645425958+646127953+646877755+647633087+648370804+649128634
2525+649938553+650768138+651578012+652371831+653190446+654046701+654888015
2511+655704445+656562127+657476357+658381712+659251658+660118838+660983967
2498+661837903+662664857+663422107+664119776+664797823+665474085+666162478
2484+666837671+667464565+668083744+668745869+669444832+670164397+670901267
2471+671658383+672410950+673119233+673806422+674526211+675289214+676082409
2457+676890856+677678075+678415256+679118411+679830930+680589072+681364964
2444+682091085+682772164+683463545+684178607+684892331+685580590+686225590
2430+686832282+687444727+688076438+688683665+689239071+689751887+690242271
2417+690726099+691199537+691641310+692064398+692537479+693120401+693766694
2403+694383688+694954034+695465155+695957903+696478122+697032056+697614176
2390+698209718+698737920+699106823+699331010+699513767+699728589+699938550
2376+700050978+700113993+700337689+700806176+701321534+701681919+701990260
2363+702578177+703694563+705229712+706799913+708139237+709039821+708933859
2349+707743264+706543572+706612830+707998045+709556784+710611806+711279461
2336+711759900+712203726+712871069+713775175+714568950+715135371+715750626
2322+716595419+717485478+718131013+718513429+718885498+719429844+720100889
2309+720788613+721441106+722042892+722620016+723229652+723874251+724497443
2295+725078760+725649864+726217222+726750864+727222072+727620185+727985387
2282+728394070+728871699+729364938+729810681+730202640+730574932+730941650
2268+731294320+731646856+732029851+732445714+732875403+733321859+733799265
2255+734298435+734797203+735275189+735724678+736205340+736655766+737118678
2241+737625340+738166252+738727322+739318405+739957474+740610324+741216882
2228+741777639+742347227+742950842+743558247+744137557+744692383+745239583
2214+745774519+746265929+746688080+747076338+747464685+747836843+748215736
2201+748689530+749310315+750047050+750864595+751745467+752642482+753495080
2187+754276947+755000393+755707070+756438454+757182682+757900241+758585423
2174+759257583+759918861+760553738+761176753+761823760+762500825+763172539
2160+763806613+764438279+765115880+765819525+766527718+767251521+767969794
2147+768642399+769265235+769870054+770472108+771061586+771644285+772228946
2133+772820029+773433143+774068555+774713511+775354275+775980589+776598787
2120+777219036+777855519+778501723+779140257+779783875+780430169+781063708
2106+781708664+782383143+783058335+783733438+784456884+785227156+785974862
2093+786652641+787283059+787888056+788420985+788831809+789137474+789385788
2079+789618225+789848343+790055628+790242042+790421766+790560818+790656879
2066+790841242+791248855+791846895+792527171+793249993+794023476+794832725
2052+795645810+796447746+797213023+797912744+798555202+799125503+799582262
2039+799959638+800351553+800785210+801244733+801783103+802455263+803225446
2025+804036390+804873825+805721160+806578306+807462478+808315789+809092484
2012+809845809+810594586+811267816+811822865+812334655+812904332+813506654
1998+814029593+814440060+814851330+815385508+815968920+816452258+816848187
1985+817250269+817699446+818166640+818614390+819053042+819511851+819969948
1971+820357938+820717476+821160052+821639465+822034680+822360414+822672947
1958+822918406+823061026+823153609+823213368+823189018+823006975+822658676
1944+822321258+822179976+822136182+822102289+822212175+822528364+822995291
1931+823546505+824140442+824801274+825674029+826804374+827973608+829221331
1917+830662603+831950107+832921777+833815849+834748097+835643596+836429834
1904+837147036+837870036+838569132+839205525+839841383+840469838+841047543
1890+841714351+842473117+843106210+843639229+844211046+844799364+845361549
1877+845927569+846465136+846840461+847219799+847992123+849020520+849861255
1863+850480166+851055106+851698724+852425024+853130542+853726709+854222801
1850+854622922+854911283+855355019+856207617+857030424+857529995+858054629
1836+858717423+859276575+859797196+860625711+861620929+862481910+863388559
1823+864326158+865081089+865745043+866449847+867152065+867834036+868608322
1809+869469125+870234402+870796319+871289290+871988832+872886740+873587263
1796+873952509+874494447+875561643+876592181+877145089+877567597+878146461
1782+878814340+879502108+880014077+880167489+880363982+881164223+882278781
1769+883095344+883529091+883783291+884242636+884974377+885624417+886154135
1755+886568615+886860099+887398915+888272383+889050326+889533753+889858149
1742+890251847+890717882+890922045+891185789+892243888+893534335+894247701
1728+894662271+895032155+895262809+895195736+894974447+895271372+896262397
1715+897098672+897319425+897193663+896996546+896882825+896731821+896420804
1701+896448454+896955606+897389709+897717227+897709467+897088326+896114425
1688+895061589+894535260+894912547+895133568+894401114+893294762+892543844
1674+892045700+891403777+890956563+890867280+890473403+889729086+889188754
1661+888722987+887718583+886188117+885263987+885759812+886069044+885212701
1647+884640973+884887503+884909801+884357517+883680630+883648253+884798755
1634+886229235+886929580+887405426+888253296+889386406+890733223+892018586
1620+892860480+893955951+896040930+898236153+899754042+900997751+902306840
1607+903600230+904844564+906093893+907302192+908398822+909431501+910463555
1593+911444680+912324125+913143453+913937540+914664732+915220851+915447848
1580+915392548+915671723+916568560+917114690+916969662+917039322+917466914
1566+917507229+916803852+915651387+915233963+916309632+917354084+917333392
1553+916875831+916435930+915915755+915100976+914044661+913199377+913214897
1539+913848704+913716787+912762152+911979126+911324002+910246459+908916678
1526+907587254+906275668+905147910+904121832+902901847+901514983+899895502
1512+897797233+895287070+892937186+891125851+888994402+885684265+881454636
1499+876730252+871492115+865465511+858294202+849483344+838792739+826522613
1485+813268151+799713643+786528038+774403386+763630992+753532095+742601160
1472+730087492+717485076+707003630+699378015+693007527+685617471+678152627
1458+676096323+684511342+700777947+719081679+736438848+751260434+762046208
1445+768279205+771166209+772567434+774312142+777602121+781583526+784609404
1431+786617588+788148946+789319249+790320354+791316998+792412647+794020086
1418+796050301+797709740+798815736+799720779+800580244+801435785+802456512
1404+803709141+805061041+806442911+807264202+806257122+803024226+798193881
1391+791827897+783552911+774453602+767569405+766087193+771746411+783611600
1377+798164001+811796107+822481627+829930863+835400812+840121718+844303629
1364+847853874+850558032+852077705+852562827+852507973+852119180+851303598
1350+850087092+848980116+849033096+851008101+854454347+858307670+861991348
1337+865478444+868972051+872725389+876875458+881394876+886146018+891013825
1323+895967970+900978664+905930580+910624995+914934541+918867247+922378425
1310+925260256+927317229+928534359+929092976+929280460+929321132+929365461
1296+929592904+930178814+931142011+932363511+933761436+935225274+936464792
1283+937165582+937219366+936674217+935742595+934984988+935154901+936656022
1269+939229066+942287233+945346112+948111636+950441005+952204443+953256922
1256+953528070+952904342+951127257+948026635+943627271+937905618+930913409
1242+923355447+916402572+910865014+907380147+906875314+909922331+916098869
1229+924233375+933103101+941742976+949406186+955926206+961597287+966496132
1215+970593577+974059089+977109763+979960198+982751588+985408474+987844607
1202+990162113+992433239+994536236+996341951+997932622+999445071+1000887235
1188+1002104009+1002998348+1003720100+1004476636+1005253776+1005851727
1177+1006237398+1006603090+1006952371+1007059492+1006847034+1006452711
1165+1006019143+1005505658+1004793272+1003974389+1003174773+1002247520
1153+1000999440+999410375+997457223+994915574+991531585+987370099+982742223
1140+977911431+973170993+968959826+965493780+962502330+959771948+957512329
1126+955789384+954150192+952036581+949226015+945588718+940498196+932824818
1113+921389808+905152102+883125848+854708369+821169952+787225975+759726650
1099+743269083+737319452+738180702+742820664+750010213+759036652+768603154
1086+776787431+781284193+779011819+765898104+737531018+690966296+629355623
1072+566306888+521336360+505719438+512213103+520360051+512207528+483955011
1059+445996494+414751323+403428830+417727565+456665290+514626402+583663255
1045+655516693+723061790+781626160+829089593+865143970+890629937+906871389
1032+915221208+916394455+909578759+891106229+854129237+795244441+726478156
1018+675686748+666373465+697694895+749017493+800779056+845575077+883615965
1005+915933505+942560967+963095375+977349871+985914110+989973470+990364493
991+987183418+980320093+969891270+955972230+937900891+913711079+879812411
978+831178140+763842023+680859997+598403675+542908219+535393159+577292008
964+651732584+735936691+813341022+877305815+927347912+965130585+993002202
951+1013527959+1028913424+1040579088+1049335985+1055872506+1060945011
939+1064980467+1068026057+1070204600+1071815161+1073046562+1073741823
928+1073690537+1072986178+1071829254+1070138776+1067597038+1064009778
916+1059348632+1053646512+1047048983+1039927978+1033087576+1027906790
905+1025801742+1026903545+1029353682+1030234732+1027178439+1018914067
893+1004956495+986381750+967364606+954278452+951165967+957054500+969387864
880+986996826+1007668592+1026898105+1041173026+1049942409+1054186577+1054810394
866+1051817071+1044567004+1033818424+1023770992+1020412512+1026148168
854+1037461074+1049038793+1058164592+1064511578+1068372394+1070428207
843+1071641145+1072482683+1072805651+1072465825+1071732925+1071040429
831+1070416612+1069456626+1068080376+1066753360+1065678671+1064409542
820+1062593212+1060547566+1058649001+1056746064+1054433285+1051583920
808+1048552512+1045822398+1043621735+1042005376+1040987504+1040333629
797+1039603850+1038417403+1036573423+1034334229+1032222491+1030234821
785+1027898674+1025134488+1022274955+1019447888+1016372597+1012640576
773+1008433959+1004560478+1001635923+999620692+997914962+995747122+992401843
760+987383746+981188745+976033915+974510852+976829250+980651089+983772850
746+985536020+986048435+985614867+984683601+983610696+982488379+981167339
733+979542239+977783261+976141571+974564279+972843654+971009218+969322129
719+967672590+965946167+964203244+962501973+960842356+959237860+957717295
706+956255597+954775347+953251303+951735198+950260032+948826341+947429843
692+946075623+944797485+943631552+942521722+941416618+940372255+939350904
679+938249904+937125713+936040411+934882059+933771604+933257316+933302091
665+933035849+932446639+931808997+931192672+930770700+930563504+930432122
652+930443182+930641637+930827516+930849457+930837862+931011789+931384259
638+931789821+932143115+932557150+933157063+933860173+934502809+935125199
625+935839637+936472551+936988534+937900980+939391487+940869240+941964799
611+942839784+943758296+944910225+946180247+947430735+948863267+950436099
598+951678828+952672707+954118796+955962151+957382909+958363767+959537816
584+960942609+962240815+963430385+964748927+966225520+967705681+969080237
571+970313243+971558202+972785767+973629981+974315341+975563689+977408293
557+979268505+980799863+982081747+983324922+984614030+985996792+987461790
544+988791749+989809087+990622885+991608024+992819178+993799589+994434734
530+995058105+995820974+996493134+996847231+997093582+997491740+997907381
517+998243015+998711368+999152428+999122459+998633948+997901048+997072800
503+996113795+994802656+993236334+991464512+988954884+985507032+981723726
490+977786472+973332878+968709550+965015169+963150051+962843940+962747254
476+961896619+960044434+956870049+952535260+947861182+944090273+943159631
463+945896880+951035834+957130225+963083156+967617291+970480124+972276653
449+973327883+973644608+973174471+972294937+971277600+969847566+968526615
436+968216223+968648274+969114309+969657406+970039777+969460289+968491562
422+968482910+969443164+970470669+971175295+971648554+971486847+970361854
409+968778050+967499199+967085075+967260250+966432448+964143752
##END=
