##TITLE=25
##JCAMP-DX=4.24
##DATA TYPE=INFRARED SPECTRUM
##DATE=16/11/2015
##SAMPLING PROCEDURE=Instrument type and / or accessory
##ORIGIN=Default
##XUNITS=1/CM
##YUNITS=TRANSMITTANCE
##RESOLUTION=4
##FIRSTX=3996.3359
##LASTX=399.24785
##DELTAX=-1.9287336
##MAXY=1.5062656
##MINY=0.27493697
##XFACTOR=1
##YFACTOR=1.4028192e-009
##NPOINTS=1866
##FIRSTY=0.53253108
##XYDATA=(X++(Y..Y))
3996+379614910+379790433+380004281+380224120+380442302+380673783+380922472
3983+381161134+381416621+381723818+382027743+382310509+382587113+382855348
3969+383149543+383484740+383782802+383984625+384221290+384535200+384792855
3956+385024846+385269243+385466011+385636392+385931947+386314222+386505636
3942+386701426+387070190+387347559+387510930+387603514+387780737+388230655
3929+388670163+388836253+388951993+389234929+389418312+389467982+389704095
3915+390171306+390500384+390653090+390866939+390995596+390939468+391064811
3902+391434679+391784450+392238617+392595059+392544667+392444859+392856750
3888+393198363+393152177+393546222+393938949+394046404+394454343+394713484
3875+394717733+394866658+394949130+395330385+395769383+395761480+395951152
3861+396383862+396741706+396737372+396254695+396377616+397627010+398319627
3848+398135903+397854200+397882370+398168875+398346565+398582592+399196348
3834+399630715+399708556+399910549+400156604+400372449+400545083+400374404
3821+400651178+401373707+401435061+401648187+402191964+402310338+402130737
3807+402221663+402880458+403076291+403005844+403546221+403829794+403854990
3794+404040710+404107418+404155814+404325813+404571443+404912589+405183117
3780+405284369+405569514+405954296+406136999+406143755+406165595+406509672
3767+406839686+407040787+407229184+407213378+407382315+407876847+408146568
3753+407961740+408025686+408830049+409346930+408865230+409027964+409895295
3740+409819367+409208628+409098028+409646054+410298305+410758463+410737303
3726+410592160+410789140+411042928+411219853+411324037+411330070+411067827
3713+410723919+410908577+411387303+411504701+411104368+410409244+409865638
3699+409432376+408712014+407833678+406862545+405703142+404725721+404553512
3686+404697211+404133422+403201549+402719424+402546876+402419238+402872173
3672+402998408+402609590+403071490+403791979+404068031+404270025+404531715
3659+404598508+404699420+405387490+405872462+405648671+405801802+406553946
3645+407066663+406997745+406736182+406581309+406490127+406399158+406319448
3632+405976135+405330087+405429257+405812467+405369390+404449414+403657670
3618+403382765+403197555+402499713+401661444+400864601+400051656+399451029
3605+398795973+397830661+396803145+395873482+394895508+393878190+392971980
3591+391910303+390435376+389112985+388279687+387360094+386137212+384891345
3578+383712227+382521043+381280316+379923042+378299190+376629705+375460955
3564+374520542+373216803+371701002+370236272+368771075+367180068+365535056
3551+363959260+362220347+360288067+358541421+357010026+355400472+353576581
3537+351649314+349841612+348114257+346289665+344378692+342396657+340292359
3524+338177523+336234429+334330977+332275924+330121637+327990741+325929081
3510+323870607+321795690+319607604+317241317+315007852+313014790+310980918
3497+308837041+306679525+304513767+302315504+300081507+297889681+295776843
3483+293582595+291249790+288961280+286816957+284711703+282490900+280042099
3470+277477473+275139144+273146487+271196530+269084733+266939688+264865323
3456+262820043+260780689+258768911+256738056+254640152+252609254+250738944
3443+248906024+246998132+244966788+242926266+241099337+239454496+237777002
3429+236069404+234480330+232967672+231365277+229687528+228106676+226612161
3416+225030395+223369981+221777656+220306723+218939103+217561030+215950052
3402+214172581+212701308+211668268+210617192+209247511+207802284+206674939
3389+205837881+204998571+204063639+203091401+202129467+201239553+200452887
3375+199748140+199034109+198221355+197473885+197071831+196983602+196907865
3362+196698585+196500840+196419431+196356037+196189203+195988888+196030973
3348+196376920+196756667+197038243+197299701+197585886+197988896+198616228
3335+199364314+200070527+200716723+201328844+201965226+202776705+203805984
3321+204882639+205891163+206879673+207920382+208991726+209978580+210864585
3308+211835293+213107993+214685043+216315417+217770353+219055056+220324930
3294+221700794+223229236+224931225+226708186+228424070+230110975+231851014
3281+233629802+235400284+237151880+238882676+240606378+242457440+244545890
3267+246736802+248896464+251069340+253265818+255428433+257584695+259850941
3254+262250879+264637900+266908033+269197181+271718383+274435141+277117738
3240+279710641+282295024+284856272+287429205+290184969+293120568+296028634
3227+298874772+301748804+304636603+307513694+310413475+313320840+316202223
3213+319097691+322021648+324965065+327924309+330866494+333776451+336671154
3200+339586422+342529478+345463378+348351113+351217773+354113347+357019629
3186+359882083+362703874+365520100+368326893+371113929+373889917+376645171
3173+379368983+382070615+384766256+387439463+390056202+392624631+395167099
3159+397673494+400092743+402380446+404619753+406976586+409442106+411849033
3146+414128493+416308146+418410978+420499151+422652121+424831094+426910557
3132+428865867+430779155+432709056+434618180+436417045+438103823+439772543
3119+441484135+443263200+445119467+446935880+448580764+450132384+451706523
3105+453275776+454790091+456280696+457785621+459263055+460683213+462025277
3092+463250070+464430165+465643486+466853408+468021478+469132400+470178654
3078+471241521+472389961+473534960+474548794+475404569+476167505+476939321
3065+477753838+478563895+479323559+480004746+480612978+481179826+481698662
3051+482172671+482618595+482987996+483268255+483496167+483676661+483804723
3038+483849040+483766016+483578426+483329609+483031165+482620040+481991030
3024+481124293+480069966+478860129+477450083+475735900+473676279+471294675
3011+468554717+465346656+461544172+457056464+451816485+445747882+438812543
2997+430982126+422085273+411880772+400284242+387201566+372322789+355244091
2984+335638157+313716669+290742490+268784334+249556342+234015285+222884967
2970+215592421+210076751+205536930+203596789+206602283+215587619+229272069
2957+244611387+258304186+268291757+274027734+275453161+272462241+265288027
2943+255224187+245169398+238519649+237017465+240184226+246290815+253612594
2930+261366339+269524305+278067202+286856621+295786594+304687462+313251922
2916+321059374+327625419+332569121+335803143+337586435+338394600+338724678
2903+338904896+338990596+338783313+337862742+335678649+331833059+326359454
2889+319247805+309968783+298366665+285651266+274477439+268295645+269447761
2876+277348795+289259915+302666401+316300415+329661055+342487116+354543593
2862+365651859+375793348+385131408+394003278+402840264+411921095+421187221
2849+430336078+439008928+446957677+454105378+460492989+466215985+471381225
2835+476122169+480597852+484919725+489122330+493213741+497171014+500936405
2822+504493727+507857129+511033153+514025071+516847585+519566638+522264404
2808+524967949+527651481+530283813+532847228+535318314+537684239+539948658
2795+542097294+544100021+545920726+547555327+549056725+550449053+551717525
2781+552888570+553998727+555060319+556069947+557000715+557844381+558608379
2768+559297086+559945216+560583531+561228219+561912848+562625731+563330967
2754+564040664+564712885+565248674+565648964+565985309+566299771+566605948
2741+566941528+567426924+568198868+569286633+570597382+571970165+573240719
2727+574312722+575208181+576053971+577013164+578199675+579627099+581223333
2714+582875312+584468444+585918685+587186222+588293066+589329632+590369937
2700+591399535+592361873+593236555+594049883+594798245+595443103+595982716
2687+596439347+596818691+597110634+597326776+597522354+597808519+598331051
2673+599161502+600236691+601410497+602566925+603667650+604713776+605740230
2660+606776286+607799341+608772725+609695506+610595766+611490801+612391274
2646+613277939+614119989+614953925+615806428+616639173+617432489+618197974
2633+618952752+619693593+620386337+621015304+621619458+622242520+622844549
2619+623366061+623834164+624276349+624678764+625076463+625507771+625947279
2606+626374593+626796935+627203429+627574657+627917205+628247601+628586792
2592+628948545+629295894+629619832+629964759+630329699+630691749+631059833
2579+631468366+631936257+632454710+633018287+633608377+634199996+634801218
2565+635406052+635993380+636576501+637143944+637665032+638152722+638613433
2552+639043806+639458670+639881735+640327489+640808424+641346677+641939741
2538+642565947+643203624+643851839+644537402+645262948+646008336+646749559
2525+647468901+648192407+648951391+649729411+650514739+651302658+652062535
2511+652804396+653580588+654405091+655244295+656074703+656892153+657671872
2498+658420659+659181045+659938627+660641781+661287022+661913100+662541600
2484+663175921+663806503+664422596+665048334+665697144+666353560+667031517
2471+667727617+668389599+669018524+669648638+670293624+670990744+671745395
2457+672518783+673273561+673960653+674587709+675229210+675911629+676595833
2444+677247404+677864985+678475554+679117268+679801132+680487630+681126454
2430+681723045+682312583+682883892+683418704+683931378+684444902+684968242
2417+685476795+685939672+686368133+686805262+687277104+687790756+688344347
2403+688917102+689474857+689965140+690425213+690917152+691464201+692045665
2390+692608180+693066893+693355862+693490383+693551015+693641007+693860888
2376+694250557+694747340+695262606+695815518+696464838+697169946+697942017
2363+698949521+700269022+701629696+702597642+703083166+703228861+702841615
2349+701937997+701275548+701736769+703305214+705030105+706232082+706869590
2336+707116452+707245661+707586765+708188072+708754282+709084466+709361580
2322+709868901+710543162+711061063+711321989+711556487+711991364+712619311
2309+713317281+714019712+714686707+715294303+715892890+716530313+717182097
2295+717824789+718469010+719101929+719690659+720209962+720649130+721042835
2282+721466027+721958647+722476250+722947965+723360790+723745487+724122791
2268+724504429+724910115+725342060+725776980+726209605+726661095+727136379
2255+727617611+728097654+728584325+729072101+729579847+730054621+730546986
2241+731053712+731557378+732085774+732667536+733295781+733925216+734518365
2228+735092139+735674411+736251924+736826377+737416042+738002563+738561551
2214+739078219+739548235+739980095+740390625+740788664+741176760+741591879
2201+742099455+742718608+743428772+744232667+745089419+745912775+746677750
2187+747395392+748076069+748767283+749508889+750260863+750953097+751582531
2174+752202789+752839107+753480353+754125509+754773809+755415141+756042791
2160+756652001+757263505+757915630+758606929+759297973+759981709+760666124
2147+761321818+761937741+762540152+763137125+763715318+764274476+764840517
2133+765439529+766065310+766683443+767287554+767914694+768565799+769206706
2120+769818465+770414843+771033061+771668274+772288021+772901735+773523182
2106+774153721+774796498+775428397+776056387+776746836+777483429+778174133
2093+778772636+779329244+779897070+780420876+780830897+781151520+781436538
2079+781706259+781967228+782230746+782486446+782713933+782908873+783059540
2066+783246577+783667475+784276770+784934248+785639313+786368597+787102981
2052+787838893+788569622+789288029+789978988+790602390+791112940+791566979
2039+792010142+792443021+792908023+793381352+793881960+794471625+795151452
2025+795898157+796692450+797492351+798232683+798963242+799781498+800545964
2012+801202252+801867802+802490524+803006258+803496243+804053616+804625521
1998+805127913+805574049+805921101+806285233+806929624+807505098+807883846
1985+808307633+808776374+809235512+809644598+810049860+810514267+811019208
1971+811468319+811750702+812048466+812593772+813088856+813433614+813804544
1958+814115565+814288411+814425311+814561786+814638607+814616343+814488195
1944+814163833+814035261+814331920+814495928+814590424+814893457+815353700
1931+815901725+816511275+817190507+817859117+818803312+820055128+820945787
1917+822136079+823634502+824542666+825167257+825924244+826839801+827667746
1904+828337545+829011594+829710031+830300376+830799454+831493472+832103022
1890+832460526+833258813+834120748+834611413+835150771+835718172+836235265
1877+836804960+837479518+838060091+838130962+838461698+839814554+841022437
1863+841526443+841929156+842536241+843273004+843960649+844517597+845016760
1850+845535978+846056215+846055450+846475584+848005279+848888204+849124784
1836+849763907+850593975+851001277+851413677+852640764+853501680+854043417
1823+855172355+856050861+856545945+857251606+858157560+858778412+859290662
1809+860168148+861117867+861781973+862069624+862422795+863454347+864714491
1796+865267361+865129016+865781225+867502887+868430765+868453964+868866534
1782+869606356+870326718+871239980+871808146+871650681+871846896+873193973
1769+874224676+874898554+875354548+875305176+875930616+876861215+877386721
1755+878184668+878398643+878168267+879065723+880421213+881221200+881552530
1742+881748831+882450497+883478140+882875899+882568872+884667413+886136349
1728+886420346+886626589+886939394+887498127+887342532+886571268+887315849
1715+888973012+889820926+889891628+889610689+889384562+889914232+890147158
1701+889148067+889838941+890723056+890632214+891409002+891222899+890405322
1688+889635333+887928713+887626869+889409036+889763481+888421162+886963868
1674+886943133+886977720+885865013+885854051+886375818+885332708+884157627
1661+884291978+884501195+883346424+880369292+879516279+882423304+882298726
1647+879634824+879304003+880131097+879892818+879079235+877913162+877929733
1634+880098551+881415885+881172762+881488542+882490097+883396561+885017863
1620+886464110+886555377+887797846+890811944+892662773+893393417+894411882
1607+895747572+897026157+898224437+899450420+900599667+901588816+902552810
1593+903575695+904531702+905374687+906149945+906841329+907524725+908310180
1580+908730823+908242282+908743740+910747784+910888254+909816167+910362493
1566+911283913+911601732+910700706+908137249+908350460+911348837+911854883
1553+910886214+910145713+909852452+909522141+908722240+907788923+906837250
1539+907669868+909366291+908263782+906314888+906165411+905671177+904201986
1526+903173152+901981161+900369461+899911768+899209676+897818665+896667973
1512+895223341+892925441+889274005+886917470+887058024+885425760+880921311
1499+875562830+870550211+866029956+859917037+850962951+840722973+829937858
1485+818216876+805723186+793479418+782448545+772460867+762650114+751751298
1472+740165942+729246222+719329501+711298535+705337600+699177772+691792727
1458+688428816+696497427+713651416+731894743+748180847+761866529+772160469
1445+778390148+781373314+782944819+784093811+786446438+790906612+794523802
1431+796116976+797452666+798943612+800147330+801482680+802488060+803341837
1418+805774768+808479290+809936159+810950886+812107611+813171285+814009427
1404+815273650+816747345+817589311+818141755+817488187+814723415+810591002
1391+804365232+795574899+786694150+780752547+779660150+785002570+796245973
1377+809916614+822344021+832225391+839398755+844413328+848789375+852618330
1364+855363556+857652959+859385583+859936667+859708245+859248088+858507756
1350+857388251+856385251+856491559+858410966+861548707+864810432+868185518
1337+871740078+875205836+878720881+882571251+886820170+891302524+895882008
1323+900498883+905031459+909447870+913777178+917813906+921447156+924749756
1310+927452153+929327370+930475343+931033651+931221453+931278049+931382232
1296+931677702+932283343+933204169+934327753+935617894+937044426+938282221
1283+938975815+939085267+938703714+938002812+937448243+937699610+939198543
1269+941784435+944861672+947908061+950645469+952953057+954755278+955906055
1256+956310722+955895433+954386557+951560347+947436771+942102934+935751735
1242+928934515+922504372+917309474+914187964+913977472+917031170+922851594
1229+930365211+938489059+946329163+953182329+958910551+963838361+968089065
1215+971624420+974572319+977154387+979599640+982014385+984288066+986347092
1202+988348248+990410248+992346650+993955036+995311631+996596504+997872964
1188+998997058+999796959+1000377956+1000996599+1001673961+1002198618+1002525360
1175+1002845388+1003178078+1003300022+1003103722+1002728458+1002324471
1163+1001843408+1001207685+1000503894+999792370+998972244+997897692+996485947
1150+994720946+992467235+989488403+985799662+981674812+977373716+973156410
1136+969379461+966262030+963618437+961220773+959204321+957646158+956180281
1123+954318744+951822590+948569193+944037466+937149714+926762298+911935952
1109+891698693+865319452+833838960+801686374+775509721+759859255+754306088
1096+755350387+760171550+767730291+777292822+787385024+796063780+801148121
1082+799683433+787633840+760467700+714944702+653775316+590427977+545075148
1069+529799011+537063642+545353920+536389424+506887823+467688830+435458276
1055+423826479+438847214+479316123+538962952+609207900+681385808+748263701
1042+805398144+851065860+885144481+908560016+922971838+930164747+931115485
1028+924688231+906612822+870267828+812636517+745122731+694890656+685614247
1015+716816690+767752386+818577184+861879868+898092636+928467984+953200769
1001+972046592+984926084+992493833+995948629+996058930+992877935+986264833
988+976300525+963086473+946010239+923131258+890875762+844137234+778599535
974+696799908+614669120+558981944+551432635+593792101+668761592+752832138
961+829113228+891144889+938902138+974468221+1000377786+1019255731+1033308774
947+1043903453+1051803977+1057664255+1062183830+1065747908+1068391245
935+1070271731+1071712030+1072826946+1073438365+1073349648+1072611271
924+1071481483+1069971248+1067717451+1064483175+1060310907+1055265231
912+1049433760+1043118507+1037011622+1032354722+1030510692+1031676000
901+1034118193+1035053805+1032213743+1024448589+1011399481+994034831+976164134
887+963762561+960718126+966251407+978014878+994730973+1014119299+1032054324
874+1045398732+1053611722+1057597377+1058177525+1055306275+1048461013
862+1038456509+1029158176+1026031567+1031283910+1041616175+1052126130
851+1060451291+1066315053+1069862220+1071710330+1072795249+1073530907
839+1073741823+1073332142+1072707041+1072252067+1071780352+1070907879
827+1069701271+1068593833+1067682185+1066538207+1064818924+1062790745
816+1060945270+1059239159+1057181068+1054558551+1051753755+1049317255
804+1047413229+1046004968+1045153060+1044630698+1043949681+1042805107
793+1041119306+1039118406+1037195005+1035332619+1033178672+1030683707
781+1028030513+1025300668+1022383870+1018980911+1015169801+1011630622
770+1009014988+1007303778+1005785725+1003650388+1000322295+995506401+989712066
756+984951493+983685485+986076691+989725408+992545755+994125163+994677862
743+994439158+993676647+992609743+991424125+990136363+988623408+986966500
729+985391766+983896656+982353704+980672407+978988135+977362329+975879627
716+974485641+973011692+971438657+969906752+968477501+967041451+965502493
702+963916287+962402822+961022263+959764073+958592732+957444334+956240275
689+955012338+953848559+952803070+951928218+951116844+950147326+949027141
675+947902453+946705022+945444963+944639623+944570196+944573850+944350867
662+943966339+943501508+943151822+942933002+942712059+942602437+942752763
648+942973622+943013477+942970818+943107463+943462248+943834623+944095507
635+944381714+944866940+945500369+946146205+946816939+947606643+948364990
621+948971905+949746823+950948927+952362372+953630080+954647186+955550166
608+956533026+957581064+958611002+959823218+961329715+962678152+963612829
594+964691544+966289478+967991934+969295417+970370054+971537232+972694977
581+973842695+975113632+976470991+978007485+979442260+980552587+981658071
567+982893062+983945434+984752218+985746890+987214552+988892704+990410248
554+991773811+992977190+993976535+995060690+996398929+997711505+998739998
540+999679264+1000860803+1002147376+1003031066+1003639171+1004600531+1005686300
527+1006304688+1006633299+1006718447+1006573814+1006492745+1006719467
515+1007383658+1008002980+1008141410+1007790959+1007195431+1006411845
503+1005032137+1003597617+1002370019+1000610372+997965335+994453264+990683454
490+987001086+982955266+978590182+974973332+973314555+973321013+973479667
476+972657757+970241397+966655564+962733303+958328959+954694009+953915267
463+956528777+961382572+966733150+972445566+977337176+979827722+981363026
449+982520006+982963764+982755567+981972831+981217118+980257797+978878768
436+978282475+978305164+977779318+977491836+978225540+978975814+978843332
422+977966695+976661938+977852230+981302351+982416673+980976289+978632586
409+976340634+974971378+974846205+975310611+974855807+973395964
##END=
