##TITLE=25
##JCAMP-DX=4.24
##DATA TYPE=INFRARED SPECTRUM
##DATE=16/11/2015
##SAMPLING PROCEDURE=Instrument type and / or accessory
##ORIGIN=Default
##XUNITS=1/CM
##YUNITS=TRANSMITTANCE
##RESOLUTION=4
##FIRSTX=3996.3359
##LASTX=399.24785
##DELTAX=-1.9287336
##MAXY=1.4777193
##MINY=0.2540108
##XFACTOR=1
##YFACTOR=1.3762334e-009
##NPOINTS=1866
##FIRSTY=0.52456146
##XYDATA=(X++(Y..Y))
3996+381157356+381275245+381466676+381739962+382031221+382299353+382572683
3983+382864765+383176294+383470412+383698309+383947428+384290140+384667846
3969+385038363+385383197+385644963+385817900+386058400+386416660+386745383
3956+387009747+387227337+387411187+387617776+387930994+388281805+388460285
3942+388669126+389016905+389268146+389442816+389541952+389701593+390121873
3929+390514348+390648955+390802273+391181841+391453265+391526675+391736339
3915+392202181+392569710+392727921+392883577+392952397+392926671+393180164
3902+393668484+394064467+394507355+394802253+394687135+394587609+395038162
3888+395394560+395358093+395751434+396092284+396161277+396589786+396863938
3875+396850642+396993651+397129125+397591373+398043226+397975359+398099658
3861+398494083+398827526+398772522+398267658+398524183+399956704+400666815
3848+400387378+400062597+400126349+400413971+400494397+400625280+401223521
3834+401716172+401881703+402149229+402376000+402501902+402602251+402441571
3821+402779865+403528045+403617091+403926930+404514344+404527207+404210567
3807+404262972+404915351+405080708+405078716+405772412+406134180+406149945
3794+406310798+406382606+406473297+406677244+406891369+407147721+407344131
3780+407414207+407712526+408130078+408336060+408366593+408421511+408795709
3767+409158517+409398800+409601058+409569312+409726007+410199385+410410868
3753+410191676+410343391+411282915+411812769+411271957+411451174+412356916
3740+412258429+411638316+411580931+412173021+412814919+413228053+413131904
3726+412914185+413080625+413365822+413626071+413771636+413693722+413300597
3713+412931812+413192105+413692595+413735559+413252826+412528120+411968858
3699+411438571+410508056+409373247+408188330+406910295+405897751+405683973
3686+405729275+405087465+404142657+403646065+403438957+403331115+403821774
3672+403901291+403445540+403879203+404555055+404783169+404985470+405278721
3659+405379764+405526281+406222143+406617303+406315909+406518123+407327977
3645+407773203+407564363+407196834+406995226+406872226+406729303+406597597
3632+406254625+405675831+405829278+406167269+405614287+404600660+403761529
3618+403441122+403171518+402385138+401469998+400580195+399679607+399005530
3605+398230628+397108683+395981627+395006676+393952294+392814454+391769601
3591+390558004+388948216+387521281+386583231+385543228+384196764+382827519
3578+381515832+380188771+378829920+377359330+375628013+373875215+372572321
3564+371391734+369834523+368130449+366514640+364907276+363183041+361389878
3551+359651220+357769553+355709600+353811583+352091635+350296913+348345343
3537+346331732+344398028+342470366+340416476+338306609+336166294+333912140
3524+331654368+329577698+327521102+325317576+323065522+320845712+318647969
3510+316448233+314270001+311970219+309457395+307091219+304995622+302827979
3497+300504204+298206847+295981212+293739119+291419523+289090485+286824745
3483+284522928+282141615+279808463+277562623+275305415+272945758+270429036
3470+267861490+265512465+263465115+261445961+259262791+257051535+254929497
3456+252819435+250660367+248515895+246417483+244334749+242324321+240398954
3443+238462998+236464762+234352988+232252303+230424383+228806777+227134535
3429+225409044+223763979+222172662+220551612+218901892+217284177+215670101
3416+213969469+212263511+210687677+209230123+207858885+206484096+204884399
3402+203109945+201614452+200550477+199506858+198158510+196721744+195627951
3389+194845274+194012683+193023028+191992727+191015264+190145167+189372170
3375+188627065+187832089+186958678+186175482+185742620+185622045+185508789
3362+185290485+185110403+185013193+184918453+184759570+184569569+184575308
3348+184853639+185152023+185355342+185573473+185842774+186222365+186822013
3335+187557395+188266488+188913062+189507990+190107010+190860583+191832653
3321+192883592+193877426+194818184+195782892+196796238+197754969+198595616
3308+199480222+200666937+202201648+203817782+205251213+206514413+207754183
3294+209074965+210566755+212264117+214020488+215680257+217299574+218983011
3281+220717988+222457815+224186836+225892881+227582880+229359109+231339090
3267+233475117+235650101+237826341+239991039+242133259+244282235+246507654
3254+248835912+251184483+253471358+255766203+258222420+260855191+263534520
3240+266181258+268762403+271260544+273797903+276563939+279537602+282495328
3227+285342439+288167051+291025229+293899388+296823548+299797233+302744564
3213+305698803+308689986+311673416+314645758+317609374+320569221+323544617
3200+326522612+329488588+332453026+335402133+338336449+341285058+344263659
3186+347248475+350195914+353114379+356035031+358951677+361836923+364665347
3173+367455159+370262816+373100529+375886184+378559623+381176759+383799828
3159+386436280+389042545+391531786+393938132+396425987+398995655+401500618
3146+403898172+406203173+408417829+410617716+412892487+415208488+417455064
3132+419576127+421609704+423651943+425717093+427696879+429558169+431389878
3119+433238478+435105441+437012337+438911783+440712439+442437649+444152897
3105+445845495+447481919+449084562+450685342+452256672+453787593+455264420
3092+456645489+457985110+459329322+460635421+461888899+463098806+464274413
3078+465480769+466761012+468015789+469096979+469998650+470846876+471742916
3065+472665289+473552278+474386774+475159771+475855719+476459590+476983511
3051+477498986+478027152+478474890+478795081+479039263+479268329+479476131
3038+479565089+479473835+479275216+479033373+478718466+478245781+477561743
3024+476686145+475616388+474323715+472784218+470940382+468748291+466212578
3011+463290280+459855452+455779246+451008868+445505685+439156354+431868756
2997+423618984+414284123+403624757+391499260+377796328+362262899+344565270
2984+324429159+302051908+278658150+256372586+236974369+221384831+210270147
2970+203027418+197575146+193086348+191115765+193941373+202622968+215986610
2957+231061993+244554395+254428769+260164959+261657855+258734517+251614876
2943+241604487+231600747+224992293+223504963+226634283+232629598+239790730
2930+247387042+255413962+263862831+272584747+281473060+290389460+299007757
2916+306860052+313459065+318458163+321771723+323609929+324443040+324793049
2903+324991950+325126146+325001067+324123477+321917829+318049187+312554102
2889+305353861+295941843+284259690+271531730+260361587+254171810+255275154
2876+263061076+274836910+288170776+301804348+315187934+328053057+340198411
2862+351468795+361840951+371439202+380563792+389653995+399014495+408613287
2849+418152095+427221292+435525938+443002844+449719789+455751181+461193644
2835+466229295+471024490+475633799+480066922+484368383+488559750+492589094
2822+496419993+500058421+503511526+506766098+509820621+512733781+515585397
2808+518448273+521348830+524219719+526987010+529637971+532178968+534622863
2795+536981222+539203241+541186318+542916942+544500658+546001306+547404766
2781+548708396+549934675+551105387+552207886+553200725+554074374+554879203
2768+555659952+556406616+557101828+557772310+558483460+559254767+560031792
2754+560769534+561435165+561993171+562445674+562816754+563127893+563427684
2741+563791921+564316449+565125522+566276658+567679296+569162879+570540656
2727+571679579+572617587+573524065+574552503+575799701+577320834+579072550
2714+580873985+582549346+584056663+585412785+586663318+587867465+589014573
2700+590101827+591149019+592104134+592942659+593709159+594409438+595010494
2687+595511374+595920307+596200609+596354490+596490743+596757749+597295529
2673+598166016+599281682+600505405+601765856+603010758+604181470+605291851
2660+606384909+607449035+608483061+609506476+610504035+611474871+612455843
2646+613431920+614350438+615234481+616122726+617000013+617851487+618670262
2633+619479033+620302356+621086786+621778490+622417659+623054662+623665766
2619+624217448+624706072+625123883+625508259+625940406+626412658+626855589
2606+627263440+627665833+628059520+628432030+628807527+629179690+629519283
2592+629860090+630196435+630497483+630797578+631121493+631474426+631862787
2579+632287787+632764284+633300288+633879646+634492136+635129572+635768741
2565+636396346+637010351+637605950+638155078+638643658+639110453+639580236
2552+640053181+640531453+641005784+641459543+641920101+642463122+643081935
2538+643698279+644317395+644990259+645708902+646454137+647225228+648000433
2525+648774166+649568818+650364855+651139238+651943504+652793593+653617045
2511+654411870+655257194+656161247+657049751+657886977+658706012+659533059
2498+660375525+661206081+661957379+662618506+663243642+663879043+664547532
2484+665224901+665866538+666498214+667167050+667859837+668556781+669260958
2471+669962017+670642070+671304583+671962418+672636452+673360075+674135540
2457+674937901+675723674+676434001+677079623+677745774+678475287+679212250
2444+679889575+680546457+681246000+681941688+682586141+683218986+683847371
2430+684462286+685110160+685774925+686376414+686904839+687412735+687923014
2417+688412157+688874404+689322533+689758881+690214025+690730670+691302319
2403+691893630+692469782+692984262+693462707+693958953+694507561+695091985
2390+695651897+696113885+696413676+696543996+696591204+696689128+696923175
2376+697264934+697645759+698112987+698780870+699584963+700317119+700986041
2363+701862938+703040927+704233164+705192610+705934727+706324083+705912552
2349+704798056+703969146+704450320+706144217+707936817+709167514+709851378
2336+710136012+710309858+710743824+711424224+711997605+712362405+712766314
2322+713383611+714092335+714641246+714944849+715187428+715604114+716237869
2309+716969678+717691915+718363003+718987360+719610720+720261973+720914091
2295+721546287+722179262+722821160+723442311+723999191+724464384+724862056
2282+725268174+725741032+726248105+726700132+727078401+727448875+727843169
2268+728233738+728612701+729008467+729440441+729894936+730359479+730836235
2255+731317582+731798930+732282702+732763183+733262287+733724838+734208957
2241+734741150+735275422+735792023+736345005+736968063+737609657+738221973
2228+738818785+739420101+740007731+740575611+741153020+741746540+742321956
2214+742847220+743311416+743712467+744094374+744496724+744892577+745284446
2201+745761895+746389977+747141058+747973823+748843314+749697387+750514127
2187+751267894+751956262+752638914+753366609+754126872+754860283+755520241
2174+756134983+756755875+757379625+758000517+758638820+759291934+759932662
2160+760556759+761196361+761874335+762586871+763312487+764025716+764707934
2147+765352387+765976917+766597376+767199991+767775754+768336272+768898695
2133+769481214+770104272+770751583+771388066+772020306+772653064+773258971
2120+773843396+774452334+775103197+775775801+776421899+777020443+777619940
2106+778252093+778899144+779546888+780205460+780909160+781657297+782382999
2093+783012899+783573417+784146928+784692027+785127553+785473859+785772438
2079+786043386+786289733+786495975+786666356+786824091+786956966+787039342
2066+787186769+787620562+788248297+788897687+789616026+790403575+791194329
2052+791964380+792718494+793447227+794146943+794784553+795298383+795752618
2039+796200097+796622889+797068115+797530666+798037306+798670671+799416816
2025+800207656+801024222+801836978+802595076+803374655+804257746+805062792
2012+805732278+806406701+807052453+807613577+808145163+808705075+809264640
1998+809778210+810240501+810592524+810976077+811654052+812248958+812631385
1985+813046987+813500790+813961435+814396094+814820445+815275979+815764689
1971+816210089+816504683+816830808+817402153+817882894+818168133+818478146
1958+818760874+818933507+819079289+819214069+819259805+819166342+818931515
1944+818494344+818286283+818536355+818655371+818713666+819012505+819491860
1931+820048480+820642952+821316423+822030258+823058783+824388227+825364520
1917+826676033+828263344+829189225+829811070+830579475+831522940+832386714
1904+833089376+833793683+834522330+835142182+835671950+836387431+837004598
1890+837378277+838200214+839064075+839530696+840037596+840584342+841094707
1877+841670729+842369319+842981549+843089305+843448777+844780473+845926715
1863+846392904+846796639+847401160+848123657+848820948+849408318+849922927
1850+850427229+850909269+850893937+851359346+852917899+853758892+853948937
1836+854582388+855417492+855816203+856234145+857494985+858390029+858959469
1823+860098261+860961170+861449273+862168565+863084485+863702345+864213836
1809+865107667+866090544+866789827+867103392+867474385+868503084+869720701
1796+870215734+870068047+870767589+872494445+873344707+873296286+873705566
1782+874477783+875211367+876095064+876620761+876459994+876707294+878110971
1769+879141575+879750946+880113364+880006908+880644605+881603141+882121388
1755+882887282+883094824+882916300+883861930+885188602+885922099+886208465
1742+886390367+887111998+888178550+887601314+887294073+889348266+890747092
1728+890979493+891145197+891403758+891901909+891715849+890976288+891777783
1715+893427893+894180534+894120073+893737126+893460722+893953849+894137570
1701+893108785+893777578+894585829+894386343+895040237+894714719+893776365
1688+892920473+891177766+890872517+892569576+892738744+891221856+889659578
1674+889561437+889515702+888345899+888280241+888700002+887547263+886303141
1661+886364554+886466419+885234164+882311866+881646105+884679536+884561473
1647+881925887+881668539+882531361+882303204+881517907+880422165+880582671
1634+882920025+884348474+884182164+884583908+885671768+886659755+888350663
1620+889834637+889975654+891329697+894440827+896305148+897027819+898086055
1607+899487306+900800725+902001018+903227470+904380815+905376944+906355490
1593+907383409+908320984+909141362+909919382+910641793+911340383+912074920
1580+912395501+911838967+912341969+914342544+914444409+913364518+913917847
1566+914778936+914973917+913967740+911426916+911790893+914862784+915297529
1553+914225347+913397001+913018904+912625563+911794791+910836514+909871828
1539+910699048+912325858+911096721+909029535+908778511+908176935+906589624
1526+905428743+904114632+902417660+901878970+901052789+899491291+898143311
1512+896517627+894092961+890322654+887757057+887583904+885625513+880833696
1499+875194649+869840409+864901599+858327143+848842170+837901808+826215128
1485+813486497+799992752+786827383+775003411+764374014+754027692+742570642
1472+730282560+718596964+708066617+699648975+693397093+686902501+679215931
1458+675804837+684158423+701795028+720638899+737617972+751980256+762761064
1445+769212693+772242572+773827025+775060060+777576370+782189143+785910251
1431+787585914+788965077+790444286+791615821+792919539+793923291+794828729
1418+797288390+799936709+801301406+802250242+803400815+804514834+805435258
1404+806796057+808395928+809390239+809989389+809152467+806072607+801657934
1391+795174256+786053000+776754260+770419049+769140278+774658577+786446515
1377+800864842+814029864+824466618+831957686+837131323+841610962+845567848
1364+848500974+850975879+852806766+853378024+853143198+852652842+851828740
1350+850567813+849414728+849466960+851503568+854879235+858396439+861994719
1337+865730898+869354818+873046647+877101761+881568580+886304700+891193271
1323+896138405+901002549+905761450+910414415+914733027+918602947+922099449
1310+924986493+927025180+928223654+928713057+928830514+928859098+928922764
1296+929171017+929775278+930747413+931950305+933316995+934812662+936140892
1283+936925236+937049709+936582741+935756993+935118344+935375085+936961963
1269+939648568+942803094+945935878+948761075+951122509+952963270+954151003
1256+954540273+954020900+952346362+949308427+944892541+939154055+932288296
1242+924911740+917993749+912437684+909058986+908735720+911928359+918148626
1229+926215890+934949088+943407095+950869579+957166937+962568731+967184190
1215+971014525+974239213+977101916+979812948+982467071+984956875+987201372
1202+989359855+991555671+993600682+995301898+996764909+998160443+999512668
1188+1000675714+1001535417+1002222833+1002937275+1003677183+1004249567
1177+1004588165+1004887090+1005207844+1005338207+1005158644+1004794060
1165+1004384435+1003871038+1003171235+1002397199+1001625589+1000722749
1153+999540126+998031813+996147742+993667812+990359362+986319754+981850596
1140+977173984+972563463+968449534+965067025+962187517+959592036+957463437
1126+955848235+954279547+952259050+949613502+946175296+941324578+933969157
1113+922938537+907204019+885710747+857728772+824478744+790713155+763389752
1099+747221702+741706868+743115569+748417230+756434082+766344012+776636024
1086+785369482+790307167+788359170+775399610+746863355+699618658+636813464
1072+572408269+526582928+511041053+518101317+526407349+517713520+488628570
1059+449936859+418201901+406813021+421683677+461817827+521324360+591882734
1045+664926885+733158950+791899329+839145844+874645999+899313287+914725404
1032+922491578+923450201+916514627+897462478+859448352+799470520+729648156
1018+677929062+668177256+699713681+751592545+803835214+848846934+886835594
1005+918930891+945280512+965535985+979516275+987846517+991756629+992091502
991+988950402+982178886+971824508+957958210+939953297+915845401+881992065
978+833198777+765290800+681360382+597887317+541632584+533815739+575967181
964+651174189+736369692+814585878+878969721+929098862+966781580+994447738
951+1014714299+1029854950+1041333568+1049930860+1056307735+1061220127
939+1065077401+1067968082+1070106296+1071746619+1072941195+1073553251
928+1073453638+1072734693+1071632973+1070091831+1067706317+1064238746
916+1059744989+1054282127+1047905858+1040964134+1034295089+1029246444
905+1027222656+1028435768+1031043462+1032064712+1029146398+1021066574
893+1007315914+988918526+970052090+957153597+954341827+960623680+973278164
880+990894067+1011180118+1029915757+1043849445+1052375275+1056410726+1056847118
866+1053678733+1046333446+1035557835+1025439497+1021947326+1027552937
854+1038764247+1050267552+1059344718+1065642076+1069436031+1071413478
843+1072569162+1073408509+1073741823+1073395170+1072688524+1072035150
831+1071373633+1070338351+1068974087+1067760454+1066811619+1065640517
820+1063933324+1061991391+1060145087+1058267166+1055966106+1053108946
808+1050103407+1047484972+1045430433+1043919781+1042964362+1042318870
797+1041527424+1040279316+1038460730+1036298263+1034226660+1032225132
785+1029891503+1027240066+1024528601+1021738745+1018651090+1014967922
773+1010820731+1006945614+1004017426+1002057476+1000405720+998218912+994787982
760+989689530+983473941+978309832+976791124+979188591+983094979+986243788
746+988044357+988660052+988370914+987514416+986352583+985090443+983762992
733+982257883+980611151+978993523+977425615+975783907+973937689+972074753
719+970337243+968791250+967317844+965723257+963973447+962222945+960633122
706+959185269+957708918+956118922+954529879+953094672+951837384+950655541
692+949405268+948003930+946563613+945297922+944287067+943440357+942558133
679+941516874+940431786+939402481+938284390+937121777+936394169+936171123
665+935851408+935407568+934974468+934560424+934276051+934109654+933985008
652+933973921+934061580+934086093+934007789+933987260+934168729+934496672
638+934812748+935100846+935492022+936044831+936678716+937350021+938158531
625+939158299+940008301+940459158+941016384+942198660+943777829+945240060
611+946445983+947575421+948783597+949981291+950997256+952017813+953322743
598+954634082+955793751+957284913+959152180+960790770+961935453+963050252
584+964398492+965653788+966823678+968214188+969752039+971397645+972854073
571+973884418+974958159+976372576+977597469+978480473+979742786+981625991
557+983502786+984928810+986079989+987158235+988246701+989503470+990937291
544+992259112+993261651+994237945+995552836+997046077+998191973+998910139
530+999610288+1000233692+1000644964+1001312198+1001975533+1002134568+1002099746
517+1002388970+1003052653+1003474232+1003358161+1002823716+1002142710
505+1001500856+1000439761+999092994+997646874+995782032+993297945+989945146
492+986074706+982084384+977753558+973219350+969527347+967851510+967888497
478+968050043+967115673+964574070+960876264+956854412+952495435+948903392
465+948071927+950692874+955543939+960970506+967204112+973069150+976558289
451+978531232+979367981+979209813+978839686+978692605+978888886+978401995
438+976760114+975611793+975700145+976264041+977088230+977772961+978049625
424+978433092+978493120+977013304+976891690+979136793+979758811+978527508
411+977020494+975761386+974868074+974344110+974378498+973566869+970486836
##END=
