##TITLE=9
##JCAMP-DX=4.24
##DATA TYPE=INFRARED SPECTRUM
##DATE=16/11/2015
##SAMPLING PROCEDURE=Instrument type and / or accessory
##ORIGIN=Default
##XUNITS=1/CM
##YUNITS=TRANSMITTANCE
##RESOLUTION=4
##FIRSTX=3996.3359
##LASTX=399.24785
##DELTAX=-1.9287336
##MAXY=0.50993896
##MINY=0.0023833066
##XFACTOR=1
##YFACTOR=4.7491766e-010
##NPOINTS=1866
##FIRSTY=0.030721052
##XYDATA=(X++(Y..Y))
3996+64687111+64604800+64511718+64551358+64731775+64901941+64950845+64877052
3981+64797772+64822884+64928246+65068969+65236938+65360866+65417850+65489862
3965+65583423+65645708+65672147+65664134+65657012+65807916+66178760+66488460
3950+66475510+66291550+66171724+66133390+66140426+66207752+66333116+66418499
3935+66438964+66535101+66720982+66860701+66870255+66768196+66681503+66704839
3919+66804945+66912048+67000953+67069738+67068608+66932388+66767435+66832156
3904+67102510+67224784+67095451+66886579+66710087+66669376+66843436+67075989
3888+67164714+67183359+67202130+67177758+67197455+67225003+67134608+67015700
3873+66918229+66819363+66752209+66679597+66616813+66615989+66615887+66571019
3857+66513530+66570376+66791453+66818594+66494288+66237717+66301920+66487739
3842+66529830+66436156+66387852+66399195+66346090+66239897+66193609+66274984
3827+66426021+66471250+66403532+66352609+66247733+66117679+66085777+66009195
3811+65805892+65666954+65792604+66045882+66158013+66122809+65995444+65868817
3796+65818796+65733295+65575680+65431051+65330824+65327561+65400691+65368001
3780+65212696+65104867+65097823+65152140+65223807+65216104+65032392+64792222
3765+64701297+64727438+64801525+64908832+64899796+64717001+64553723+64614248
3749+64822833+64904541+64846907+64775969+64612867+64379133+64240740+64219326
3734+64213478+64118239+63883094+63602793+63448845+63422670+63375829+63254210
3719+63080668+62863885+62631779+62496449+62492594+62402018+62037469+61454556
3703+60833983+60288526+59781124+59227423+58607615+57963754+57301419+56609270
3688+55939413+55368455+54972980+54766630+54653350+54589185+54641587+54671003
3672+54488322+54235386+53967946+53607483+53283472+53088966+52896755+52626060
3657+52362915+52104664+51753100+51356669+51020413+50707905+50279846+49707711
3641+49138548+48695950+48312575+47856038+47313055+46794495+46411661+46089423
3626+45651876+45134300+44676183+44295145+43863788+43309086+42748654+42251210
3611+41718864+41104367+40503648+40004781+39533359+38978532+38396933+37870070
3595+37362449+36841316+36317296+35796092+35237222+34623313+34023641+33443932
3580+32842808+32266619+31769414+31300219+30745925+30122166+29561815+29064987
3564+28546556+27995527+27448189+26950565+26462836+25910788+25350472+24864929
3549+24407292+23906254+23386587+22871502+22328100+21773357+21307419+20957765
3533+20601458+20228351+19909740+19523172+19035714+18616179+18274495+17891655
3518+17436063+16951086+16513022+16203001+16011355+15850377+15661293+15409337
3503+15079136+14730099+14464487+14262507+13992207+13625967+13263456+13002151
3487+12791958+12461999+12021817+11690711+11570667+11519967+11385027+11177411
3472+10924275+10592338+10269444+10076892+9919995+9683830+9483769+9411170
3456+9347318+9221214+9091992+8961513+8776711+8559818+8407348+8325040+8172335
3439+7879105+7588536+7437909+7366127+7254525+7108608+7046553+7089059+7062382
3422+6862044+6633792+6536113+6474193+6325536+6169790+6062892+6031248+6088592
3404+6057197+5883158+5764722+5742307+5718104+5674653+5637435+5633705+5666472
3387+5675336+5598440+5460868+5364204+5378846+5443129+5463425+5400473+5210767
3369+5018358+5068231+5311563+5492577+5562155+5604654+5596215+5518604+5438666
3352+5385818+5377315+5436745+5514827+5591319+5703198+5801171+5846378+5893523
3335+5947670+5991945+6061694+6151882+6222385+6283909+6374956+6510327+6647643
3317+6750025+6843236+6901674+6905382+6947905+7085351+7285152+7492387+7635920
3300+7694221+7764181+7917962+8079018+8217101+8391755+8559874+8714187+8979045
3283+9329757+9594352+9763479+9951559+10132864+10226495+10332301+10588323
3267+10965409+11323510+11543944+11652131+11776504+12006148+12344663+12716942
3252+13047801+13350319+13708840+14111854+14441564+14762514+15208595+15642614
3236+15931812+16217229+16630708+17141550+17648867+18061040+18414608+18848584
3221+19428347+20087193+20722014+21274972+21750498+22174615+22550285+22969636
3206+23530562+24139993+24749229+25417262+26069660+26639426+27224447+27896519
3190+28583417+29187854+29733877+30337335+31023237+31751375+32535228+33325346
3175+34045550+34711570+35346462+35981652+36653379+37329147+37958912+38565577
3159+39242128+40014158+40755694+41375023+41945099+42534817+43136634+43770384
3144+44460584+45142235+45744562+46332193+46956742+47558598+48123211+48666209
3128+49199932+49726901+50208123+50707077+51293818+51830949+52215462+52602865
3113+53141451+53741017+54280544+54756582+55179601+55556536+55896498+56204127
3098+56507187+56830100+57154363+57451865+57754046+58067546+58323444+58523840
3082+58722817+58922598+59115307+59303981+59475668+59606362+59714481+59834731
3067+59920294+59925981+59900433+59876826+59858537+59843277+59750383+59561866
3051+59410837+59333557+59204443+58955323+58651538+58351529+58020270+57593741
3036+57063771+56503006+55965746+55430831+54875239+54276673+53593105+52792111
3020+51908194+50981914+49931737+48711309+47427626+46134365+44742685+43168838
3005+41444435+39642486+37725476+35600100+33304320+30894984+28310918+25501437
2990+22509333+19464471+16480916+13671810+11233742+9299820+7899169+7033031
2974+6661972+6637792+6715458+6810650+7087200+7744300+8879393+10459784+12367305
2957+14347327+15987355+16990524+17319904+17031529+16208541+15059112+13867591
2941+12878702+12339309+12378945+12845717+13553572+14457917+15524008+16708349
2926+17970784+19273107+20625047+22015259+23346563+24476320+25300368+25806150
2910+25989036+25840201+25486692+25130077+24826550+24531699+24253364+23963078
2895+23510016+22767280+21774487+20634780+19382281+18035912+16729789+15820398
2880+15740160+16683689+18506519+20889742+23599911+26536151+29637644+32872060
2864+36167859+39358162+42321556+45118993+47924121+50882910+53995804+57157661
2849+60253981+63127254+65675426+67959452+70096100+72087758+73864739+75537598
2833+77273249+79025506+80714979+82369506+84013813+85646942+87235218+88685133
2818+89926568+91007238+92052767+93174721+94436786+95779386+97073627+98318960
2802+99557022+100750028+101876586+102926696+103832765+104553581+105165662
2789+105733942+106227507+106638756+106972812+107201984+107363086+107520030
2775+107655137+107725569+107716783+107645481+107563008+107517905+107515442
2762+107528847+107561635+107589129+107537264+107455458+107441080+107419689
2748+107314523+107244562+107285681+107330737+107346786+107449896+107719576
2735+108126244+108603940+109112103+109586788+109980105+110389150+110901627
2721+111476818+112162162+113024901+113938336+114766090+115493142+116112173
2708+116614539+117075629+117591283+118139341+118632749+119060392+119482819
2694+119907356+120267227+120518363+120671659+120778002+120871793+120930083
2681+120961631+121038158+121200091+121477223+121916820+122497705+123137194
2667+123723272+124189806+124621301+125103006+125564700+125922547+126245660
2654+126621603+127004096+127342175+127645718+127938051+128233004+128498408
2640+128714442+128903382+129098747+129334610+129579181+129769627+129903643
2627+130021571+130163086+130318908+130464479+130571315+130574060+130507252
2613+130488160+130529216+130562043+130563000+130552834+130506946+130446649
2600+130477045+130535585+130453293+130286332+130219861+130267247+130322783
2586+130326909+130265396+130171997+130124807+130150331+130192203+130238208
2573+130326556+130450563+130614049+130799452+130935037+131007132+131033653
2559+131024334+130992001+130913646+130813242+130782744+130824930+130868535
2546+130911615+131006355+131166916+131370250+131578808+131789861+132072828
2532+132420164+132727683+132974363+133234567+133559076+133901941+134208221
2519+134481556+134742355+134999108+135225660+135461924+135783029+136142068
2505+136487050+136839155+137175494+137479248+137828482+138240343+138627071
2492+138953636+139222123+139429003+139621481+139879253+140198114+140485804
2478+140749725+141077639+141437604+141740307+141996102+142288921+142661531
2465+143050722+143391296+143739119+144138272+144534320+144893547+145190320
2451+145410691+145648743+145940151+146156459+146284600+146474411+146739274
2438+146966203+147145911+147338310+147505420+147595109+147652105+147676594
2424+147666224+147702636+147764369+147777029+147786976+147856615+147961020
2411+148060263+148185831+148405936+148714381+149029634+149303659+149526305
2397+149699095+149866252+150071751+150344960+150659162+150903066+151000882
2384+150998748+150976565+150924308+150791790+150596645+150389436+150172077
2370+149960334+149793616+149664220+149566765+149466659+149446092+149765518
2357+150434571+151164509+151411362+150866152+150355675+150963717+152275466
2343+152919825+152711173+152426198+152358958+152582655+153085822+153698271
2330+154159174+154364312+154516879+154843789+155363804+155860334+156118781
2316+156203324+156367705+156690488+157073468+157445261+157776234+158054526
2303+158322150+158579248+158768133+158926897+159135361+159383077+159627687
2289+159828056+159951365+160023923+160088605+160140486+160165383+160181996
2276+160203913+160190170+160078941+159897178+159756314+159694518+159644097
2262+159559883+159485615+159501460+159649682+159904332+160204258+160504278
2249+160774491+161017971+161243535+161468958+161672041+161830664+161987264
2235+162187225+162417997+162620077+162762556+162902291+163084713+163272390
2222+163444881+163605810+163728335+163792107+163823530+163876603+163967626
2208+164045769+164075702+164109494+164192469+164321300+164522092+164814692
2195+165157494+165492860+165795343+166063155+166320472+166598372+166870232
2181+167075763+167221035+167394781+167617773+167825704+168031407+168273522
2168+168495870+168636781+168761721+168958969+169189851+169385529+169527350
2154+169641199+169774815+169926127+170039647+170086241+170133650+170240581
2141+170352814+170450802+170592341+170780520+170989439+171244042+171567281
2127+171912248+172224865+172531224+172849128+173136363+173415016+173717970
2114+173974032+174157505+174345590+174567373+174815450+175111140+175417467
2100+175658155+175864689+176114743+176428129+176736511+177001437+177213055
2087+177367630+177480977+177567591+177638360+177695371+177723390+177732003
2073+177747801+177762046+177753715+177777059+177916527+178124787+178322787
2060+178584827+178982223+179436505+179869263+180301079+180738684+181113506
2046+181379969+181577342+181758948+181922434+182030494+182085732+182177916
2033+182409473+182767837+183170442+183585017+184015798+184464621+184941007
2019+185446307+185929941+186334131+186682345+187016110+187324994+187625171
2006+187947296+188244304+188450917+188594495+188745274+188920338+189127704
1992+189365897+189551457+189639232+189688289+189771169+189936883+190153552
1979+190326295+190430982+190535920+190699641+190888637+191039510+191163634
1965+191300200+191433094+191535239+191611547+191675695+191715324+191662596
1952+191456093+191129042+190758786+190354784+189893035+189383594+188845553
1938+188346434+187952960+187641064+187393034+187277679+187419610+187900451
1925+188739234+189879826+191173533+192567096+193975845+195172632+196161660
1911+197077236+197899170+198560363+199077130+199551823+200046109+200495214
1898+200847633+201188081+201559043+201901139+202227845+202495485+202653872
1884+202844013+203117300+203364577+203545289+203720478+203949149+204213777
1871+204536592+204913217+205172134+205306645+205505288+205754228+205952604
1857+206128845+206314059+206488778+206644609+206776970+206860729+206986956
1844+207202479+207266722+207206119+207324643+207626075+207941109+208282342
1830+208695380+208986567+209095443+209204288+209295169+209354674+209503210
1817+209729794+209932798+210098622+210278032+210442255+210558928+210666063
1803+210800024+210972876+211122839+211176696+211219556+211392722+211577183
1790+211511136+211305810+211247105+211319521+211377928+211396456+211364970
1776+211308132+211364515+211549180+211577905+211370492+211161400+211068793
1763+211139892+211261161+211280850+211347179+211495574+211663390+211955660
1749+212257359+212324065+212232446+212176267+212243365+212374910+212395038
1736+212414978+212581147+212528811+212157676+211806372+211590126+211478709
1722+211408348+211350019+211343022+211179944+210636490+209958825+209471175
1709+209206421+209066091+208884155+208596984+208362414+207986165+207195906
1695+206249958+205243908+204241545+203488466+202953579+202496897+201877936
1682+200794607+199545516+198621735+198088604+197647626+197152131+196794630
1668+196533234+196159856+195898601+195954231+196125373+196328033+196734779
1655+197562016+198608604+199052594+199083484+199534016+200200135+200628783
1641+201123948+201971249+203199036+204639051+205746525+206490222+207437080
1628+208648268+209796264+210868612+211871462+212713006+213672022+214831785
1614+215706038+216296980+217007528+217812816+218480378+218991467+219455240
1601+219930591+220392513+220798899+221138673+221388397+221539395+221626496
1587+221665262+221655833+221635438+221638121+221660649+221734227+221726602
1574+221379282+220934523+220704472+220437664+219988182+219603980+219464575
1560+219591586+219434453+218364192+216989423+215968376+215214340+214508279
1547+213859684+213374402+212952281+212269000+211044775+209399448+207831323
1533+206500905+205170644+203832978+202616032+201381893+199988330+198416706
1520+196571121+194469034+192306124+190227350+188318760+186525306+184431723
1506+181556759+178107091+174705005+171383745+167608752+163000153+157838563
1493+152415561+146364044+139524810+132617568+126364404+120879072+116067100
1479+112004277+108660983+105468020+101481543+96560326+91945350+88667735
1466+86482265+84402746+81934309+79968937+80538817+85012819+92009554+99331121
1450+105962762+111456517+115423714+117765421+118953124+119703465+120617143
1437+121873544+123007955+123650714+124024963+124357403+124709515+125209599
1423+125927708+126905331+128231137+129700489+131063546+132497710+134155760
1410+135906181+137636474+139325853+140806705+141864400+142468770+142388243
1396+141096685+138426310+134739986+130293956+125115627+119916047+116320911
1383+115880255+119433260+126608001+135759952+145169266+153875987+161642673
1369+168725686+174923902+179463536+182024093+182870469+182583093+181802357
1356+180892240+179903494+178749615+177456174+176430388+176391011+177680107
1342+179787339+181920834+183768977+185509812+187480793+189933056+192896014
1329+196257499+199918612+203823550+207891660+212034101+216185672+220255948
1315+224191980+227988575+231537957+234684812+237338306+239415669+240946644
1302+242166162+243320638+244519887+245760946+247020155+248277749+249472841
1288+250460567+250991658+250801800+249725844+247827813+245521874+243627577
1275+243249712+245220614+249498601+255217889+261308752+266996382+271886284
1261+275838256+278784396+280701112+281656207+281661353+280584832+278362479
1248+275058617+270739983+265632203+260378680+255869340+252874315+252170419
1234+254580260+260311848+268565009+277937017+287140283+295397773+302356692
1221+307998340+312528639+316154830+319061751+321456359+323457100+325097861
1207+326451059+327556791+328433947+329163948+329794392+330307677+330741517
1194+331081417+331272059+331353575+331375758+331308487+331108087+330705748
1180+330061499+329222685+328209418+326977177+325464180+323623771+321421500
1167+318855671+315973758+312843940+309594453+306379637+303315960+300438251
1153+297600892+294543522+291027619+286873678+282064193+276805273+271382820
1140+266057383+261021847+256345130+252044851+248111031+244463269+240988955
1126+237542393+233882677+229688434+224666609+218502232+210739044+200856606
1113+188426742+173292428+155678477+136326686+116792944+99221108+85275187
1099+75294730+68524657+64101163+61925879+62554938+66328669+72820834+80780775
1084+88345492+93426751+94006146+88556717+77171661+62619746+49598658+42197243
1069+41226766+43471713+43933251+39572807+31393618+22832917+16453254+12823780
1053+11712511+13212223+18211441+28674775+47282459+76193630+115353854+161295793
1038+207990291+249418466+281689497+303189545+312951184+309395935+290196021
1024+253723828+204281910+155853667+125878134+124132380+148429656+188549988
1011+233839346+278545529+320860052+359301202+391594793+415940139+431941772
997+440392383+442563153+439630002+432359390+420957712+405256162+384905553
984+359185957+326831842+286280509+236934383+181847256+129197221+89128409
970+68669906+70569051+95767416+143554061+208999447+282888668+354862459
957+416875404+465218947+500291506+524624081+541041324+551892129+558958136
943+563459757+566151091+567521294+567862794+567274300+565818439+563604464
930+560708055+557109695+552689024+547324116+540914941+533297150+524265795
916+513712092+501716210+488616226+475195859+462809843+453279730+448006596
903+446214476+444301275+437568798+422616452+398181495+364862621+325610017
889+286239971+253283477+230378744+219363951+225563046+256133842+309933505
876+373723792+431352180+473743450+499807777+511972465+512661049+503857485
862+489265056+476684821+475453395+488398725+508829751+527735575+540942050
849+548814302+552940411+554626009+554724719+553667902+551759658+549318205
835+546600641+543725253+540608771+537223267+533663688+529886734+525883463
822+521714807+517242240+512202704+506379262+499699654+492192340+483924402
808+475396228+468179646+464396825+464872772+468280615+472257374+474929631
795+475635378+474782288+473025968+470697281+467965440+464873055+461388936
781+457557826+453431967+448949737+443915817+438504879+433477485+429684905
768+427409935+425758255+423082296+418211658+411180196+403511671+398071396
754+397527205+401798901+407727924+412154556+414231605+414587883+413984673
741+412969524+411699098+410091752+408287615+406471178+404565099+402600660
727+400750964+398963456+397172182+395642023+393882628+391777027+389806030
714+388145220+386672887+385293114+383839543+382176505+380442462+378933105
700+377640998+376282466+374864289+373678704+372820593+372137970+371475962
687+370803599+370138296+369494642+368955911+368630821+368386808+367563901
673+366356855+367641715+371755274+372322400+368778227+367711746+369543338
660+371122068+371979332+372951087+374320977+376067099+377939198+379637943
646+381271707+383108162+385159953+387309794+389498417+391805015+394360520
633+397169767+400209095+403440290+406643497+409722861+412813427+416225945
619+420048897+423910755+427618180+431383587+435271990+439284392+443519691
606+448015194+452764405+457674452+462541983+467219500+471859365+476818704
592+482268046+487894226+493304442+498533648+503879386+509524015+515292266
579+521076080+527076233+533371073+539712224+545720786+551330807+556904494
565+562754606+568756767+574639134+580365498+586216802+592317109+598258902
552+604007983+610186605+616845410+623142195+628763699+634305131+640161769
538+646416008+652875636+659154787+665171696+671027644+676906622+682710736
525+688081356+693257944+698776597+704447550+709818922+714953905+719929623
511+724442477+728444148+732252792+735846508+739014699+741470021+742742079
498+742886410+742235038+740719311+738135723+734546776+730530484+727160920
484+725506698+726249626+729439028+734138006+738688511+741160776+739686027
471+734340006+728513552+726515948+731056978+743062556+761759445+784738949
457+807802352+826095114+838551758+846951823+852324701+855071069+855756139
444+855206677+853964238+852213315+850812802+851217745+854463812+861360826
430+872675874+888161587+906335244+925641586+944932680+963368832+980120390
417+994288987+1006390012+1017045782+1025585910+1032924514+1041470792+1051644747
403+1061518368+1068937734+1073741823
##END=
