##TITLE=9
##JCAMP-DX=4.24
##DATA TYPE=INFRARED SPECTRUM
##DATE=16/11/2015
##SAMPLING PROCEDURE=Instrument type and / or accessory
##ORIGIN=Default
##XUNITS=1/CM
##YUNITS=TRANSMITTANCE
##RESOLUTION=4
##FIRSTX=3996.3359
##LASTX=399.24785
##DELTAX=-1.9287336
##MAXY=0.49346232
##MINY=0.0027901537
##XFACTOR=1
##YFACTOR=4.595726e-010
##NPOINTS=1866
##FIRSTY=0.028356068
##XYDATA=(X++(Y..Y))
3996+61700954+61668408+61736312+61853816+61992911+62115145+62137181+62117759
3981+62145462+62161824+62200489+62349416+62481374+62503451+62579367+62813926
3965+63044250+63116847+63150325+63307577+63473506+63440738+63242619+63070639
3950+63035678+63123656+63285423+63519342+63774915+63924872+63946965+63888067
3935+63816163+63837927+63900433+63852186+63781502+63884265+64072446+64150146
3919+64129350+64071420+64024045+64064883+64193748+64306401+64346533+64396892
3904+64422170+64294801+64153773+64117272+64063274+63992877+64079644+64288357
3888+64327201+64145055+63994612+64041809+64246534+64392324+64388981+64391688
3873+64401334+64371318+64360261+64309639+64211544+64151374+64150052+64177362
3857+64153194+64090048+64081946+64014557+63815389+63670693+63662189+63710659
3842+63739411+63772666+63904587+64020571+63912377+63701212+63604750+63585385
3827+63527395+63432437+63445289+63629405+63761358+63786774+63793324+63702829
3811+63598253+63637142+63758558+63774988+63708086+63732023+63702999+63472250
3796+63209304+63006334+62863693+62815349+62814895+62810287+62807936+62791716
3780+62770916+62751964+62685304+62592653+62582614+62704329+62807486+62720492
3765+62499539+62292334+62218286+62283353+62321260+62228459+62123774+62172925
3749+62248691+62108032+61967195+62081424+62169589+62050881+61910591+61835128
3734+61750797+61613912+61439495+61333092+61389400+61487543+61438125+61219973
3719+60932721+60695698+60552724+60469869+60347217+60101841+59803577+59524411
3703+59251117+58928085+58470685+57843306+57109782+56386072+55763305+55268888
3688+54813587+54331240+53964310+53819651+53781346+53742895+53750020+53711189
3672+53472593+53184222+52981723+52801737+52587824+52302092+51959744+51631427
3657+51358203+51105519+50803700+50459366+50077667+49583408+48989714+48439621
3641+48011669+47643110+47290557+47010697+46765540+46410279+45940338+45399916
3626+44763373+44148258+43684259+43307752+42913497+42478692+41998797+41462801
3611+40894879+40348985+39839589+39323326+38782787+38261235+37794906+37375311
3595+36931395+36382697+35763002+35151555+34559048+34022820+33606531+33243093
3580+32815705+32281494+31653938+31063630+30635243+30305527+29923985+29345472
3564+28578356+27849417+27344931+26996446+26578175+26034687+25508855+25054446
3549+24605400+24125289+23642883+23187651+22746326+22301245+21848616+21427764
3533+21067979+20727862+20368941+19958055+19505295+19071782+18676473+18328826
3518+17994448+17590397+17173923+16909491+16792244+16662175+16426234+16060212
3503+15619135+15220316+14877964+14576664+14375665+14261474+14093902+13816656
3487+13548978+13363413+13182161+12922047+12604641+12350591+12209213+12068005
3472+11819552+11475074+11164912+10994443+10893981+10766819+10611099+10451010
3456+10268217+10016568+9713707+9439227+9232005+9073509+8937147+8780858+8612574
3439+8493313+8377761+8221212+8089576+7995574+7942054+7966967+7986459+7890839
3422+7730359+7641777+7651623+7588450+7330445+7045987+6929138+6917058+6905772
3404+6918000+6947497+6955192+6929856+6854659+6693954+6472709+6363469+6438376
3387+6483863+6362560+6246814+6250838+6232729+6136288+6095380+6111611+6077047
3369+6071192+6205567+6357865+6380743+6316103+6268775+6267417+6293035+6326953
3352+6338003+6311264+6285012+6305941+6376945+6484847+6633747+6814847+6971741
3335+7074250+7209241+7404016+7513704+7461417+7345706+7305530+7415968+7613553
3317+7775984+7891374+7965967+7983905+8015012+8105078+8263269+8494180+8737813
3300+8977570+9222116+9390343+9426407+9429914+9533845+9702469+9844861+10006833
3283+10198225+10325370+10455130+10730174+11069477+11329748+11581974+11918962
3267+12224039+12429962+12676938+12990207+13216320+13377116+13653627+14026098
3252+14347190+14577437+14778448+15074926+15484506+15894028+16266803+16606579
3236+16902215+17231301+17679066+18174534+18639048+19131951+19667311+20171013
3221+20646140+21149759+21660845+22113190+22517770+22931343+23369725+23847442
3206+24392661+25005885+25664721+26298591+26836841+27321843+27859525+28486211
3190+29132897+29742755+30345620+30959170+31555086+32145109+32758274+33359380
3175+33954386+34634677+35404936+36138301+36749861+37298077+37851579+38435129
3159+39044010+39592968+40055370+40519803+41041674+41622189+42232870+42808318
3144+43344018+43920463+44531100+45092861+45584100+46051350+46583034+47187878
3128+47759845+48236331+48645043+49016204+49348712+49670256+50052928+50550846
3113+51118634+51612990+51988735+52353537+52728690+53035433+53290382+53551805
3098+53832004+54138901+54466861+54802486+55140736+55454750+55700131+55871791
3082+56008089+56140610+56283567+56450077+56653233+56834835+56916305+56976463
3067+57108546+57197935+57125277+57008287+56996059+57026554+56996773+56920463
3051+56804600+56606441+56356854+56123539+55894423+55681017+55519055+55325764
3036+54982029+54478664+53916769+53363397+52782964+52167030+51553820+50929140
3020+50244768+49485468+48652375+47721901+46670242+45511572+44288504+43007214
3005+41578518+39921881+38104299+36218575+34234816+32036930+29609172+26988739
2990+24206835+21353646+18533571+15782917+13185428+10975763+9380429+8389166
2974+7894907+7861065+8084445+8290861+8568420+9192870+10258365+11798463+13791508
2957+15891448+17603437+18635443+18906860+18507786+17645690+16550373+15432151
2941+14484597+13924462+13881137+14302941+15059248+16033931+17126169+18234154
2926+19382456+20701323+22168517+23641726+24982999+26060721+26851126+27375304
2910+27569712+27468699+27258176+27026140+26730110+26388446+26089422+25798051
2895+25360562+24702469+23816917+22668008+21280455+19827084+18524166+17633831
2880+17513082+18357598+20061921+22354689+24989357+27859683+30880323+33931247
2864+36886305+39648081+42246054+44780205+47346306+50006865+52754504+55513312
2849+58144666+60566930+62801556+64839025+66629241+68215696+69721862+71199754
2833+72651771+74104527+75565737+77009859+78380695+79628385+80771208+81868775
2818+82955213+84018815+85048657+86059433+87055489+88053093+89093789+90172955
2802+91227601+92204867+93104089+93928849+94657593+95295170+95853875+96329210
2787+96717438+97008176+97225246+97426242+97622196+97783100+97884279+97889710
2772+97807548+97746169+97779858+97852090+97864695+97783554+97674658+97631713
2756+97639284+97627482+97630181+97676344+97682529+97594644+97457499+97350111
2741+97352299+97510626+97786189+98156730+98642959+99133226+99527031+99904470
2725+100288824+100622596+101010305+101590013+102270859+102931862+103586875
2712+104205986+104732551+105164722+105573361+106066375+106560751+106919709
2698+107234934+107592157+107911485+108142400+108323042+108514254+108724880
2685+108843065+108840001+108848877+108862236+108856205+109031602+109511582
2671+110159429+110739048+111135001+111455220+111834961+112247337+112589321
2658+112880966+113211083+113537851+113800680+114031044+114283951+114610630
2644+114963403+115225988+115383536+115510371+115667894+115867269+116087314
2631+116294082+116427523+116464129+116522314+116699957+116900969+117020784
2617+117068941+117088542+117081749+117029311+117000251+117089871+117252720
2604+117333902+117281367+117176516+117084554+117041414+117038463+117034305
2590+117030722+117037758+117025728+116973040+116928821+116906919+116874827
2577+116866446+116900094+117002975+117227746+117484989+117642845+117706421
2563+117709444+117657558+117628368+117683870+117744916+117705432+117608468
2550+117595231+117663483+117709315+117755875+117858708+117992830+118150370
2536+118339255+118542635+118760750+119014865+119333536+119701069+120034209
2523+120314279+120584590+120818650+120990141+121161915+121371195+121593032
2509+121881702+122251497+122573248+122842027+123146731+123452748+123717036
2496+123974231+124251228+124516610+124728331+124898532+125082473+125330168
2482+125617582+125864312+126071282+126317153+126632346+126972449+127262182
2469+127480557+127672807+127896467+128187772+128505365+128820136+129164228
2455+129517762+129842366+130139743+130409348+130603389+130696819+130786690
2442+130956883+131158293+131335425+131521830+131724374+131841709+131865046
2428+131947111+132108850+132198307+132175165+132136499+132126691+132140779
2415+132203657+132306409+132425956+132579880+132773524+133002640+133242861
2401+133456746+133638668+133792390+133954218+134144085+134338742+134509941
2388+134664011+134808249+134900584+134905651+134852702+134816185+134822532
2374+134768732+134546936+134295456+134264070+134406054+134419721+134021806
2361+133512085+133685335+134579912+135340821+135337505+134678667+134224756
2347+134847669+136132654+136766624+136563552+136331413+136256611+136237270
2334+136363724+136755907+137257846+137608058+137832999+138150446+138625489
2320+139050032+139286792+139474867+139733950+139969073+140130398+140303202
2307+140539653+140825276+141129996+141402471+141607342+141770369+141927155
2293+142071166+142207687+142362771+142503945+142554737+142543016+142586124
2280+142699235+142774718+142763920+142726146+142688437+142635813+142593160
2266+142570122+142533078+142480065+142446782+142463091+142546048+142694987
2253+142907494+143185448+143474670+143713861+143886973+144033383+144172012
2239+144282739+144371759+144476262+144619851+144805024+145001433+145200191
2226+145434763+145640168+145713122+145716040+145779526+145906320+145994595
2212+145994222+145990266+146055373+146137001+146194569+146261249+146375025
2199+146554686+146804999+147124261+147474456+147782273+148007490+148179661
2185+148356890+148547138+148719990+148886098+149070444+149256509+149427562
2172+149596815+149778130+149950139+150091118+150218382+150348613+150509825
2158+150705617+150876767+151004404+151132705+151303725+151467580+151537129
2145+151561982+151626490+151733002+151868307+152012448+152165262+152345393
2131+152527146+152726829+153011398+153322635+153558568+153741115+153931460
2118+154150192+154402839+154682431+154951047+155203630+155466232+155688222
2104+155832525+155996509+156261494+156527062+156677201+156792663+156981419
2091+157243599+157494042+157660879+157762804+157848630+157926172+157982995
2077+158026994+158070588+158076052+158020850+157962341+157955062+157994911
2064+158078078+158267791+158600704+158987635+159352421+159720206+160104024
2050+160468680+160807657+161119072+161335972+161420550+161435174+161478070
2037+161626832+161865747+162117746+162371415+162678405+163051799+163439363
2023+163813535+164195376+164589392+164969547+165306124+165602592+165893678
2010+166179268+166410905+166586610+166769465+166976865+167192484+167441938
1996+167711932+167928686+168054475+168098896+168133995+168237152+168384502
1983+168526568+168637669+168715551+168816941+168980033+169172242+169331152
1969+169446954+169599477+169795982+169923473+169969320+170030634+170120805
1956+170176137+170164091+170058259+169821289+169479751+169099742+168726008
1942+168362957+167973496+167604544+167344018+167171263+167057909+167029959
1929+167136067+167457275+168082992+168991009+170014714+171098922+172217289
1915+173185112+173968021+174660516+175275711+175837602+176366161+176822529
1902+177208260+177581282+177951660+178275754+178516388+178715180+178966741
1888+179221350+179415116+179647466+179912564+180115343+180301343+180536320
1875+180761828+180895156+181017978+181238882+181448211+181597248+181816580
1861+182080786+182299259+182516305+182749092+182931396+183056536+183164768
1848+183233798+183320484+183481696+183547273+183524917+183634591+183880559
1834+184118437+184340882+184633913+184906469+185085433+185279263+185471035
1821+185602854+185725709+185878717+186044274+186210917+186390011+186537621
1807+186630791+186724123+186867794+187059403+187212931+187265150+187304139
1794+187452009+187620273+187597965+187468237+187460731+187544579+187589519
1780+187598176+187592858+187604563+187725943+187915688+187926501+187747926
1767+187593021+187510631+187546849+187674891+187735718+187766083+187817719
1753+187923794+188198830+188484161+188513650+188395319+188370904+188502480
1740+188655035+188634997+188589311+188733549+188761483+188530656+188329612
1726+188231999+188164509+188073641+187986274+188012408+187999471+187678928
1713+187182485+186764394+186456237+186226254+186018789+185789389+185630123
1699+185370942+184767759+184045386+183304953+182571458+182014236+181596372
1686+181233127+180745811+179859988+178817007+178024128+177545745+177174458
1672+176766224+176470696+176323038+176139664+176000241+176029941+176108731
1659+176195936+176422612+177003600+177872270+178331523+178379008+178691851
1645+179165565+179425475+179746051+180403981+181410032+182635868+183630927
1632+184268836+185005994+186017330+187094875+188156273+189121810+189888329
1618+190715123+191710944+192491696+193053425+193701418+194405407+195008687
1605+195527762+196031501+196501324+196898242+197249312+197593363+197906886
1591+198162095+198364485+198512695+198611183+198688255+198766364+198846013
1578+198957519+199005799+198757237+198359589+198095447+197848118+197542943
1564+197334927+197263595+197346843+197303590+196629593+195644699+194848594
1551+194248832+193747006+193321474+192949896+192529276+191939484+191076926
1537+189911187+188724795+187701511+186676185+185600244+184578711+183525273
1524+182329932+181015416+179571140+178037827+176516641+174982307+173412388
1510+171809477+169992585+167714202+165064565+162364282+159613028+156462198
1497+152688990+148467683+143896781+138657443+132733562+126793266+121409666
1483+116672632+112532895+109053237+106165155+103328513+99735444+95340182
1470+91261184+88379254+86458856+84602811+82351357+80542757+81088638+85251007
1454+91705108+98419526+104487936+109479458+113054564+115184113+116260491
1441+116871058+117605420+118702306+119728662+120302793+120652169+121004050
1427+121365999+121844949+122556753+123512416+124721976+126045578+127328148
1414+128714151+130313746+131976114+133546041+135027605+136362410+137344386
1400+137849357+137715754+136647401+134492043+131379165+127507299+123010485
1387+118507114+115422558+115180214+118444528+124776926+132739958+140820672
1373+148135986+154502332+160199529+165142626+168814525+171015982+171846749
1360+171642591+170984725+170253727+169450845+168495246+167449444+166652869
1346+166732632+168002710+169961069+171848240+173418094+174918318+176667153
1333+178817801+181352074+184216179+187380238+190769693+194272290+197799482
1319+201280258+204658023+207923375+211071141+214002413+216568055+218699282
1306+220377400+221637265+222638679+223558011+224492989+225475580+226524074
1292+227637756+228724055+229651494+230267435+230351041+229703226+228318740
1279+226555314+225142294+224946892+226589392+230039122+234614726+239506949
1265+244162429+248263055+251632422+254169353+255828779+256651521+256684658
1252+255874416+254141323+251464174+247911287+243748635+239497222+235823961
1238+233400741+232919747+235024565+239897836+246937612+254982919+262893797
1225+269918852+275721118+280350092+284072816+287097744+289574739+291648381
1211+293352130+294687284+295751762+296670495+297487838+298154150+298690183
1198+299165940+299607132+299996252+300328403+300580791+300726180+300750660
1184+300639543+300387155+299998879+299422510+298623681+297662895+296523420
1171+295125591+293460621+291503413+289236590+286748765+284200696+281768218
1157+279512354+277310119+274984479+272416404+269515173+266205855+262473112
1144+258319441+253864422+249464735+245415729+241743765+238370036+235231202
1130+232293981+229494076+226707010+223773306+220435909+216359407+211262037
1117+204820370+196507047+185824991+172609976+157027510+139655841+121832896
1103+105582756+92596881+83253124+76881719+72841614+71165895+72242241+76178103
1088+82544912+90223504+97397490+101987587+102063257+96213862+84526558+69629672
1072+56193007+48503743+47631969+50318589+51082121+46540388+37763313+28341414
1057+21118940+17037143+15991006+18061428+24267924+36521159+56939034+86834374
1042+125208173+167972589+209360243+244465253+270793018+287749952+295001342
1028+291250247+274057251+241724116+197839736+154368356+127043117+125305501
1015+147122348+182706909+222311651+260877481+296822660+329027397+355881046
1001+376102342+389441752+396620512+398741817+396671418+390980301+381997925
988+369595892+353281682+332294337+305345037+270782399+227798951+178738395
974+130689677+93228815+73622083+75028220+98311505+142088789+200831235+265572469
959+327218529+379452450+419739603+448677431+468576044+481996287+490937127
945+496863253+500774231+503202493+504506325+505030621+504916715+504113639
932+502661921+500656791+498055223+494825602+490978695+486369954+480782269
918+474002647+465854637+456435575+446187368+435794129+426208473+418869927
905+415113126+414341306+413436321+408503243+396781497+377122043+349731291
891+316873472+283580588+255734539+236750070+228254848+234606717+261424067
878+306991299+359823442+406725697+440668519+461229100+470639602+470885959
864+463607819+451781473+441581189+440538305+451183738+468295545+484381036
851+495791933+502748460+506525495+508272108+508772053+508345127+507236682
837+505682861+503741801+501569947+499461255+497395039+495063140+492380415
824+489516601+486481362+483068287+479159936+474760330+469709942+463789004
810+457191507+450560614+445087061+442356089+442969550+445762323+448886403
797+451091524+451920864+451496694+450305535+448718609+446740424+444315533
783+441641271+438843505+435740630+432135216+427978659+423509212+419350191
770+416370138+414813658+413606644+411355222+407344897+401560594+395082612
756+390482982+390351989+394577868+400221711+404469411+406562151+407123961
743+406840705+406065059+405084267+404061064+402868154+401468574+400067535
729+398744541+397437823+396173062+394839983+393558362+392021401+390409801
716+389141765+388072423+386871440+385598702+384414482+383281524+382169934
702+381188331+380353868+379498557+378497337+377452897+376613214+376112977
689+375817887+375547341+375264539+374976161+374703605+374568981+374517102
675+373930910+372988216+374451022+378648563+379494633+376300647+375382887
662+377372875+379287412+380459895+381445259+382570564+384097700+385925049
648+387620368+389132168+390820224+392870585+395243078+397903528+400751940
635+403616888+406389428+409074229+411824202+414771604+417899543+421064413
621+424436893+428200601+432121241+435894092+439561468+443326765+447275484
608+451360318+455606527+460017514+464434695+468829989+473297750+477835612
594+482492762+487452557+492684454+498030840+503440842+508761029+513937416
581+519291357+525099751+531080609+536813845+542339049+547922162+553606795
567+559285267+564953039+570519324+575876410+581142190+586544604+592097985
554+597692998+603451557+609318412+615071005+620753368+626603687+632818970
540+639256163+645524102+651345693+656878193+662482673+668279947+674210937
527+680040310+685452970+690434262+695460494+700813689+706175055+711216201
513+715821376+720075074+724372351+728969289+733418828+737116262+739857448
500+741552118+742352212+742684946+742474580+740915312+737832442+734240646
486+731248758+729957571+731599456+736295741+742166163+746417268+747543481
473+745919106+742593640+738964427+737585242+741761512+753309628+771081521
459+792380558+813731472+831194431+843942298+853197651+859293938+862661619
446+864334306+865268051+865832552+865881123+865661613+866625642+870415419
432+877386829+887574111+901140488+916999822+933716900+951170715+969221973
419+985935290+999277099+1009737391+1018312100+1025308735+1032402772+1042032557
405+1053935845+1064634258+1071107442+1073741823
##END=
