##TITLE=9
##JCAMP-DX=4.24
##DATA TYPE=INFRARED SPECTRUM
##DATE=16/11/2015
##SAMPLING PROCEDURE=Instrument type and / or accessory
##ORIGIN=Default
##XUNITS=1/CM
##YUNITS=TRANSMITTANCE
##RESOLUTION=4
##FIRSTX=3996.3359
##LASTX=399.24785
##DELTAX=-1.9287336
##MAXY=0.49566406
##MINY=0.0023191464
##XFACTOR=1
##YFACTOR=4.6162313e-010
##NPOINTS=1866
##FIRSTY=0.030919049
##XYDATA=(X++(Y..Y))
3996+66978986+67089916+67243435+67293695+67276199+67343119+67445701+67520639
3981+67624302+67713749+67788284+67948731+68120493+68185634+68219826+68306054
3965+68370460+68393597+68512258+68760079+69014259+69143976+69096589+68977057
3950+68931276+69007327+69132267+69188522+69170922+69115909+69069176+69094410
3935+69168348+69282239+69438418+69534313+69529269+69551906+69661270+69761636
3919+69831716+69849769+69760571+69647188+69683939+69869790+70023072+70089173
3904+70186118+70348550+70486773+70535782+70423609+70175336+69983262+69953871
3888+69918912+69926877+70148108+70264074+70164329+70088132+70064551+70101827
3873+70120226+70034805+70005979+69954549+69847606+69868677+69916701+69875343
3857+69663836+69321193+69257400+69471690+69441968+69256512+69143774+69060307
3842+68991768+68994060+69134042+69322573+69317497+69148512+69025113+69022789
3827+69147099+69254519+69263073+69378304+69392564+69107629+68970714+69032481
3811+68996885+68820499+68643952+68567336+68488403+68546023+68698642+68610252
3796+68462321+68461223+68491962+68486515+68451822+68441864+68450506+68347994
3780+68116022+67880395+67713007+67674941+67726298+67758909+67767237+67706624
3765+67632158+67617826+67617749+67672322+67748095+67674747+67432987+67318631
3749+67465178+67461950+67174715+67096513+67177749+67059092+66926624+66944910
3734+66947521+66729978+66356346+66031372+65898254+65833347+65666980+65502316
3719+65417751+65337975+65173751+64953218+64733876+64482747+64224451+63949958
3703+63566525+63029662+62347470+61601565+60900377+60206629+59401551+58503310
3688+57737210+57235326+56906498+56681773+56517618+56367581+56322010+56389604
3672+56245409+55963686+55799268+55530804+55083635+54676460+54401572+54142461
3657+53841055+53556100+53225679+52886461+52648158+52314505+51742731+51100417
3641+50564784+50130457+49707893+49278150+48861315+48343170+47710839+47279833
3626+47038383+46718582+46289194+45808788+45314123+44752375+44115456+43521997
3611+42965201+42345104+41653401+40951712+40330094+39829969+39388726+38929569
3595+38398192+37747946+37038376+36399819+35893089+35444966+34895094+34184411
3580+33429858+32796267+32315462+31830256+31213954+30557269+29977691+29454784
3564+28944725+28446398+27930843+27394108+26901959+26410785+25817738+25186238
3549+24610191+24086713+23600704+23118644+22626466+22181675+21799234+21401614
3533+20947807+20474621+19971394+19422443+18960634+18649121+18327447+17931940
3518+17549239+17202458+16915239+16686961+16406635+16000309+15492564+15011133
3503+14697465+14466357+14167182+13846673+13575606+13311228+13011254+12703605
3487+12453150+12246334+11978746+11681868+11475465+11305791+11040920+10656479
3472+10271342+10041182+9966149+9926226+9875036+9815604+9679677+9423849+9130313
3454+8929817+8830608+8679056+8412804+8161567+8035048+7981132+7842441+7574348
3437+7354532+7322840+7340019+7206076+7006197+6912749+6827952+6630082+6429165
3420+6332109+6318213+6291435+6149600+5930601+5791492+5779848+5811378+5803604
3402+5704023+5583371+5568919+5637022+5707910+5714911+5579097+5389304+5354959
3385+5461201+5544861+5550646+5447990+5268972+5140804+5070689+5023896+5053304
3368+5147077+5220430+5258055+5315264+5409267+5488158+5517900+5486677+5400238
3350+5344604+5397738+5509675+5589693+5619678+5581777+5496337+5482898+5566349
3333+5691295+5841213+5979386+6118296+6276043+6361649+6377793+6440598+6554701
3315+6659177+6711277+6716956+6758624+6859895+6997897+7172435+7309914+7361397
3298+7444364+7652163+7876194+8022488+8166405+8354018+8559453+8768551+8948319
3281+9086227+9223310+9373240+9513961+9683257+9954429+10334945+10745066+11051747
3263+11214465+11349842+11556939+11839531+12200593+12632974+13043292+13323787
3248+13485882+13638562+13872622+14223089+14678905+15189060+15691095+16130052
3233+16488053+16794143+17088074+17440964+17947145+18573261+19147269+19625260
3217+20128895+20716327+21344689+21958814+22568463+23186202+23745819+24233312
3202+24715843+25264271+25908877+26594799+27311797+28092424+28854668+29542069
3186+30184268+30787711+31395032+32059250+32764403+33485869+34214117+34924416
3171+35604433+36252990+36878599+37543997+38258610+38970968+39692557+40395856
3155+41037359+41699098+42425190+43112644+43750838+44427453+45055359+45573407
3140+46147990+46843735+47534752+48174390+48815365+49439739+50044758+50690038
3125+51310660+51842423+52361150+52891622+53385093+53828413+54251196+54690578
3109+55150716+55640217+56172929+56698224+57145475+57517614+57877204+58249706
3094+58613178+58947469+59249549+59569729+59921524+60187838+60289838+60338512
3078+60504367+60797287+61067869+61183512+61187620+61259515+61433673+61565154
3063+61595468+61577807+61542917+61492572+61410932+61257966+61032256+60795148
3047+60586858+60384681+60132720+59800761+59438104+59074713+58637045+58102788
3032+57552549+57010500+56392836+55617702+54735330+53834034+52867206+51790848
3017+50672885+49519753+48249599+46839244+45331187+43750164+42059680+40189890
3001+38118668+35855168+33395837+30752222+27973469+25060960+22059788+19063456
2986+16138908+13406766+11014262+9036090+7543838+6610478+6165334+6053217+6204499
2968+6577289+7090550+7748540+8719580+10172810+12069230+14070880+15681941
2953+16621960+16893600+16585163+15819406+14739854+13525038+12431565+11790180
2937+11829790+12427817+13267306+14212647+15277332+16413267+17617969+18985500
2922+20465266+21854169+23063155+24141526+25016569+25511539+25625199+25474536
2907+25139995+24762881+24479384+24248744+23965462+23585020+23080316+22394597
2891+21454222+20265680+18925828+17548129+16305549+15481692+15428990+16375786
2876+18193012+20548240+23253659+26262489+29497652+32831418+36147156+39360110
2860+42422826+45370540+48305629+51298059+54376611+57617004+60959856+64081414
2845+66814358+69266898+71506197+73552704+75441378+77238216+79049500+80894620
2829+82720091+84497754+86203724+87836387+89434558+90989401+92442353+93769574
2814+94986318+96156740+97401946+98768468+100162775+101518815+102859836
2801+104151138+105324852+106413792+107461582+108407795+109177785+109773728
2787+110266361+110699380+111014876+111211404+111404301+111625467+111802998
2774+111885078+111875273+111824077+111807590+111852620+111849166+111713308
2760+111570389+111541740+111578023+111601660+111579839+111506709+111415776
2747+111338232+111278199+111256910+111329564+111515521+111757378+112072713
2733+112571478+113214285+113848069+114426202+114961589+115456319+115999550
2720+116715543+117603241+118570477+119495724+120272638+120912014+121478672
2706+122010524+122581823+123205495+123760920+124213129+124640185+125042909
2693+125382615+125674659+125930672+126115983+126249759+126387344+126473725
2679+126492068+126571993+126833533+127333848+127994634+128636165+129215469
2666+129777301+130314713+130844475+131361890+131794909+132125843+132436304
2652+132826600+133255366+133586954+133846000+134168945+134567021+134907042
2639+135110558+135255568+135435714+135654411+135852868+136001549+136136011
2625+136288566+136458584+136591352+136648955+136713870+136809403+136858226
2612+136904338+136961263+136931388+136855773+136811598+136797846+136795474
2598+136729623+136576858+136424045+136358775+136383695+136416863+136423286
2585+136418428+136360954+136238129+136168937+136277252+136498547+136666499
2571+136780334+136934988+137083701+137122502+137057942+136984118+136952257
2558+136940750+136950740+136975338+136966009+136903918+136842974+136867248
2544+136971416+137113286+137312518+137580667+137905080+138251799+138570289
2530+138873768+139199538+139501113+139752783+140049775+140432421+140817746
2517+141161027+141462425+141719728+142000176+142354739+142740161+143151440
2503+143578019+143961440+144297474+144588881+144863487+145186254+145541978
2490+145867618+146154087+146440087+146761885+147118207+147450142+147725344
2476+148004533+148330867+148671146+149002548+149360532+149749102+150121080
2463+150462166+150808465+151216741+151662785+152060716+152395152+152694952
2449+152980759+153279106+153589187+153854011+154061345+154255848+154431854
2436+154573821+154698616+154805559+154878431+154932484+154976142+155000788
2422+155044737+155108732+155159202+155216370+155264870+155288144+155361645
2409+155545141+155815404+156111605+156391085+156652665+156912890+157180571
2395+157451706+157708525+157987053+158289209+158523755+158651519+158731589
2382+158795632+158779073+158670838+158547594+158335159+157889745+157421637
2368+157186220+156935098+156493073+156130360+156154666+156824055+158013571
2355+159063701+159302460+158665803+158057762+158518251+159731137+160388663
2341+160155602+159784141+159670725+159812208+160123693+160634426+161288272
2328+161866212+162329510+162814822+163346021+163746615+163942828+164119771
2314+164458436+164874443+165245485+165614799+166007001+166327024+166551660
2301+166764772+167001109+167243306+167470556+167653471+167817162+168016684
2287+168217885+168341792+168384998+168395344+168409789+168437324+168436453
2274+168362628+168257606+168193740+168148887+168043541+167865985+167701648
2260+167648725+167715545+167861644+168075740+168343825+168628566+168891583
2247+169141188+169364888+169570172+169764416+169920684+170067396+170250036
2233+170466941+170708443+170974962+171252666+171481063+171627824+171742175
2220+171844809+171926381+172020880+172143383+172247921+172299440+172337111
2206+172400880+172441504+172438034+172498333+172715480+173057663+173435855
2193+173787641+174094075+174361401+174610392+174860529+175130018+175421861
2179+175690575+175900798+176076853+176242336+176411160+176618042+176847214
2166+177045057+177216980+177387515+177568848+177759896+177930270+178090443
2152+178266336+178420715+178548898+178696724+178823520+178884852+178941955
2139+179044008+179182489+179334463+179522509+179802570+180143478+180487921
2125+180839030+181211524+181590442+181930398+182219675+182483047+182745563
2112+183031257+183315998+183573269+183854040+184162491+184396052+184547784
2098+184747500+185030498+185344953+185611876+185841305+186096849+186375683
2085+186601869+186735701+186806959+186835237+186835188+186848245+186858543
2071+186823487+186775777+186756005+186787914+186952187+187264253+187639249
2058+188037357+188481868+188968020+189435159+189858381+190248548+190584776
2044+190853991+191060905+191188588+191241269+191307508+191470586+191727308
2031+192075673+192511339+192977574+193430010+193902475+194442566+195020167
2017+195553997+195976040+196281893+196573623+196906106+197215493+197488597
2004+197767980+198031190+198236636+198424199+198640539+198843128+199007965
1990+199199078+199390192+199527769+199629402+199768803+199951878+200105144
1977+200241849+200385124+200514840+200645041+200802164+201004366+201229373
1963+201367321+201408833+201440516+201473732+201457511+201347792+201121961
1950+200794368+200406461+199949813+199349325+198700563+198140248+197625884
1936+197164394+196772193+196462031+196314738+196486903+197066279+197999201
1923+199263235+200710618+202119589+203569797+204889691+205923568+206870113
1909+207766058+208558046+209234924+209809442+210282569+210688489+211078979
1896+211480542+211911414+212262733+212540276+212889076+213146961+213287362
1882+213479089+213701836+213944727+214233600+214560240+214850824+215013951
1869+215224335+215570925+215815187+215987788+216207469+216439820+216659227
1855+216860879+217055253+217254581+217458203+217621459+217608612+217637631
1842+217773546+217718993+217725142+218015774+218386606+218658678+218944742
1828+219328341+219494889+219592778+219846708+220047651+220201238+220377955
1815+220550523+220692394+220865446+221100961+221325290+221492500+221546230
1801+221554106+221680450+221876518+221964998+221945710+222053299+222186777
1788+222011723+221748609+221710067+221755711+221767364+221839203+221901164
1774+221841559+221783407+221781954+221598685+221473762+221461092+221428876
1761+221566147+221680466+221718056+221901664+221996358+222069020+222357747
1747+222565953+222593536+222585434+222592665+222703223+222830552+222624702
1734+222546569+222736956+222490821+222026491+221683581+221500409+221537159
1720+221489724+221221494+220995777+220604479+219953619+219354601+218925423
1707+218644507+218523747+218230888+217600090+217151947+216384040+215325775
1693+214568036+213717347+212939304+212235844+211224449+210318868+209558466
1680+208500636+207436787+206639359+206180452+205672011+205005672+204695026
1666+204545748+204266736+204244205+204595637+205026719+205368353+205605288
1653+206423149+207611050+207813510+207787072+208477653+209263701+209897405
1639+210701966+211669670+213003686+214559094+215614471+216441127+217611694
1626+218895338+220077267+221352583+222407701+223113017+224143683+225381634
1612+226154577+226727401+227442804+228200656+228863024+229408216+229865203
1599+230247785+230586482+230898484+231146426+231312893+231420466+231460493
1585+231431232+231419223+231511189+231542920+231281840+231110337+231110966
1572+230641390+229991030+229675962+229435396+229275207+229005895+228322190
1558+227899840+227477053+226316396+225118343+224221978+223526894+222931007
1545+222332666+221541259+220259423+218943322+217761828+216190796+214589260
1531+213316608+211947907+210462933+209046909+207440902+205569022+203752372
1518+201737507+199537194+197456479+195498475+193443858+190642041+187212137
1504+183898247+180543846+176805153+172499269+167571092+162332173+156616479
1491+149910857+142489024+135211191+128624222+122792522+117740132+113582050
1477+110143358+106731289+102406618+97261593+92597361+89214409+86865681+84739281
1462+82290130+80195300+80551259+85058239+92321618+99813531+106530548+112171490
1447+116393664+118999759+120355444+121170472+121980464+123098229+124296815
1433+124960974+125226315+125574624+126045193+126601828+127339577+128237048
1420+129433859+131022265+132573170+134045208+135724087+137537057+139265647
1406+140858484+142374511+143638867+144350413+144217275+142708979+139776767
1393+136017189+131504108+126057112+120553844+116789141+116312447+119970724
1379+127369678+136814713+146573145+155761497+164078662+171593139+178140364
1366+182977947+185731005+186711540+186460838+185597721+184603451+183568137
1352+182342258+180925831+179790465+179746338+181177146+183449815+185600207
1339+187413628+189233877+191363045+193919777+196919954+200390837+204275985
1325+208417661+212705904+217095603+221514822+225846869+230011270+234026683
1312+237846399+241240456+244050036+246265392+247965979+249375030+250689275
1298+251946142+253129202+254296024+255524857+256754415+257762598+258294458
1285+258116499+257002664+254927904+252368251+250316119+249925580+251967851
1271+256405824+262402692+268851157+274897284+280073919+284226506+287357110
1258+289474641+290536651+290442748+289119755+286656991+283196389+278740112
1244+273355756+267677249+262807725+259652233+258922803+261373786+267269618
1231+275905741+285871943+295748794+304591137+311978237+317960773+322814286
1217+326754310+329941565+332539163+334685940+336459302+337887334+339023136
1204+339942920+340708471+341410785+342055770+342549427+342845660+342959059
1190+342969454+342966936+342880651+342577963+342047571+341336896+340466242
1177+339415724+338114746+336469987+334444744+332090957+329437998+326429638
1163+323080208+319582614+316191510+313025818+309999381+306942472+303649693
1150+299854542+295354172+290145870+284435034+278532456+272769456+267418864
1136+262563818+258113836+253940203+249970272+246155123+242368962+238424694
1123+234039789+228788813+222252386+214021505+203579093+190458223+174535987
1109+156137348+136125359+116104468+98167642+83959382+73761458+66724854+62149715
1094+60054905+60726509+64336958+70637383+78541244+86181596+91409089+92113816
1078+86717120+75337695+60776087+47804858+40499951+39559955+41777106+42189999
1063+37823130+29802986+21504906+15345275+11857887+10753312+12087817+16799539
1047+26876167+45077466+73753227+113066241+159725520+207674577+250647117
1034+284500982+307382641+318032015+314710346+295075886+257472676+206379764
1020+156366891+125515172+123789383+148753993+189935433+236661177+283142094
1007+327348777+367663179+401741647+427618431+444788351+454025930+456593508
993+453677855+446099400+434122030+417588122+396189467+369233888+335303681
980+292712382+241099441+183897150+129564318+88492976+67689858+69606071+95141253
964+143886422+211172155+287698599+362656981+427534536+478389044+515486686
951+541335871+558904932+570649984+578385223+583348003+586252357+587607727
937+587841627+587117589+585500429+583178340+580173724+576277214+571410757
924+565639041+558913066+550942442+541348718+530042577+517207949+503199751
910+488828405+475498635+465162666+459386657+457328747+455099044+447754069
897+431833899+406064930+370941786+329529738+288132280+253641371+229782276
883+218403472+224843366+256517125+312464083+379114096+439820018+484946647
870+512807872+525686207+526265083+516822462+501358601+488020374+486561192
856+500079541+521695892+541884501+555987601+564257589+568526739+570264819
843+570337320+569205005+567167948+564489359+561419151+558194386+554863937
829+551321021+547525289+543548402+539412956+534948965+529986991+524361729
816+517870333+510514641+502363798+493543727+484694153+477313993+473383008
802+473801679+477169540+480918144+483340526+483966144+483068729+481217863
789+478784150+475919339+472595830+468805392+464748192+460480721+455800809
775+450516230+444831832+439493539+435359642+432622304+430376461+427224487
762+422155473+415060184+407328980+401860050+401287953+405431824+411229492
748+415683896+417874509+418328010+417773376+416599323+415004662+413178845
735+411215580+409187464+407202797+405220810+403135656+401115804+399261128
721+397602263+395624181+393426047+391450354+389618274+387795621+386146471
708+384657947+383108511+381436346+379776673+378269879+376973194+375810277
694+374622311+373404809+372339539+371509332+370817864+370136628+369387282
681+368712825+368438994+368376404+367552103+366115195+367039692+370759598
667+371267491+368060738+367291572+369199929+370713890+371475503+372391478
654+373641905+375033784+376533154+378190373+379974452+381896819+384028747
640+386305386+388623794+391050567+393654589+396349350+399137270+402198021
627+405532085+408990266+412433986+415888002+419493412+423193789+426992911
613+431069607+435405028+439835706+444224324+448672465+453321679+458036485
600+462761621+467492857+472260893+477229646+482517485+488135258+493838379
586+499406634+505044937+510986186+517039351+523052100+529029601+534863907
573+540479291+546193419+552308658+558589815+564704279+570699307+576735589
559+582666897+588292191+593818837+599633872+605804891+612095667+618464626
546+625097764+631776675+637992239+643848593+649881905+656080942+661975774
532+667518818+673280011+679659816+686323103+692657780+698259445+703526303
519+708955206+714437177+719628370+724272096+728693542+733159276+737454250
505+741283166+744177836+745979831+746865592+747246882+747102139+745635985
492+742585532+738521037+733942710+729387754+726411868+726727243+730386883
478+735896550+740850550+742469647+739643023+734022571+728662295+727013178
465+731471165+743461544+762879406+786487073+809759545+827970201+840117203
451+848937435+854633228+856849116+857103869+856343418+854338383+851572832
438+849997120+851143187+854576867+860503010+871468824+888185953+907905180
424+927931324+947227684+965448283+983793998+1000688796+1013248528+1022259470
411+1029123216+1036304983+1045506441+1055830337+1065217340+1071015977
399+1073741823
##END=
