##TITLE=9
##JCAMP-DX=4.24
##DATA TYPE=INFRARED SPECTRUM
##DATE=16/11/2015
##SAMPLING PROCEDURE=Instrument type and / or accessory
##ORIGIN=Default
##XUNITS=1/CM
##YUNITS=TRANSMITTANCE
##RESOLUTION=4
##FIRSTX=3996.3359
##LASTX=399.24785
##DELTAX=-1.9287336
##MAXY=0.51333159
##MINY=0.0027794577
##XFACTOR=1
##YFACTOR=4.780773e-010
##NPOINTS=1866
##FIRSTY=0.030319564
##XYDATA=(X++(Y..Y))
3996+63419794+63496988+63566545+63681746+63860398+64006308+64028442+63976475
3981+63994740+64095774+64185603+64236533+64288901+64374799+64493284+64623963
3965+64712760+64763900+64850452+64931464+64928768+64902197+64903903+64910410
3950+64979690+65128312+65240656+65311601+65386219+65401383+65333146+65310646
3935+65480513+65737509+65835815+65769761+65736028+65824743+65916559+65945733
3919+65992385+66053382+66066395+66039076+66038577+66078247+66090551+66137648
3904+66297279+66399786+66326228+66190082+66122133+66180411+66320703+66413875
3888+66413688+66405849+66370059+66211993+66030863+65911026+65871356+65980556
3873+66138372+66221866+66236352+66188219+66160276+66161391+66118081+66067245
3857+66033746+66099092+66370012+66531467+66281687+65910286+65748605+65772543
3842+65802418+65786195+65778348+65722361+65550394+65351337+65224000+65218752
3827+65314309+65371024+65359776+65315890+65135960+64959485+64998045+65076466
3811+65082112+65154875+65307373+65317609+65143986+65027278+64973461+64852806
3796+64727027+64627766+64546419+64536157+64601565+64650772+64589264+64458674
3780+64408379+64454284+64474851+64452332+64460178+64505919+64472965+64321403
3765+64186316+64092486+64002899+64000955+64098521+64176525+64171258+64121594
3749+64013216+63830940+63772412+63883666+63870244+63699878+63575994+63547579
3734+63544267+63463622+63226621+62951762+62828418+62760053+62546990+62270007
3719+62090575+62000057+61905062+61789258+61675771+61515797+61242071+60845930
3703+60369450+59805639+59187388+58663446+58245533+57762247+57095368+56297984
3688+55528677+54932567+54569480+54425760+54441150+54522820+54576937+54451163
3672+54139013+53881585+53707768+53491249+53261986+53025180+52745497+52491455
3657+52344945+52201248+51892329+51442487+50918865+50350328+49845029+49428990
3641+49000767+48538127+48073188+47601754+47178799+46868473+46615296+46257998
3626+45747362+45240722+44786330+44306983+43838553+43413330+42937350+42358799
3611+41752813+41197885+40691628+40214704+39712716+39111507+38447971+37823633
3595+37260360+36729510+36189493+35582026+34961219+34492586+34175851+33811389
3580+33255689+32566141+31886557+31297174+30789065+30322765+29896954+29471251
3564+28934352+28317622+27748656+27222681+26727531+26292773+25832133+25329933
3549+24907072+24522085+24053986+23547693+23038664+22473045+21919707+21511102
3533+21196572+20838036+20462917+20121929+19700344+19191291+18793949+18559633
3518+18317464+17932617+17459327+17065579+16783107+16481267+16111925+15744744
3503+15456321+15243862+14993552+14663488+14373661+14166059+13948894+13689632
3487+13396950+13064299+12702483+12367670+12152488+12023984+11845319+11591599
3472+11283869+10912571+10590908+10447508+10406956+10332672+10192995+9984361
3456+9697896+9401138+9176798+9049418+9002306+8929770+8783754+8637805+8478783
3439+8292788+8158482+8092002+8056045+8019090+7947497+7851110+7754889+7673331
3422+7587140+7412429+7188340+7042747+6947749+6847386+6779350+6750630+6708146
3404+6592238+6422514+6326663+6338243+6323670+6240630+6223806+6317589+6380681
3387+6350085+6304933+6267234+6210329+6146324+6074744+6000192+5950661+5896454
3369+5827106+5813825+5887368+5992410+6047091+6042287+6031060+6076902+6218131
3352+6320188+6253025+6187411+6270252+6359512+6362105+6362268+6406005+6501894
3335+6641047+6775186+6887610+6986529+7058951+7077001+7064934+7136761+7337074
3317+7545853+7682810+7757675+7770590+7790367+7899196+8108753+8373325+8558058
3300+8602984+8639184+8760184+8898438+9008096+9137488+9309863+9529402+9819551
3283+10137472+10348208+10422796+10522665+10730170+10962309+11171940+11399142
3267+11704213+12072657+12391211+12630695+12880435+13156652+13441664+13784045
3252+14164363+14482608+14722370+14983866+15349570+15772941+16188423+16586347
3236+16944965+17334047+17853842+18394520+18822409+19219522+19697141+20209027
3221+20656223+21045091+21475735+21983114+22495002+23022448+23645318+24314003
3206+24942515+25533447+26113774+26713984+27383801+28120188+28790987+29306252
3190+29817405+30496303+31283800+32038542+32730933+33412231+34078452+34659195
3175+35176440+35743134+36408942+37148717+37902880+38616221+39314276+40014416
3159+40643678+41210228+41831125+42563131+43335283+44007858+44590897+45236101
3144+45923131+46539629+47115343+47660838+48117798+48539007+49043196+49656316
3128+50288376+50826765+51254562+51658831+52138759+52752124+53428506+53972766
3113+54337821+54668239+55047900+55459863+55884045+56325136+56755030+57123809
3098+57468086+57805661+58055683+58242786+58493743+58812219+59103321+59315492
3082+59470156+59633478+59834233+60034509+60200892+60330029+60393641+60363368
3067+60314328+60352366+60452652+60512512+60494878+60411131+60267150+60110764
3051+60009394+59911633+59697432+59389600+59084896+58773741+58421434+58044976
3036+57653299+57231825+56741721+56125955+55394564+54637662+53913467+53189093
3020+52396436+51515637+50555692+49487603+48280227+46963231+45577744+44096148
3005+42450666+40601230+38570850+36423112+34192935+31810945+29212256+26408343
2990+23498281+20542579+17528212+14621538+12104074+10091588+8643151+7765722
2974+7308244+7163082+7305439+7637633+8089967+8765878+9858809+11489678+13508963
2957+15523781+17211861+18348130+18743984+18424077+17561982+16304269+14931696
2941+13894005+13440835+13515545+14026262+14886986+15889973+16871979+17903782
2926+19137610+20612710+22195758+23701652+25052380+26175383+26960254+27376953
2910+27496143+27426087+27223929+26905124+26520232+26185004+25944994+25637288
2895+25111891+24372622+23429957+22289700+20986671+19584674+18259145+17358039
2880+17257644+18137845+19921556+22334332+25102669+28120903+31364045+34749367
2864+38099833+41254975+44212015+47060723+49872835+52754224+55787445+58875472
2849+61871742+64720840+67327304+69584122+71558689+73397477+75169167+76897266
2833+78597609+80280366+81916073+83468387+84969756+86446384+87858688+89180765
2818+90443559+91641163+92764133+93885085+95032663+96217690+97452081+98646623
2802+99768969+100865259+101918005+102901003+103803594+104587531+105211424
2789+105707377+106149033+106494478+106682333+106821923+107009482+107174779
2775+107265185+107342187+107422564+107397123+107257431+107166192+107159522
2762+107142691+107114109+107093007+107044937+106964030+106877030+106817778
2748+106790474+106737619+106649403+106610613+106679902+106878472+107213491
2735+107636968+108112169+108610459+109064817+109461831+109813970+110167379
2721+110671529+111394905+112259617+113157430+113974446+114641368+115134998
2708+115471459+115781645+116212306+116735344+117247730+117744914+118213835
2694+118589974+118900097+119197542+119433093+119560902+119595748+119549400
2681+119500488+119566660+119763149+120076670+120526718+121071130+121612347
2667+122097531+122532096+122941656+123347265+123738739+124114660+124488609
2654+124834023+125134889+125436979+125787972+126155103+126467728+126730178
2640+126978275+127197992+127353962+127434440+127500627+127644090+127853787
2627+128056533+128241669+128420984+128536020+128513766+128422846+128411041
2613+128480485+128531446+128541732+128541662+128538350+128517709+128474181
2600+128450664+128454062+128418077+128341768+128264523+128199544+128186780
2586+128227393+128228671+128162476+128129172+128150312+128158206+128179783
2573+128299027+128528384+128767551+128909027+128955640+128960105+128968856
2559+129018757+129075313+129070614+129024126+128984261+128960237+128965022
2546+128999035+129045656+129111360+129245207+129479917+129778765+130083192
2532+130351097+130592827+130859524+131173785+131524202+131876239+132193259
2519+132476132+132744216+132994659+133242608+133537762+133869524+134168777
2505+134425064+134672514+134924842+135185929+135459826+135776299+136150794
2492+136522094+136812433+137037971+137298185+137599464+137881558+138173923
2478+138512324+138853686+139144851+139396681+139625086+139827357+140069415
2465+140400881+140773366+141141829+141521062+141924138+142281179+142532011
2451+142780536+143101826+143377936+143549739+143688970+143841293+144009886
2438+144182515+144352167+144516365+144666522+144767088+144803837+144852959
2424+144930367+144937863+144879998+144869712+144952559+145093287+145221578
2411+145343012+145552748+145823310+146064386+146285919+146482050+146617869
2397+146742030+146936213+147214271+147536854+147844133+148070528+148189484
2384+148241287+148293137+148340436+148326378+148255126+148180227+148077790
2370+147841047+147412864+146932815+146718108+146854628+147147507+147475685
2357+147739078+147923629+148029977+147926185+147882018+148462322+149464403
2343+149999496+149808586+149455255+149448865+149837402+150245232+150579596
2330+151057494+151560530+151776826+151818343+152071170+152538689+152922332
2316+153153745+153398188+153680765+153926408+154160751+154441895+154745247
2303+155015887+155246116+155474678+155729936+155967303+156128337+156230805
2289+156337403+156490645+156673420+156837867+156957150+157019894+157027810
2276+156992714+156910132+156779316+156641612+156555554+156531632+156505466
2262+156428307+156377860+156450047+156624453+156846999+157110003+157395339
2249+157641464+157859554+158063694+158217763+158308823+158420470+158615743
2235+158822689+158995412+159189516+159404130+159578801+159734427+159925306
2222+160112242+160249167+160339697+160377006+160404030+160504861+160664524
2208+160756457+160743600+160744192+160828987+161014785+161323950+161689842
2195+162005942+162227506+162399870+162615871+162890095+163171364+163449827
2181+163723989+163981507+164218484+164402319+164552085+164735857+164927141
2168+165077968+165219911+165362680+165489460+165658333+165880443+166061129
2154+166196995+166344081+166488393+166609671+166711189+166791308+166857371
2141+166947667+167084032+167240905+167421279+167654018+167911224+168157178
2127+168411096+168697819+169025576+169376226+169699043+169965615+170204104
2114+170476334+170781447+171028258+171183230+171330612+171544057+171798458
2100+172025835+172239888+172508253+172820285+173067532+173258458+173451892
2087+173639467+173811940+173959650+174046782+174065624+174055884+174050117
2073+174057598+174081847+174101624+174122118+174203921+174371454+174603802
2060+174903804+175283800+175705422+176128338+176570749+176996579+177322466
2046+177578909+177817211+177994126+178101627+178206168+178353862+178539192
2033+178740294+178986529+179355772+179838953+180325765+180765699+181188022
2019+181618372+182046586+182430104+182749602+183032990+183312435+183589012
2006+183836182+184055611+184294178+184565099+184805146+184963282+185082082
1992+185228498+185383938+185508021+185627959+185772692+185926807+186081078
1979+186248829+186414959+186554612+186691350+186864821+187083814+187275456
1965+187352131+187371051+187439420+187551020+187647488+187687540+187615493
1952+187412474+187136972+186816930+186414258+185946615+185475621+185004768
1938+184581073+184284937+184073222+183870499+183735880+183831242+184254843
1925+185059267+186224346+187523623+188819378+190075471+191144627+192053482
1911+192912374+193676761+194310784+194841154+195302829+195742700+196181309
1898+196591150+196957494+197270991+197543563+197832936+198082287+198228532
1884+198391530+198643920+198913828+199131621+199316390+199538765+199811883
1871+200130024+200459199+200672800+200767725+200911429+201158989+201424314
1857+201627489+201784019+201972513+202200047+202415580+202585653+202754121
1844+202890439+202824688+202711856+202830594+203120917+203452820+203850317
1830+204281197+204549748+204662439+204802326+204926456+205000654+205114171
1817+205272244+205452479+205669882+205893425+206029805+206079551+206137915
1803+206281557+206518425+206731730+206830753+206924260+207117523+207248168
1790+207122713+206928982+206920130+207004473+207020292+207016832+207059471
1776+207145887+207299612+207435166+207320184+207022099+206816945+206749075
1763+206803605+206925429+207025435+207171664+207340833+207510797+207781951
1749+208025474+208075251+208057594+208099890+208211148+208364249+208477330
1736+208588572+208648105+208365200+207906191+207631156+207497831+207426859
1722+207475374+207660034+207827068+207597727+206892889+206164720+205722027
1709+205473362+205283403+205098041+204918929+204764627+204335337+203447864
1695+202455990+201530133+200745689+200255012+199925712+199528277+198816970
1682+197691569+196575207+195814747+195323540+194862474+194395189+194050040
1668+193742418+193395368+193246832+193359617+193510334+193709691+194174342
1655+195052417+196045849+196435851+196468594+196767472+197116222+197352202
1641+197890972+198896919+200204502+201519457+202417824+203048247+203974120
1628+205205278+206400264+207508537+208508437+209346772+210302459+211412213
1614+212223914+212776945+213449633+214225381+214883155+215374658+215794908
1601+216215253+216638636+217036071+217376545+217631600+217796297+217888744
1587+217921082+217920474+217946859+218029238+218130506+218219618+218161862
1574+217811383+217450992+217286217+216998357+216547810+216326105+216459835
1560+216699587+216382817+215189639+213890860+212990468+212291193+211624240
1547+211094212+210786185+210459706+209716670+208407434+206819003+205416837
1533+204244978+203021255+201736845+200530062+199337024+198050729+196571046
1520+194793528+192798856+190762979+188818770+187077019+185462561+183494446
1506+180660410+177251479+173948367+170750574+167136084+162767056+157888665
1493+152724798+146874903+140192548+133471138+127485814+122286859+117677877
1479+113733393+110483019+107377362+103493813+98702439+94188405+90958859
1466+88812901+86799061+84428195+82587615+83240503+87662097+94531770+101778579
1450+108383542+113835651+117758308+120089028+121261089+121970011+122865144
1437+124119055+125216677+125811466+126179197+126552445+126938456+127438882
1423+128177180+129202467+130542482+132003268+133380374+134826161+136477117
1410+138212900+139878848+141434085+142811830+143893439+144605135+144608625
1396+143355011+140724415+137091270+132728523+127677565+122607533+119130318
1383+118785231+122356373+129457709+138459399+147640786+156060327+163530414
1369+170353560+176361559+180796774+183308663+184113243+183783444+182987795
1356+182102644+181160297+180057166+178806217+177798977+177761917+179068114
1342+181221918+183398056+185240794+186941855+188866038+191235064+194072076
1329+197324648+200907580+204718949+208678370+212734586+216797192+220724915
1315+224487208+228130015+231558816+234581642+237081344+239038270+240532182
1302+241737360+242815634+243856785+244934576+246139458+247473286+248784298
1288+249810894+250292392+250101108+249127421+247327945+245105974+243342623
1275+243046985+244928233+248947997+254321865+260128030+265662916+270431546
1261+274236868+277067350+278938452+279877510+279831349+278709579+276546798
1248+273438101+269391064+264516959+259444714+255151863+252387365+251796495
1234+254135475+259644834+267600845+276703047+285695005+293728861+300432333
1221+305829827+310151712+313622934+316405198+318665756+320556495+322115035
1207+323345117+324332456+325182495+325922134+326535009+326989140+327329255
1194+327636612+327889361+328012759+328028686+327945091+327675761+327194917
1180+326582510+325877001+324999066+323848620+322387265+320594085+318435293
1167+315908988+313056407+309994153+306918371+303957852+301118237+298359973
1153+295590862+292643403+289310072+285396469+280846178+275828728+270627474
1140+265496848+260664214+256284199+252300030+248561487+245032057+241656866
1126+238265374+234663149+230607338+225790163+219847291+212299000+202629243
1113+190469820+175686487+158461956+139506177+120300400+102929819+89116261
1099+79222718+72466726+68098384+66104515+66877567+70637975+77095921+85132037
1084+92802135+97837228+98161510+92397446+80744456+65910317+52617420+45055996
1069+44112991+46567693+47158929+42626735+34060323+25043726+18296706+14482517
1053+13292221+14838744+20171427+31290811+50821357+80808438+120879979+167186484
1038+213531358+254067246+285283638+305826616+314853109+310938322+291856325
1024+255949912+207240422+159253054+129321368+127445669+151461163+191062154
1011+235714088+279741302+321150325+358453091+389677103+413169848+428529713
997+436592930+438657062+435800647+428664550+417527546+402345032+382706233
984+357805089+326440504+287079592+238955096+184806222+132520065+92331453
970+71656895+73459434+98623916+146243997+211210893+284162803+354744517
957+415237564+462241568+496169205+519525928+535226314+545674952+552556679
943+556916278+559391840+560466295+560552322+559876205+558465499+556366396
930+553623716+550157294+545871316+540751506+534736400+527586309+519049667
916+509010931+497540295+485046195+472306609+460511224+451383713+446416319
903+444866475+443069897+436558239+422278876+398973239+366953608+328944056
889+290680601+258589609+236347721+225888283+232365063+262608423+315162336
876+376884686+432283669+472864004+497663443+509092750+509603889+501073886
862+486932664+474666846+473325740+485747465+505616042+524210962+537323547
849+545172321+549234943+550764465+550719145+549680784+547952528+545796448
835+543344887+540566924+537505698+534334944+531101791+527654008+523910556
822+519861649+515437280+510530542+505022991+498798024+491698956+483747199
808+475542475+468626618+465087665+465779398+469190526+472841687+475254131
795+476069043+475429488+473723923+471399625+468824821+466012760+462850609
781+459352893+455467716+451139722+446340703+441216436+436298508+432429383
768+430070019+428379977+425772291+421198717+414545801+407062513+401732344
754+401418660+405836794+411630476+415799696+417755889+418209210+417826799
741+416976479+415813098+414422278+412818761+411054100+409284889+407597465
727+405934914+404159345+402166434+400293461+398453653+396658571+395067677
714+393607724+392126982+390633335+389129683+387593491+386053184+384580982
700+383277778+382150460+381109230+380154588+379327956+378521398+377673322
687+376980904+376525090+376095862+375548879+374992046+374571390+374049871
673+373437620+374273851+376732457+377131170+375173636+374845801+376509724
660+378209116+379449235+380524220+381648390+383063211+384766998+386495659
646+388209140+390110227+392220707+394426626+396752732+399264824+401931669
633+404638473+407352633+410277495+413513766+416806110+420073892+423514537
619+427173490+430850365+434471634+438249715+442233759+446334937+450682224
606+455318822+460062329+464804714+469510382+474262180+479195131+484187398
592+489162365+494142756+499272446+504820579+510683425+516499206+521988586
579+527429466+533435845+539761020+545662484+551205506+556890408+562784516
565+568766209+574699964+580517335+586285458+592070475+598006599+604071763
552+610043045+615860042+621830140+628168281+634494391+640537112+646687180
538+653152802+659346880+664825070+669986771+675527486+681716016+687914644
525+693442331+698723595+704317859+709776599+714758891+719592882+724356804
511+729088000+733893315+738364935+742139618+745294288+747469070+748430569
498+748912005+749020223+747886983+745157145+741241205+736917574+733318559
484+731721401+733007743+737173222+742832254+747573735+749180618+746535934
471+741035864+736190715+734931365+739367390+751105612+769825364+792905026
457+815814133+833874662+846259576+854721319+860482523+863686752+864301528
444+863453110+862495101+861790372+861087263+860834545+863357982+870887774
430+882854838+897651854+915157701+934929841+954631102+972283006+987018557
417+999274059+1011068010+1022584995+1032409693+1041042678+1050012662+1059740986
403+1068327779+1072827950+1073741823
##END=
