##TITLE=9
##JCAMP-DX=4.24
##DATA TYPE=INFRARED SPECTRUM
##DATE=16/11/2015
##SAMPLING PROCEDURE=Instrument type and / or accessory
##ORIGIN=Default
##XUNITS=1/CM
##YUNITS=TRANSMITTANCE
##RESOLUTION=4
##FIRSTX=3996.3359
##LASTX=399.24785
##DELTAX=-1.9287336
##MAXY=0.51349366
##MINY=0.0030076231
##XFACTOR=1
##YFACTOR=4.7822824e-010
##NPOINTS=1866
##FIRSTY=0.030227508
##XYDATA=(X++(Y..Y))
3996+63207285+63249615+63425224+63606827+63568633+63371743+63263823+63377079
3981+63646418+63870148+63969557+64054972+64116379+64094965+64083393+64112449
3965+64143246+64225923+64394151+64585390+64712531+64781634+64886005+65018513
3950+65073770+65025528+64937795+64900104+64951163+65060149+65213916+65338930
3935+65333742+65299743+65342326+65362248+65356126+65464310+65652573+65732598
3919+65672850+65617301+65612705+65587794+65535244+65494737+65534628+65728757
3904+65990642+66133483+66111227+65968939+65753786+65584974+65569410+65612822
3888+65630069+65762643+65980165+66087188+66123972+66057704+65832112+65672842
3873+65698938+65799886+65827524+65703339+65587684+65623058+65720703+65763437
3857+65734202+65755227+65861324+65782413+65468049+65182585+65051549+65017220
3842+64983848+64944167+64970469+65017695+65028803+65061859+65091472+65090541
3827+65118966+65119577+65070443+65057532+65025278+65001851+65046646+65013407
3811+64855769+64670625+64595119+64686898+64859231+65023611+65013368+64793178
3796+64547344+64394980+64374583+64409240+64366703+64282461+64217155+64145361
3780+64098315+64075798+64023451+63978002+63946574+63874908+63779767+63724877
3765+63721204+63704421+63663388+63632377+63581097+63538627+63618768+63805146
3749+63825341+63527741+63264310+63317471+63374828+63234919+63092503+63023010
3734+62929104+62802042+62690784+62637595+62619064+62490817+62184932+61836098
3719+61611620+61541605+61552636+61585723+61498504+61165289+60732380+60341353
3703+59969944+59567704+59095931+58537681+57891663+57184188+56519763+55987776
3688+55494571+54948301+54467465+54191384+54147574+54300550+54540592+54567864
3672+54280826+53994712+53769872+53411663+53026649+52790931+52625223+52377858
3657+52054886+51722489+51381305+51046297+50738002+50379337+49878953+49303394
3641+48834648+48548179+48274731+47824388+47245250+46702310+46292989+45933549
3626+45444039+44873559+44394519+44070772+43807209+43419321+42853063+42225149
3611+41663074+41167749+40616961+39982465+39393924+38927694+38505870+38022674
3595+37476311+36932927+36403682+35878379+35387389+34906234+34361877+33735100
3580+33084833+32509831+31997476+31429712+30822918+30346638+30050595+29715898
3564+29143197+28480609+27948458+27505539+27007451+26414383+25823215+25383498
3549+25090433+24808803+24440900+23977293+23438488+22826188+22228164+21740113
3533+21296943+20886330+20604753+20362738+20014146+19603582+19197713+18806265
3518+18407904+17982171+17607544+17341646+17101845+16770057+16348552+16001842
3503+15819979+15659239+15402326+15062667+14623467+14120994+13707058+13457803
3487+13335550+13293195+13239912+13065045+12771679+12454990+12212141+12029322
3472+11747064+11361551+11121302+11062965+10882048+10493453+10171462+10025693
3456+9956577+9949699+9947351+9805046+9537388+9279923+9085802+8943763+8825907
3439+8661189+8474074+8367172+8296598+8189374+8089768+8040689+8023082+7977827
3422+7904987+7852526+7757458+7523238+7166811+6843515+6750588+6868114+6949081
3404+6837839+6650670+6537543+6441975+6353829+6349340+6370329+6414998+6555865
3387+6627960+6495580+6345033+6314000+6360184+6434725+6459003+6379710+6289096
3369+6313576+6385481+6361783+6305574+6325257+6370651+6373613+6376760+6394210
3352+6385258+6404411+6477183+6516897+6482657+6438814+6491084+6681776+6923275
3335+7081658+7150642+7214058+7299555+7407185+7551037+7705511+7754730+7665399
3317+7649660+7846890+8084313+8181457+8170269+8187950+8345586+8612680+8857176
3300+9004634+9080737+9166669+9296929+9418163+9535276+9751365+10069685+10372520
3283+10615380+10821443+10989776+11147410+11340101+11566361+11799523+12022592
3267+12257308+12542067+12868756+13209551+13538256+13829159+14094664+14371015
3252+14691363+15070722+15470914+15823262+16110214+16390658+16736906+17172670
3236+17661007+18130781+18540161+18931352+19382734+19899169+20394082+20825731
3221+21287131+21825561+22347335+22826050+23353632+23982565+24665966+25323993
3206+25940159+26546079+27151060+27739634+28307999+28909035+29577614+30239596
3190+30842077+31423426+32014614+32667453+33443346+34243036+34877997+35358719
3175+35862437+36491212+37250789+38064011+38807950+39460659+40080199+40705578
3159+41341013+41954999+42545192+43174298+43839167+44462037+45057803+45699232
3144+46387307+47032655+47549191+47995814+48486679+49046432+49662082+50296797
3128+50884274+51416039+51934047+52430813+52871224+53268845+53693547+54207735
3113+54748248+55184721+55521987+55881824+56309225+56718317+57042765+57320739
3098+57589930+57854966+58137797+58451402+58787959+59109832+59370552+59596510
3082+59817806+59993201+60127041+60297898+60495625+60595533+60582871+60587179
3067+60621294+60601395+60559689+60538072+60489596+60406261+60345902+60320780
3051+60247841+60058627+59794051+59497814+59156622+58812586+58509287+58173852
3036+57759389+57327497+56908126+56428553+55823840+55114063+54324951+53471005
3020+52579524+51662204+50699847+49641100+48490951+47287680+45968996+44498185
3005+42935093+41227360+39280415+37194664+35072577+32729312+30059746+27195970
2990+24229016+21176476+18175027+15366738+12814332+10697102+9179131+8222818
2974+7752176+7675191+7832709+8106219+8510493+9225912+10449763+12159275+14124057
2957+16072940+17758578+18908313+19268682+18837302+17896050+16736211+15538550
2941+14501749+13874191+13820836+14333728+15227906+16269513+17404104+18691308
2926+20071442+21459110+22889794+24385563+25827129+27040453+27912763+28403714
2910+28532551+28376703+28067159+27732621+27434728+27191329+26943121+26553087
2895+25969592+25204442+24214611+22992695+21570765+20008804+18578438+17702034
2880+17707175+18736833+20668080+23193348+26061342+29145431+32384727+35720687
2864+39064042+42256218+45182233+47963884+50776323+53679491+56714013+59825502
2849+62859460+65689738+68225357+70473556+72502699+74332712+76028156+77666860
2833+79232823+80757040+82325628+83895229+85396467+86874748+88317274+89628464
2818+90822606+91972797+93069901+94110202+95178430+96338724+97540110+98686796
2802+99767355+100812899+101803392+102729518+103577614+104304821+104936424
2789+105494468+105905183+106152976+106340718+106533125+106712266+106844077
2775+106932343+107012765+107062627+107032785+106968675+106937414+106884109
2762+106753677+106644028+106629858+106632920+106602088+106599486+106618813
2748+106555497+106413451+106290886+106215185+106211828+106371923+106697871
2735+107098367+107544214+108022008+108461881+108840207+109231051+109695766
2721+110237677+110871617+111589187+112334490+113071005+113773604+114397378
2708+114920274+115375096+115798727+116194448+116541233+116845642+117187543
2694+117589737+117935096+118161319+118350743+118536568+118644986+118653532
2681+118644776+118712477+118844116+119024870+119372567+119903876+120473901
2667+121016420+121510860+121910234+122231165+122548598+122916634+123318882
2654+123662926+123903980+124145596+124478764+124854714+125185258+125436735
2640+125647854+125874536+126120335+126350188+126543304+126721433+126876068
2627+126940364+126940660+126974491+127063092+127190665+127300283+127330757
2613+127314702+127291792+127280256+127302628+127365390+127466867+127532270
2600+127453415+127252773+127079217+127045783+127105352+127135397+127084841
2586+126988131+126921981+126902981+126879472+126880882+126986129+127150813
2573+127262955+127354874+127516660+127670399+127719965+127726158+127758096
2559+127794965+127809532+127803082+127805162+127845240+127870113+127832223
2546+127807732+127873206+127995318+128118474+128269066+128501903+128800259
2532+129115527+129446506+129776240+130054311+130301995+130555677+130795773
2519+131043286+131344501+131650966+131898712+132134353+132401947+132690387
2505+133005686+133341627+133689114+134042068+134364908+134645698+134908432
2492+135193023+135522998+135815504+136020204+136241761+136498730+136720458
2478+136959277+137264683+137564168+137813722+138045857+138288228+138589599
2465+138963991+139338383+139684841+140041784+140429684+140791877+141060142
2451+141275981+141496976+141704512+141871322+142033521+142259627+142536304
2438+142770823+142901862+142958852+143009922+143092961+143207611+143310093
2424+143351535+143348217+143342546+143333338+143367660+143513905+143689658
2411+143797858+143881707+144016377+144221637+144488733+144805029+145062917
2397+145205065+145321476+145508742+145753278+146006571+146235091+146366879
2384+146347841+146245950+146151492+146059962+145957994+145905568+145876232
2370+145724254+145464839+145237689+145057994+144932454+144995738+145296268
2357+145729457+146298936+146916152+147135714+146850016+146652873+146966287
2343+147427441+147591556+147631502+147817849+148191384+148607779+148994323
2330+149394936+149745772+149992100+150279792+150681043+151023341+151239305
2316+151417473+151597728+151786537+152037632+152360955+152703347+153050179
2303+153381618+153619455+153761712+153908970+154106145+154304426+154474336
2289+154630194+154777982+154918229+155048661+155120825+155088918+155012376
2276+154987371+155012688+155015476+154947332+154834177+154745171+154691609
2262+154631550+154588519+154626144+154752447+154934151+155151112+155401039
2249+155638830+155833107+155996038+156192496+156410968+156582296+156722917
2235+156892547+157109368+157344339+157535360+157655042+157752507+157909316
2222+158129906+158339296+158502429+158616082+158681531+158722584+158759725
2208+158803551+158838480+158859185+158925087+159079480+159295303+159555326
2195+159850870+160122874+160375216+160676166+160997868+161285482+161522727
2181+161693386+161852328+162046496+162228232+162405667+162637600+162877774
2168+163040175+163164251+163341406+163534904+163671568+163785454+163943088
2154+164159956+164384955+164553620+164665746+164755515+164835703+164901308
2141+164957426+165042428+165195964+165403889+165626599+165849573+166096821
2127+166417167+166768923+167039461+167257715+167523456+167820075+168108047
2114+168374270+168577069+168744768+168985129+169295661+169559594+169755289
2100+169965270+170200287+170409100+170624799+170871236+171105895+171296542
2087+171478231+171667912+171808143+171855116+171836670+171809608+171823926
2073+171878345+171920410+171935491+171976948+172085163+172228293+172385381
2060+172603464+172927799+173366021+173867916+174328915+174697355+175009305
2046+175287711+175510281+175665578+175763448+175830176+175920163+176083250
2033+176330232+176663183+177082662+177523564+177923008+178314413+178734780
2019+179170151+179592372+179962371+180261358+180549564+180874351+181179398
2006+181424216+181631221+181830000+182077575+182370954+182584518+182690303
1992+182818040+182974973+183089311+183199536+183330669+183470200+183639082
1979+183822672+183950891+184022931+184133748+184288734+184435400+184605980
1965+184793636+184943246+185054251+185113188+185114964+185088214+185005191
1952+184843755+184633727+184373144+184047656+183691461+183296332+182822324
1938+182377419+182063943+181831044+181657441+181603801+181749189+182160661
1925+182922657+184031406+185273470+186513275+187693707+188677696+189516530
1911+190328645+191066181+191687306+192229085+192706396+193095666+193414408
1898+193736983+194090405+194408259+194696964+195046647+195372851+195578782
1884+195776050+196009260+196224554+196446391+196702971+196933953+197099735
1871+197345986+197745570+198040522+198111658+198182530+198370949+198602336
1857+198806631+198994364+199195418+199387047+199547921+199678198+199859201
1844+200084948+200098051+199960811+200002533+200245184+200546602+200937820
1830+201424899+201729619+201800008+201904297+202029635+202102594+202232792
1817+202441714+202648750+202834085+203026601+203204021+203342726+203445083
1803+203553050+203725235+203893276+203959707+204014937+204226460+204478210
1790+204435803+204176777+204069247+204160231+204256747+204287018+204273339
1776+204306414+204539469+204876813+204909156+204590025+204255251+204095919
1763+204178428+204346096+204389672+204424492+204527130+204741536+205172513
1749+205556627+205578298+205404679+205315019+205384426+205508159+205541919
1736+205664780+205949371+205867111+205355791+204913861+204693473+204587469
1722+204540606+204609857+204812532+204802296+204278605+203538732+202986593
1709+202716334+202621486+202468682+202245349+202223709+202086921+201358172
1695+200349536+199329091+198411923+197773364+197362967+197087490+196620913
1682+195537979+194255034+193381676+192952677+192603166+192167219+191816866
1668+191491658+191075918+190878494+191022854+191191705+191335832+191772168
1655+192761532+193910305+194265644+194190488+194570536+195092684+195284889
1641+195571568+196363960+197669417+199125186+200051577+200530290+201303067
1628+202510030+203768717+204916541+205861425+206617609+207598358+208817489
1614+209666886+210168204+210773221+211479909+212092170+212621095+213130687
1601+213586171+213964177+214310355+214645066+214923395+215102497+215183028
1587+215215745+215254787+215302912+215348420+215428047+215628104+215766965
1574+215483355+215061336+214899184+214691493+214228578+213827498+213813694
1560+214293887+214498525+213486088+211971771+210822031+210015649+209333141
1547+208794727+208490645+208287628+207810006+206662946+205020612+203563021
1533+202399026+201132907+199803083+198684861+197685776+196598759+195291370
1520+193631089+191715069+189743430+187800146+185979925+184314331+182490433
1506+179948131+176654303+173255375+170004748+166514680+162354878+157622776
1493+152523387+146765451+140247076+133636315+127637869+122427740+117924323
1479+114163147+111083997+108079349+104224898+99441984+94955377+91800012
1466+89787765+87895847+85566478+83762024+84542902+89118515+96010440+103148398
1450+109638464+115027555+118899525+121166357+122289736+122991579+123925807
1437+125247062+126387914+126989752+127355185+127708639+128082922+128634305
1423+129437330+130482585+131838528+133320470+134702267+136148626+137790119
1410+139511425+141201557+142819618+144214081+145211453+145795328+145727370
1396+144520780+142012473+138491526+134234009+129307989+124343752+120933692
1383+120670499+124332457+131434909+140314458+149287608+157423109+164558870
1369+171014085+176629983+180760651+183156739+183963931+183658946+182921753
1356+182104964+181160516+180011774+178777063+177884682+178010908+179410995
1342+181522943+183627631+185472094+187206425+189143914+191518190+194354556
1329+197566950+201084813+204837661+208697962+212583299+216470709+220300084
1315+224015916+227562507+230811715+233627034+235954681+237804612+239261456
1302+240480711+241573850+242588655+243566054+244590082+245753844+247015585
1288+248137032+248772163+248645517+247668352+245952592+243881820+242228955
1275+241981006+243838509+247779652+253015659+258538671+263722175+268287949
1261+272021557+274776333+276577952+277506555+277516308+276460700+274292401
1248+271094823+266977677+262179861+257257939+253025801+250290546+249801940
1234+252239189+257768200+265665256+274613183+283404630+291283644+297845034
1221+303053371+307186376+310508248+313177305+315356137+317150028+318561629
1207+319632692+320529575+321395113+322184310+322828836+323353525+323757752
1194+324027652+324245952+324452132+324557512+324490084+324252496+323865842
1180+323338101+322647335+321750794+320588965+319102582+317278030+315160177
1167+312827139+310278294+307452008+304481954+301620582+298879080+296137827
1153+293397291+290554272+287312168+283491907+279115798+274290843+269232163
1140+264237016+259557403+255336762+251545868+248010931+244603450+241294400
1126+238001943+234513058+230591421+225958031+220205688+212903257+203585346
1113+191772994+177277827+160353607+141690708+122704215+105531048+91917015
1099+82184750+75589054+71388481+69554931+70550254+74571686+81146661+89069961
1084+96520561+101335881+101372890+95177152+83035744+67786442+54220833+46603988
1069+45792994+48404956+49087726+44522458+35706085+26328356+19371271+15582255
1053+14590655+16502527+22448053+34522479+55239942+86322453+127065328+173324236
1038+218796720+257881292+287479399+306573290+314472901+309704343+290045974
1024+254101273+206028204+158978743+129706763+127949545+151635057+190598514
1011+234333987+277255226+317595136+353957836+384350983+407195464+422102538
997+429833578+431683556+428765693+421736855+410851797+396038481+376962600
984+352818068+322189452+283541450+236338639+183275082+131993965+92582448
970+72377657+74295235+99196255+146148578+210002609+281462047+350423304
957+409446428+455324962+488528815+511445834+526816057+536938215+543500882
943+547657319+550131788+551353661+551597014+551019262+549665087+547611578
930+544967853+541684494+537645651+532777291+526965808+520046244+511776370
916+502032078+491011728+479072371+466839246+455555009+446981583+442468219
903+441304115+440081182+434362210+420902414+398365910+367244076+330455680
889+293672457+263111674+242217379+232756293+239675108+269376648+320147908
876+379189073+431771861+470048010+493276963+503788174+503842079+495208796
862+481317976+469475555+468371682+480654755+500067435+518082473+530716740
849+538275938+542226288+543837650+543956927+543002088+541343177+539370432
835+537158074+534619480+531841646+528900289+525742377+522396637+518905478
822+515118183+510917376+506362912+501316665+495449251+488626873+481014393
808+473320121+467064931+463920293+464393973+467298999+470663278+472988775
795+473667638+472867535+471183043+469102799+466723708+463935374+460820679
781+457446491+453616758+449275391+444586134+439756941+435190606+431639777
768+429563366+428129705+425607625+420850534+414029651+406684018+401691458
754+401641790+406145714+412027181+416430740+418623562+419191842+418799673
741+417845706+416615483+415249748+413695345+411961217+410110584+408207792
727+406451229+404905301+403306870+401690959+400037751+398372640+396745917
714+395223857+393839427+392503512+391077204+389579978+388098893+386601044
700+385166666+384073013+383367726+382780315+382119524+381419130+380726058
687+380018435+379342438+378807374+378462069+378283216+378134680+377755474
673+377198225+377475509+379081636+379990080+379210697+378887609+379828084
660+381214757+382615733+383979348+385282889+386631362+388152206+389832429
646+391553720+393290996+395203012+397430171+399927915+402531165+405080446
633+407585856+410262080+413300404+416636546+420009238+423254677+426434089
619+429927180+433868775+437845330+441678304+445517635+449385009+453416373
606+457836821+462540880+467335642+472151623+476863565+481529110+486338548
592+491363140+496606749+502079938+507718022+513389975+518940127+524273412
579+529753986+535652092+541566837+547162887+552674433+558480183+564482984
565+570359652+576029861+581547514+587027029+592658537+598517819+604623320
552+610991305+617296972+623268240+629089071+635101095+641397975+647594709
538+653400460+658909015+664328205+669885431+675678780+681684509+687794435
525+693805524+699457410+704804000+710101421+715288663+720125179+724707685
511+729283898+733774360+737948745+741780192+745217228+747558024+748372523
498+748539037+748573748+747843628+745702313+742204392+738159256+734566362
484+732338237+732617547+736224088+742124999+747324580+749063382+746845540
471+742251193+737653730+736025854+740551589+752899130+772072570+794863457
457+816851748+834366154+847416893+857093663+863134789+866146254+867677848
444+868062975+866841601+865091332+864620206+865995631+869578367+876626243
430+888276132+903978760+920997798+936739874+952345784+971231439+991677105
417+1007100860+1017104239+1025203923+1031872344+1038180254+1047307814
405+1058956082+1068195503+1072082414+1073741823
##END=
