##TITLE=16
##JCAMP-DX=4.24
##DATA TYPE=INFRARED SPECTRUM
##DATE=16/11/2015
##SAMPLING PROCEDURE=Instrument type and / or accessory
##ORIGIN=Default
##XUNITS=1/CM
##YUNITS=TRANSMITTANCE
##RESOLUTION=4
##FIRSTX=3996.3359
##LASTX=399.24785
##DELTAX=-1.9287336
##MAXY=0.67849231
##MINY=0.040525284
##XFACTOR=1
##YFACTOR=6.318952e-010
##NPOINTS=1866
##FIRSTY=0.29558125
##XYDATA=(X++(Y..Y))
3996+467769418+467707304+467770550+467936942+468121870+468196388+468209452
3983+468327785+468536059+468762254+469062497+469472582+469868755+470144047
3969+470451364+470860507+471089626+471024682+470898190+470891210+471057650
3956+471323415+471501504+471581022+471759441+472049920+472146322+472038271
3942+472092414+472280408+472309602+472109723+471847684+471937530+472411569
3929+472655498+472538250+472574707+472812316+472920934+472953099+473060962
3915+473118171+473071574+473129066+473234618+473107182+472967343+473109776
3902+473226081+473122510+472919991+472509292+472054495+472126844+472436519
3888+472181082+471858673+471993088+471981722+471886829+471887254+471600878
3875+471292004+471122877+471006006+471011854+470669353+470038213+469734481
3861+469673074+469464281+468829698+468219404+468671748+469444426+469099284
3848+468250013+467947507+468281046+468636281+468572280+468428809+468359055
3834+468074754+467783661+467678911+467595809+467481863+467137475+466779835
3821+466960518+466958821+466459832+466246889+466016402+465324184+464712051
3807+464723983+464825432+464505994+464542215+464821658+464475621+463899331
3794+463497971+463137171+462811036+462515746+462290493+462142117+461864231
3780+461493857+461186823+460744242+460115506+459629488+459526624+459506910
3767+459165211+458674618+458172044+457702486+457557977+457551138+457177510
3753+456631688+456606691+456809494+456110344+455025963+454739398+454405198
3740+453266155+452166305+451711697+451511866+451050230+450223928+449341029
3726+448772286+448285654+447475811+446588904+445822027+444891446+443627514
3713+442369855+441300001+439925612+437977434+435607049+433021787+430302487
3699+427307895+424060224+420776850+417490410+414207366+411333936+409139329
3686+407313304+405876896+405017154+403983569+401980068+400019863+399156867
3672+398427674+397395974+396468742+395415088+394127716+392838859+391604262
3659+390502313+389920930+389746284+389168344+388117591+387124070+386109043
3645+384749700+383189441+381705138+380273469+378730802+377159412+375636624
3632+373918367+372091493+370476713+368705185+366519162+364219828+362049392
3618+360011840+357904956+355668657+353392622+351012121+348565072+346098709
3605+343504534+340841028+338244589+335635487+332908075+330166467+327530292
3591+324856010+321959093+318925001+315918004+312991752+310202532+307511342
3578+304747284+301808603+298755104+295676018+292587358+289535438+286597584
3564+283707670+280762906+277818684+274885026+271904017+268905981+265961123
3551+263000488+259835093+256574145+253577949+250920410+248343473+245539208
3537+242482973+239508260+236787333+234102627+231341635+228612525+225935649
3524+223274148+220622528+217954636+215270261+212698370+210324000+208027614
3510+205692036+203313751+200906932+198488039+196153793+193956298+191780202
3497+189545589+187339073+185241540+183180169+181098955+178993192+176785839
3483+174441807+172105792+170060929+168371819+166709144+164730887+162472963
3470+160304733+158503103+156952099+155333357+153484646+151587935+149937806
3456+148451581+146843015+145062773+143193523+141390561+139829960+138454899
3443+137062164+135556838+133908595+132251215+130917870+129892609+128804903
3429+127597791+126468877+125323148+124005415+122740457+121753704+120916472
3416+119960930+118849571+117810302+116993763+116322097+115594625+114681919
3402+113704776+112977116+112573739+112166000+111454493+110648907+110242099
3389+110159457+109980743+109700946+109440097+109179401+108967378+108845508
3375+108720973+108434927+108028780+107825942+108008499+108419045+108791695
3362+108987328+109192690+109615674+110127562+110518629+110787201+111163412
3348+111762859+112413879+113034749+113656221+114231803+114824718+115589567
3335+116510538+117490983+118457608+119309249+120128395+121209050+122583969
3321+123943065+125131417+126264388+127428333+128584461+129699050+130817624
3308+131978846+133263023+134827539+136596932+138236674+139686111+141205397
3294+142859229+144562759+146317603+148065089+149790090+151666250+153759750
3281+155847073+157775041+159675219+161604143+163517515+165611451+168063736
3267+170677814+173172015+175512970+177862579+180320842+182827034+185436101
3254+188269807+191159697+193893464+196624095+199576948+202635140+205668925
3240+208805692+212081732+215327328+218483125+221785058+225377895+229101067
3227+232871427+236699680+240503006+244256953+248081645+252035447+256036648
3213+260063364+264169833+268336200+272459484+276545178+280721850+285005182
3200+289320279+293653298+298046120+302489053+306923025+311380202+315877798
3186+320329904+324755033+329230910+333715771+338193511+342733436+347322434
3173+351830972+356224996+360641683+365106170+369505005+373804680+378030048
3159+382232802+386435060+390578317+394688819+398821488+402922439+406973728
3146+410953328+414793513+418539277+422279806+426027692+429721434+433314530
3132+436817592+440227458+443572852+446920226+450251330+453452639+456468974
3119+459378908+462266440+465118599+467895627+470612286+473257303+475823511
3105+478347412+480734823+482887125+484887230+486834088+488768919+490714173
3092+492583541+494256427+495769570+497204752+498558672+499821896+500998151
3078+502091682+503144604+504166211+505051232+505763493+506367562+506792976
3065+506970829+507013182+506990213+506857448+506601162+506207112+505591960
3051+504669397+503475974+502142146+500671450+498948006+496896822+494512005
3038+491826097+488814903+485375418+481447840+477098101+472436613+467435548
3024+461973555+456028327+449598164+442598550+435014676+426869794+418039109
3011+408395327+397974858+386795860+374742005+361716631+347655926+332421891
2997+316075271+298544213+279153667+257188047+233665517+210496358+188207681
2984+166684289+146731167+130003490+118223088+112299389+112330270+118164075
2970+129142168+143828071+160822410+179385320+199100008+219292213+238590484
2957+255021455+266740474+272920695+273951474+270674703+263928545+254926987
2943+245411890+237316648+232224345+230530613+231301075+233309363+235944830
2930+239365166+244069337+250245973+257512084+265133146+272302288+278214408
2916+282162904+283746486+283119189+280871900+277442556+273132741+268300851
2903+263503745+260147503+259082342+258884798+257969097+256279869+254114315
2889+251345493+247706248+243558228+240202151+239395068+242745201+250935313
2876+263289081+278440557+295426241+313782234+332988936+352347151+371239628
2862+389280333+406185297+421902357+436694920+450871906+464620129+477871015
2849+490356344+501824312+512132862+521333450+529718724+537637647+545252696
2835+552643435+559953242+567257673+574439668+581338587+587938255+594207308
2822+600029157+605436488+610513250+615201621+619598523+624070414+628855848
2808+633995479+639475252+645101279+650593315+655825528+660717739+665106765
2795+668916907+672237162+675131816+677597188+679649456+681286969+682558399
2781+683633442+684619157+685462910+686030899+686238418+686166305+685939590
2768+685598552+685210916+684876622+684565768+684167662+683693811+683246985
2754+682892552+682648340+682504350+682498313+682725641+683204396+683813229
2741+684502852+685437536+686712363+688154289+689603620+691099407+692631699
2727+694143191+695761414+697685020+700080921+702990808+706168725+709265756
2714+712032078+714288092+716024035+717510955+719048623+720726178+722563711
2700+724645975+726979525+729336185+731453020+733323379+735099788+736811914
2687+738346563+739659781+740828348+741934613+743062195+744290188+745582041
2673+746925915+748397082+749875136+751215190+752486243+753650660+754548840
2660+755220588+755817111+756407172+757016617+757639174+758229612+758773123
2646+759296448+759799588+760248253+760623155+760892128+761032486+761075027
2633+761088846+761128605+761181664+761273821+761490490+761831056+762229351
2619+762643493+763029573+763309770+763428481+763427490+763436781+763489321
2606+763467721+763347595+763221528+763112722+762965713+762744376+762503984
2592+762318207+762134176+761889963+761679285+761548642+761411538+761234722
2579+761034608+760822326+760601507+760376585+760146569+759863305+759496280
2565+759099824+758677287+758124863+757428589+756650158+755802065+754915629
2552+754063293+753352682+752842091+752516145+752413894+752587597+753003625
2538+753569964+754250861+755017125+755745894+756443771+757218382+757967101
2525+758553295+759031485+759459870+759837318+760169773+760485390+760880290
2511+761365742+761843932+762331790+762897751+763539598+764293269+765215879
2498+766240173+767237774+768173165+769059082+769897365+770744655+771650947
2484+772586951+773536020+774508105+775514761+776518162+777460392+778407291
2471+779427719+780477623+781491494+782471597+783465565+784463732+785461756
2457+786462941+787372298+788111584+788740367+789302979+789705754+789946618
2444+790131640+790224740+790171210+790050188+789958597+789901624+789767350
2430+789452958+788990993+788456160+787862420+787220007+786613911+786126241
2417+785810529+785793834+786104027+786608581+787256842+788066166+788999294
2403+789967181+790912854+791882911+792751566+793533912+794252022+794905801
2390+795421486+795676828+795680413+795533923+795254810+794755539+794121946
2376+793431568+792314550+790434995+788247981+786256082+784299273+782535598
2363+781240302+780787015+782071699+784728648+787133746+787571375+786277306
2349+786414268+790030616+794096855+794527645+792408783+790926154+790726606
2336+791402599+792349357+793344033+794529249+795726444+796719139+797856721
2322+799403869+800721708+801353792+801758642+802517879+803491048+804331689
2309+805037347+805760456+806498564+807182338+807743583+808136548+808470654
2295+808794478+808986244+809069440+809164805+809241115+809220363+809146033
2282+809047651+808846546+808486501+807990813+807395611+806712780+805928358
2268+805029518+804073893+803182694+802426193+801844197+801572724+801791185
2255+802463358+803416813+804579674+805732158+806660051+807404667+807959968
2241+808377176+808700622+808912197+809096323+809327801+809505607+809602858
2228+809713692+809837543+809929606+809990164+809998087+809942718+809899799
2214+809914325+809903289+809803491+809669453+809573805+809531170+809513059
2201+809515889+809605216+809796700+809999691+810158915+810254845+810270031
2187+810294368+810401051+810573198+810785056+810953523+811063414+811216601
2174+811430251+811642675+811806426+811898961+811927164+811918864+811919241
2160+811946973+811951123+811878115+811743605+811589663+811427704+811216129
2147+810872308+810426708+810067229+809867728+809758214+809748216+809918570
2133+810321911+810955033+811774072+812699041+813625707+814497286+815317835
2120+816126499+816901771+817554323+818099438+818620782+819092982+819456800
2106+819740818+819977107+820199812+820477605+820796901+821005741+821252688
2093+821585662+821958252+822353953+822781159+823209214+823614914+824003729
2079+824406976+824840030+825249974+825580024+825865174+826174377+826515557
2066+826888714+827272058+827668985+828195894+828844108+829438933+829956881
2052+830508221+831112196+831698908+832191766+832538511+832750275+832903084
2039+833089568+833362927+833701089+834050569+834415142+834840650+835300494
2025+835776561+836339220+836965361+837528398+837989656+838402619+838807847
2012+839207792+839569441+839872419+840125120+840337827+840534781+840716455
1998+840874452+840997171+841013301+840903599+840767957+840694760+840644861
1985+840526292+840363012+840243783+840151909+840049093+840015890+840119461
1971+840290475+840411496+840457056+840510445+840608734+840684006+840632221
1958+840413383+840064940+839571233+838879724+837990599+836925367+835624223
1944+833967939+831927745+829569858+826949932+824081643+821072618+818182634
1931+815740042+814217608+814132336+815726648+818823773+822852565+827218103
1917+831473373+835320114+838779831+841849131+844401991+846514251+848359377
1904+849988589+851381513+852556164+853552161+854418836+855218066+855920707
1890+856442428+856818792+857175442+857556522+857884685+858109088+858303307
1877+858559310+858936428+859392404+859680384+859611337+859406176+859382783
1863+859535404+859688590+859759052+859806121+859887337+859942612+859948083
1850+860001378+860026752+859706890+859040471+858497337+858307363+858266520
1836+858240957+858315004+858418008+858308306+857929584+857434369+856967734
1823+856605425+856343574+856107568+855870525+855642160+855342578+854891413
1809+854361485+853926733+853625642+853273897+852702560+852035952+851571959
1796+851260209+850618315+849475546+848339568+847547601+846892596+846157790
1782+845308849+844426233+843741138+843304687+842662511+841357311+839637639
1769+838185007+837340876+836846415+836232631+835428589+834739438+834400239
1755+834420613+834568140+834505224+834141029+833709106+833401035+833144749
1742+832752538+832274113+831842945+831042299+829399787+827494952+826090898
1728+825062453+824056646+823046312+822177468+821180622+819312103+816531066
1715+813899349+812008191+810538391+808978698+807083861+805119600+803178355
1701+800544091+796942600+793028227+789223980+785947256+783304267+780908413
1688+778260613+774397318+769096766+764197904+760826901+758136229+755133713
1674+751940515+749152687+746717830+744657497+743437946+742923676+742660976
1661+742821049+743883074+745578551+746802771+747072263+747505411+748813630
1647+750435626+752019797+754063104+756941863+760353993+763742447+766884425
1634+769967827+773317748+777029130+780795693+784288425+787528975+790696138
1620+793746525+796475682+798818005+800993464+803231555+805421163+807340430
1607+808943137+810281539+811391860+812314093+813102193+813777762+814355325
1593+814837429+815202851+815423198+815499320+815449232+815360377+815445082
1580+815584780+815095884+813816907+812722905+812104405+811167362+809794530
1566+808773820+808586298+808678550+807367785+803858640+800285730+798102442
1553+796565670+794966831+793351296+791976106+790692129+788693015+785076809
1539+780601097+777284142+774923898+772079945+768782422+765735855+762771636
1526+759553678+755826355+751134965+745858843+740724164+735769272+731112500
1512+726909582+722490938+715980739+706680164+697564942+690367809+683024185
1499+673179015+660574457+646920701+632862143+616908134+599614544+584500987
1485+573303266+564743770+557204701+550315450+543900946+536501905+526015502
1472+512757164+499965461+489032091+478336989+466691404+455026906+445012043
1458+439165385+440698714+449050833+460094283+470952381+481012521+490164484
1445+497655870+502899685+505952571+507160096+506862117+505703501+504361750
1431+502856012+501191191+499786429+498968191+498745014+498922962+499192453
1418+499522739+500224483+501406114+503011698+505041941+507578624+510749937
1404+514570172+518615188+521704720+521492910+515995026+507384075+499948341
1391+492809171+481606450+466647778+453718782+448032386+451909972+465065305
1377+484978161+509169964+536222038+564664064+592537064+616513424+633164932
1364+641851769+644373690+643608275+641902045+640007208+637671677+634589549
1350+630777662+626791506+623630333+621856612+620974704+620089258+619102270
1337+618694967+619376572+621170243+623953449+627664595+632206336+637526649
1323+643612567+650307269+657380835+664730259+672378039+680285454+688294081
1310+696240123+704007132+711437819+718373385+724749876+730513431+735560622
1296+739770096+743086107+745455077+746685051+746417258+744181948+739595450
1283+732595034+723799533+714841931+708233632+706529477+711059238+721137537
1269+734498408+748604413+761620661+772588178+781267893+787932646+792955595
1256+796495302+798462299+798916388+798801686+798974965+798140833+794290696
1242+789096214+786342863+785769497+785189388+785645976+789111967+795663434
1229+804080025+812919388+821252405+828658190+835094390+840717587+845591263
1215+849709476+853113919+855886843+858108711+859871207+861243096+862266353
1202+862962579+863361770+863411574+863226694+862871553+862278709+861467876
1188+860492726+859319490+857895155+856162372+854121235+851784949+849073054
1175+845874338+842125791+837772421+832733296+826937858+820369978+813182560
1161+805775926+798656800+792187775+786432850+781190498+776090578+770651743
1148+764487393+757495561+749685964+741155945+732189382+722993369+713674826
1134+704414671+695268038+686146402+677042876+667900913+658391641+647971455
1121+636007658+621798742+604547458+583499378+558004451+527441487+491502132
1107+450604206+406212841+360801260+317108385+277444395+243633713+217315808
1094+199854717+192017057+194049940+205292066+223565759+245688692+268144175
1080+287181844+299154295+301332890+293721402+280984149+269904124+263295825
1067+258174446+247873607+225427746+189919382+148928993+112318585+85706917
1053+69915634+64132919+68208219+83395728+112288790+157611844+220227204
1040+297338080+383078394+469935963+550198108+617746794+668625578+703590915
1026+724271686+723381713+693709854+646691393+610771092+610600879+648282497
1013+706534241+767586924+823511060+872827934+915192736+949944611+976429687
999+994724179+1005839836+1011119118+1011646687+1008000297+1000408782+988758858
986+972620771+951130771+922382418+882966744+828362947+755694769+670009777
972+590181252+543937544+550277342+606451585+692564019+785613434+869408211
959+936632932+986324755+1020760919+1043420666+1057693346+1066270858+1071035210
945+1073254719+1073741823+1072894108+1070938148+1068095610+1064585239
934+1060459951+1055606460+1050011750+1043756563+1036773268+1028871796
922+1019962348+1009860610+998243417+985027007+970275901+954120552+936957888
908+919490264+902709623+887274271+872289046+855013377+832043107+800335157
895+757195366+701411353+635252289+563964961+494150404+433387162+391087022
881+380415431+414892792+495725897+604291172+713161547+802614469+865885860
868+905296441+926268304+933671542+932253622+928499133+929533238+937986899
854+949930839+959812797+965303370+967025117+966216831+963765655+960237173
841+955964924+951116527+945794327+940078784+933983009+927562562+920892527
827+913981108+906796803+899269620+891258068+882561893+872856233+861700486
814+848879401+834399012+818622197+802969704+790362127+784354548+786428653
800+794236458+803209577+809816037+813068707+813525343+812139305+809638136
787+806337359+802434305+798146964+793576737+788704805+783624317+778378946
773+772925396+767534997+762739046+758738458+755034481+750777796+745379050
760+738922523+732262910+726917741+724230324+723903623+724181981+723648988
746+722088964+719845684+717127564+714103164+710949253+707678095+704329352
733+701022208+697792412+694656423+691573022+688501459+685480077+682584151
719+679416563+676196765+673403183+670883337+668282370+665605659+663042659
706+660662322+658369568+656096528+653767223+651331516+648981836+646924993
692+645077980+643283791+641496534+639732717+638007339+636373929+634977515
679+633825078+632529924+630532601+628745203+630205570+633688870+632226144
665+627598095+626622709+628432934+629529011+629686065+629749029+629955274
652+630399129+631089459+631912461+632910862+634185925+635681570+637252866
638+638819445+640450591+642367972+644608610+646877547+648967215+650927420
625+653137874+655663946+658441681+661245875+663830948+666400787+669270255
611+672396103+675710086+679146222+682483363+685787960+689410062+693334339
598+697208104+701042630+705102926+709255616+713242007+717185622+721156119
584+725052617+729028680+733410773+738281006+742995412+746961382+750703938
571+754936994+759543490+764001233+768128784+772159698+776414308+780967415
557+785484253+789531438+793173490+796983632+801163063+805388903+809507494
544+813641648+817819193+821755450+825368449+829067096+833027784+837075252
530+841152905+845182262+849038436+852773399+856394887+859921200+863500713
517+867109939+870646062+874229914+877776506+880914287+883692400+886469663
503+889217497+891520202+893240346+894692318+895867724+896355959+896103258
490+895520790+894899837+894341139+894294919+895407221+897598243+900014613
476+901872945+902592281+901675802+899337724+896701856+895374395+896713458
463+900788941+906525519+912411794+916827042+918957695+918891855+916760353
449+913119056+908398095+902312413+894692318+885955111+877279782+869843246
436+863982912+860679022+862725347+872379977+888546079+907780348+927270149
422+945538324+963307133+981970725+999035667+1012033427+1022109886+1030202653
409+1036023465+1040384664+1045231646+1050866445+1056412954+1061910697
##END=
