##TITLE=16
##JCAMP-DX=4.24
##DATA TYPE=INFRARED SPECTRUM
##DATE=16/11/2015
##SAMPLING PROCEDURE=Instrument type and / or accessory
##ORIGIN=Default
##XUNITS=1/CM
##YUNITS=TRANSMITTANCE
##RESOLUTION=4
##FIRSTX=3996.3359
##LASTX=399.24785
##DELTAX=-1.9287336
##MAXY=0.69475061
##MINY=0.049673501
##XFACTOR=1
##YFACTOR=6.4703692e-010
##NPOINTS=1866
##FIRSTY=0.2949197
##XYDATA=(X++(Y..Y))
3996+455800416+455969271+456087368+456045177+455949834+455959230+456130157
3983+456399100+456619542+456772460+456970194+457268891+457584446+457819120
3969+457992167+458082996+458072264+458151855+458419232+458650590+458727233
3956+458833401+459110588+459446501+459625812+459566947+459358712+459243977
3942+459367140+459533738+459627838+459662844+459619409+459731334+460078072
3929+460226154+460042145+459937037+460014602+459949243+459744968+459787758
3915+460125928+460371656+460406708+460322419+460022155+459663304+459580627
3902+459643729+459710838+459896136+459965778+459735388+459551932+459386762
3888+458876881+458617473+458923862+458962598+458785775+458785683+458624059
3875+458373495+458144947+457915523+457828747+457551283+457144438+457109755
3861+457263042+457127212+456431664+455653440+455875724+456596696+456438665
3848+455746112+455338069+455338069+455465838+455578593+455874756+456148904
3834+455943938+455540409+455314763+455166727+454992759+454582229+454104913
3821+454079764+453975255+453650810+453768907+453797925+453218632+452607788
3807+452567578+452590194+452071423+451787696+451936284+451785991+451447314
3794+451084226+450648363+450333038+450151517+449980912+449776683+449488626
3780+449237647+449101540+448849225+448391392+447880820+447515935+447290703
3767+447031526+446794733+446493871+446037373+445728266+445509897+444981639
3753+444337863+444260436+444562910+444081817+443087204+442814024+442631305
3740+441618222+440477784+439948466+439734196+439333845+438604306+437685507
3726+436959560+436543411+436129841+435571966+434877202+433923674+432564913
3713+431105880+429951486+428778668+427150550+425073165+422740012+420194338
3699+417328873+414297040+411335171+408389746+405403926+402733846+400710720
3686+399133175+397891037+397020417+395918899+393979694+392104328+391214593
3672+390473584+389564919+388856198+387992118+386799172+385594435+384510673
3659+383511984+382872008+382568198+381890337+380768047+379795059+378961793
3645+377875061+376579540+375314902+374123406+372935688+371732908+370378961
3632+368615542+366704065+365158924+363697772+361961114+360035842+358025935
3618+356062249+354094948+351945042+349648299+347320465+345090646+342966143
3605+340713524+338214049+335653038+333188384+330752125+328316489+325976748
3591+323588415+320917805+318145495+315532022+312965115+310373728+307835793
3578+305300851+302697419+300104328+297525814+294812506+292002796+289286011
3564+286576757+283734482+280959869+278379490+275797798+273067449+270285006
3551+267529922+264662937+261632531+258659401+255961454+253550874+251206897
3537+248718936+246187104+243752964+241335521+238863060+236308843+233663634
3524+231060294+228641101+226364578+224080915+221742649+219387732+217083250
3510+214926068+212845966+210601592+208150571+205789529+203704936+201742724
3497+199777794+197865626+196027545+194134722+192080805+189938074+187840630
3483+185740562+183550481+181469273+179712879+178159712+176472303+174494385
3470+172498089+170758875+169141178+167463845+165752704+164053965+162399271
3456+160764601+159174194+157702172+156224508+154603587+152909120+151354179
3443+150068711+148844479+147352594+145680155+144224288+143028337+141859975
3429+140720044+139720399+138792745+137830501+136846677+135850233+134797159
3416+133687005+132671861+131849845+131064723+130237007+129429420+128560101
3402+127600378+126877114+126541776+126208028+125559703+124817843+124427590
3389+124407566+124408153+124196152+123843646+123600934+123491369+123338889
3375+123181745+123102096+123003885+122916118+123026823+123371154+123803032
3362+124159753+124442387+124833929+125393934+125883814+126157120+126499344
3348+127160830+127943833+128622730+129225295+129804265+130486087+131454342
3335+132614413+133735506+134745031+135658049+136531191+137512424+138721387
3321+140070107+141391180+142655933+143932258+145253584+146586080+147887116
3308+149184180+150588610+152189149+153932543+155651491+157275694+158918712
3294+160634137+162385188+164260393+166293549+168309305+170226897+172132697
3281+174079548+176067116+178096241+180154453+182219459+184398624+186828895
3267+189381834+191868942+194351939+196948946+199580843+202127437+204680895
3254+207417670+210348056+213304098+216184994+219116924+222175034+225294035
3240+228504765+231834650+235164513+238440485+241827162+245419312+249080343
3227+252744323+256466729+260245075+264050297+267906023+271848917+275837548
3213+279799902+283736532+287730621+291852227+296028551+300152161+304268654
3200+308489748+312834697+317220501+321545898+325788019+329988202+334215860
3186+338538516+342923123+347273346+351555262+355797406+360055694+364379110
3173+368743220+373068248+377303897+381456570+385565579+389639581+393659856
3159+397648763+401631361+405566839+409422542+413223572+416959106+420630708
3146+424331420+428042265+431591948+434997233+438449822+441893613+445146210
3132+448243172+451299048+454394444+457567542+460710241+463622872+466250531
3119+468798462+471429483+474064006+476609955+479031958+481316703+483542446
3105+485738157+487798315+489707536+491568670+493372413+495048940+496633440
3092+498164556+499625155+500995154+502245076+503375473+504453362+505537377
3078+506558889+507398880+508054309+508576948+509018062+509397778+509653087
3065+509758195+509752530+509608870+509259415+508711259+508038695+507302615
3051+506471330+505417069+504083042+502520698+500708018+498582271+496155386
3038+493413084+490325380+486940315+483255356+479178013+474686548+469818361
3024+464537756+458773385+452524190+445778057+438445492+430514658+422040227
3011+412910274+402950879+392141728+380494683+367955115+354395441+339648117
2997+323917857+307266679+288771041+267465646+244582591+222256330+200807827
2984+179869597+160307976+143901686+132335533+126551518+126872001+133280931
2970+145025669+160482462+178090415+197053248+216996819+237254195+256369958
2957+272364209+283517081+289212454+290081508+286966698+280478661+271639253
2943+262177417+254226317+249436178+248022928+248963559+251050501+253676894
2930+257068891+261830542+268118818+275400142+282885326+289900517+295753460
2916+299622382+300961729+300018403+297612659+294276049+290163333+285391365
2903+280467399+276995903+275993621+275998227+275237459+273626844+271629074
2889+269085174+265642926+261750720+258735215+258302093+262005914+270428689
2876+282876045+298047993+314937207+333036502+351873005+370807592+389220945
2862+406623310+422772530+437778041+451987456+465693163+478902991+491469181
2849+503216660+513927196+523542664+532231273+540145249+547430465+554406343
2835+561358824+568311489+575177054+581838760+588159486+594139876+599880065
2822+605300416+610239351+614720453+618883880+622938699+627115715+631521831
2808+636178098+641089489+646148916+651122396+655833611+660187081+664096766
2795+667545117+670536510+673039901+675067218+676686262+677994081+679120471
2781+680115821+680919379+681489045+681849047+682019238+681997820+681812338
2768+681456296+680964379+680504381+680097305+679625884+679118537+678679910
2754+678353946+678112409+677939547+677909009+678066533+678389918+678896206
2741+679632701+680602119+681755362+683017582+684342489+685736486+687182391
2727+688601629+690013727+691678324+693861277+696536977+699453016+702283384
2714+704763515+706786042+708359994+709661410+710976507+712498227+714291100
2700+716281478+718323580+720318380+722196233+723921077+725480474+726870970
2687+728164925+729391034+730459849+731373719+732264468+733285335+734529638
2673+735890701+737172451+738331911+739447984+740555857+741562722+742359555
2660+742997942+743574840+744098170+744589996+745073116+745525422+745951428
2646+746391390+746876030+747379831+747786170+747996064+748050322+748040189
2633+748045486+748124571+748247320+748382321+748561907+748793910+749044106
2619+749318944+749633624+749923985+750103525+750150276+750133326+750113981
2606+750049175+749905791+749736752+749570937+749373065+749147188+748932504
2592+748767518+748678669+748601150+748447956+748220881+747987589+747796303
2579+747626665+747462232+747289186+747052992+746760651+746497972+746243447
2565+745889248+745425749+744915546+744395117+743792749+743017932+742159103
2552+741387143+740785465+740335876+740029073+739928110+740076837+740470094
2538+741046624+741695789+742360154+743028434+743672901+744298484+744952439
2525+745609988+746132811+746496084+746877274+747308024+747649649+747924948
2511+748219684+748574988+749055713+749637125+750259391+750930619+751677800
2498+752519218+753419455+754352993+755288373+756119059+756877018+757687807
2484+758534706+759405096+760302753+761129801+761894761+762758012+763735536
2471+764665574+765518783+766430121+767420911+768407694+769383468+770346530
2457+771237831+772009838+772623998+773086069+773426358+773651590+773854897
2444+774095237+774252484+774275422+774247234+774190949+774044295+773791887
2430+773525662+773252160+772847019+772307245+771718695+771135118+770662454
2417+770419074+770480426+770829006+771339531+771978011+772753886+773553759
2403+774338984+775170178+776026059+776749933+777414206+778093402+778752240
2390+779270596+779541427+779576709+779475101+779309102+778990553+778471276
2376+777808293+776820312+775197537+773234657+771481948+769870411+768391941
2363+767143263+766464159+767258919+769290980+771264178+771665496+770586685
2349+770995603+774831178+778915660+779115927+776830814+775519494+775622576
2336+776403380+777276119+778096258+778937676+779722165+780417390+781354336
2322+782731061+783972093+784682886+785232563+786013827+786844652+787561341
2309+788246617+788937420+789591836+790215761+790770320+791184857+791564757
2295+791978926+792285223+792429850+792513034+792584242+792598429+792539657
2282+792429482+792242479+791916469+791441778+790900576+790347399+789727436
2268+788990849+788179462+787380879+786680403+786183235+786004799+786232887
2255+786840230+787734157+788845761+789903015+790709613+791391388+791995968
2241+792460065+792763046+792978513+793192138+793427319+793614229+793704322
2228+793767700+793860372+793956453+794015778+794027385+794042124+794064785
2214+794017896+793919513+793872808+793882297+793857148+793798652+793820853
2201+793944109+794089381+794239904+794428196+794651770+794822559+794873225
2187+794892662+794961936+795098457+795310700+795536945+795703221+795778206
2174+795830714+795994502+796236868+796431424+796552930+796595950+796584527
2160+796625428+796727128+796768305+796679594+796479050+796214115+795924583
2147+795624182+795325531+795055806+794852406+794768301+794846787+795088324
2133+795464079+795995792+796728233+797571770+798407293+799260411+800149547
2120+800983043+801689875+802293902+802815021+803231217+803564873+803884159
2106+804246649+804638709+804960850+805156236+805327854+805464283+805696240
2093+806035976+806421772+806810147+807215380+807612046+807982735+808332052
2079+808647192+808960306+809332837+809736227+810098901+810413950+810698230
2066+810999092+811369228+811802926+812302581+812863220+813431228+814000526
2052+814596078+815147596+815598797+816007807+816384944+816662684+816828407
2039+816968889+817189423+817513683+817887596+818270259+818653568+819016058
2025+819436122+820050835+820762273+821330742+821718472+822085476+822514108
2012+822919249+823216518+823457686+823713318+823938365+824127579+824340651
1998+824539629+824642157+824620878+824517428+824417663+824394172+824439771
1985+824471368+824457274+824421071+824343967+824237845+824184600+824216658
1971+824305001+824419505+824546998+824701482+824851545+824909304+824840122
1958+824670622+824399054+824001099+823458239+822726443+821754675+820481862
1944+818868114+816992471+814969069+812768798+810302025+807660041+805110176
1931+802983508+801718432+801751503+803303899+806261853+810052842+814025767
1917+817853880+821391633+824592966+827395698+829736452+831698226+833391288
1904+834844840+836072607+837153076+838137279+838993160+839724036+840306230
1890+840716530+841060504+841422717+841785115+842104769+842376061+842628560
1877+842909800+843282423+843647585+843752509+843593510+843513367+843680103
1863+843935181+844116564+844186944+844206381+844252901+844323557+844350548
1850+844340967+844275378+843924772+843310520+842902431+842878572+842998511
1836+843112831+843240140+843251563+843010395+842637680+842263214+841920622
1823+841662780+841483147+841284538+841028446+840769683+840480336+840066167
1809+839588436+839241330+839020796+838662268+838046081+837441686+837146075
1796+836927567+836196139+834967912+833982511+833449876+832936863+832235006
1782+831419197+830609007+830028286+829682930+829061493+827759754+826192250
1769+825043890+824462156+824058213+823414114+822580526+821899211+821603599
1755+821708247+821846518+821575779+820999849+820560347+820368647+820196476
1742+819829380+819404894+819059723+818211672+816419949+814574706+813484565
1728+812793854+811983848+811066155+810279916+809303266+807325187+804455852
1715+801957114+800380214+799225774+797890043+796193664+794467163+792721040
1701+790169609+786659860+782959517+779490577+776632389+774394440+772332210
1688+769909792+766131654+760963572+756490485+753676330+751376293+748546708
1674+745483231+742855388+740604450+738861275+738045098+737795776+737643089
1661+737911432+739068820+740684042+741594688+741585107+742042480+743402208
1647+744913657+746412255+748481579+751340965+754537554+757486203+760187604
1634+763137221+766535091+770165608+773680791+776892626+779919208+782965689
1620+785886242+788334591+790343715+792387015+794676089+796896443+798728974
1607+800175525+801379341+802424435+803339089+804137395+804800378+805339830
1593+805807243+806212108+806500165+806635028+806628211+806574874+806674640
1580+806796606+806305701+805146010+804297315+803886094+803040990+801752516
1566+800880791+800826901+800856195+799247698+795653845+792524549+790892562
1553+789704038+788324273+786911162+785650785+784327766+782237853+778655975
1539+774485731+771619620+769575215+766931342+763916551+761197095+758444798
1526+755324115+751648690+747069804+742126079+737533282+733154295+728954572
1512+725046223+720791781+714464745+705650855+697335099+690887986+684086858
1499+674707814+662734182+649961645+636893451+621956430+605744155+591708569
1485+581412201+573515911+566500329+560087070+554064304+546960379+536890579
1472+524409139+512599203+502523691+492491153+481470266+470489359+461132793
1458+455797975+457642435+466090336+477021591+487604588+497298311+506088896
1445+513326117+518461681+521479328+522621839+522255065+521110758+519841583
1431+518427136+516870181+515571159+514847193+514699894+514870545+515030096
1418+515292728+516035855+517234789+518758490+520658406+523035224+525992303
1404+529585604+533443425+536367295+536066203+530677587+522358101+515315205
1391+508682241+498119049+483867627+471599490+466401239+470462460+483438627
1377+502859236+526331210+552490168+579833413+606401381+629109132+644807335
1364+652923652+655259800+654575629+652957137+651064821+648776437+645863530
1350+642285705+638555561+635673514+634143733+633361179+632475589+631578116
1337+631360622+632182926+634026834+636795804+640427151+644844874+649998908
1323+655847337+662265525+669054217+676053679+683256632+690679612+698219952
1310+705733209+713097325+720135292+726673973+732630642+737940864+742552822
1296+746450899+749624919+751915744+753018459+752653482+750503968+746204849
1283+739624484+731337332+722936643+716812822+715334445+719712096+729283300
1269+741893293+755164104+767418700+777746296+785889742+792127422+796791980
1256+799962084+801573528+801794891+801558882+801608165+800680523+796937436
1242+792002324+789386686+788779435+788198807+788759445+792267720+798610877
1229+806577085+814903020+822797006+829855654+836021389+841413874+846022975
1215+849849983+853021838+855605418+857598697+859139210+860392218+861370986
1202+862032219+862426490+862516214+862379141+862084911+861589678+860803715
1188+859748395+858521273+857123177+855443656+853422741+851088712+848456217
1175+845451835+841950008+837840931+833036352+827502557+821280260+814511144
1161+807538627+800850391+794788199+789347259+784295340+779359307+774163958
1148+768308251+761636826+754179348+746072105+737568840+728832836+719926964
1134+710997049+702170538+693425737+684728193+676002875+666900927+656830389
1121+645164666+631330545+614683651+594490344+570001557+540501521+505741468
1107+466235562+423306960+379166459+336427048+297395741+263895352+237613138
1094+220086181+212271832+214538544+226205073+244921453+267317725+289756419
1080+308501125+320073277+321932938+314176531+301430732+290336909+283626910
1067+278380481+267928177+245114005+208772239+166392704+128109395+99934243
1053+82967522+76770737+81494774+98321232+129591285+177736918+243144585
1040+322350814+409014499+495597834+574577449+640156458+688797428+721514366
1026+740195855+738107048+708509043+662606229+627849400+627790397+664189945
1013+720350575+779240841+833201983+880741114+921536921+954933423+980237790
999+997576869+1007936063+1012520845+1012445491+1008365707+1000470431+988679702
986+972612331+951337451+923087014+884841348+832390688+762994620+681381357
972+605451077+561770413+568583333+623130676+706202419+795773508+876501872
959+941453593+989577590+1022989936+1045066900+1058975270+1067167907+1071510047
945+1073411943+1073741823+1072802574+1070750983+1067851986+1064317825
934+1060166557+1055327158+1049773280+1043560748+1036702276+1029023019
922+1020358546+1010549950+999358827+986758460+972825127+957493052+940970335
908+924109908+908049077+893409188+879321646+863088368+841262798+810886522
895+769525056+716015391+652436571+583821860+516422618+457415453+416103547
881+405924769+440489391+520467719+626809096+732387724+818182378+878156981
868+915062310+934311301+940637600+938762786+935024765+936085428+944201607
854+955583602+965087559+970517260+972300691+971581976+969277517+965852518
841+961615856+956887367+951793994+946308285+940456677+934377074+928136354
827+921650781+914834223+907686127+900083790+891774621+882506674+871921235
814+859773360+846064152+831143667+816309867+804406844+798926202+801180824
800+808750826+817153404+823098144+825921880+826239692+824869969+822519911
787+819463666+815740661+811577694+807261624+802723455+797818005+792639514
773+787408607+782409656+777960842+774134664+770494336+766403360+761324634
760+755141028+748710542+743701136+741335924+741193554+741609012+741196870
746+739668149+737412606+734766476+731822111+728681761+725528929+722424275
733+719350619+716343889+713420756+710478233+707501487+704632106+701964145
719+698997762+695911947+693230490+690838794+688376397+685806036+683244011
706+680761900+678423956+676296045+674286967+672223723+670133718+668178945
692+666347565+664536360+662748231+661054478+659537179+658227656+657009193
679+655701558+654168553+652134051+650417820+651993983+655602622+653923792
665+648877907+647874542+650054594+651447946+651594185+651536610+651725639
652+652270111+653092507+653982518+654967044+656171597+657553941+659064837
638+660755228+662607242+664514205+666398830+668300404+670332650+672475485
625+674787636+677207842+679756786+682459937+685166313+687764586+690462302
611+693494504+696751753+700019504+703325070+706846748+710607661+714325875
598+717806192+721224604+724819333+728765681+732949790+737027547+740998445
584+745064549+749201538+753323927+757487401+761625772+765679532+769769909
571+773802665+777694157+781686703+785886150+790104573+794238614+798393199
557+802642758+806693985+810335372+814021529+818062070+822286941+826584955
544+830732078+834500682+838113697+841866456+845646207+849302978+852976423
530+856759213+860454122+863948947+867455564+871051905+874697806+878369408
517+881951563+885567801+889307480+892783144+895733912+898424996+901056202
503+903430671+905387103+907013010+908433583+909602763+910204947+910047331
490+909394849+908583830+907879025+907720395+908727720+911037798+913681072
476+915566572+916267969+915271237+912649519+909991875+908901366+910168744
463+914039232+919810235+926079420+931547443+935037570+935554544+932924536
449+928349334+923135285+917568602+911208956+903586722+895379806+888006938
436+882387656+879718404+882033457+890928597+906175184+925272639+944956341
422+963148906+979965485+996513811+1012254067+1025928361+1036855378+1044408155
409+1048827122+1051875997+1055914511+1061381796+1067009001+1072299141
##END=
