##TITLE=16
##JCAMP-DX=4.24
##DATA TYPE=INFRARED SPECTRUM
##DATE=16/11/2015
##SAMPLING PROCEDURE=Instrument type and / or accessory
##ORIGIN=Default
##XUNITS=1/CM
##YUNITS=TRANSMITTANCE
##RESOLUTION=4
##FIRSTX=3996.3359
##LASTX=399.24785
##DELTAX=-1.9287336
##MAXY=0.71812958
##MINY=0.055188168
##XFACTOR=1
##YFACTOR=6.6881029e-010
##NPOINTS=1866
##FIRSTY=0.29792595
##XYDATA=(X++(Y..Y))
3996+445456590+445296307+445201215+445376070+445734155+445968453+446005304
3983+445973934+445943499+446032397+446351359+446728739+446935855+447017801
3969+447160572+447436043+447755228+447997190+448047944+447880576+447798763
3956+448103466+448565466+448767948+448686893+448589930+448561589+448626692
3942+448880507+449106160+449124073+449050593+448931974+448880908+449005721
3929+449133074+449190913+449315058+449405381+449287921+449121444+449113557
3915+449210431+449250446+449218674+449147066+448975153+448811929+448813934
3902+448869189+448934425+449011915+448830510+448389231+448247752+448422651
3888+448265398+448060822+448227165+448216025+448063184+447991843+447662365
3875+447255084+446993828+446887463+446981485+446828643+446379209+446123656
3861+446147362+446199453+445830896+445166904+445222471+445810041+445753450
3848+445271487+445055815+445164899+445212801+444999179+444899988+444975028
3834+444803337+444526886+444363885+444148080+443910796+443641385+443506502
3821+443836648+443900815+443452183+443285884+443130547+442514101+441947162
3807+442033297+442267995+441907281+441558731+441547100+441347515+440979002
3794+440543115+440134988+439922747+439695446+439311515+438936675+438610360
3780+438341484+438201877+438131204+438001757+437713096+437418419+437247264
3767+436985517+436611033+436193727+435765058+435501484+435255824+434752338
3753+434276034+434370412+434692895+434173590+433151067+432770924+432530343
3740+431663514+430651507+429994511+429586473+429203523+428653205+427903702
3726+427233962+426684312+426013414+425319968+424761049+424151777+423192441
3713+421965565+420734010+419377508+417738539+415798878+413612799+411243845
3699+408632573+405862131+403129699+400381449+397495106+394818820+392787633
3686+391257836+390094949+389322988+388393417+386732213+385136066+384364863
3672+383549456+382454389+381566705+380607279+379404688+378271522+377356434
3659+376625602+376262347+376153487+375622062+374588577+373551594+372546093
3645+371347491+370082805+368963141+367894209+366663990+365353208+364099974
3632+362657694+360943106+359302533+357719644+356028406+354316559+352644437
3618+350917573+348922190+346721071+344627611+342679595+340696688+338504816
3605+336077711+333609031+331267459+329011042+326718486+324393892+322140148
3591+319880612+317404758+314763273+312197385+309772464+307425255+305036137
3578+302494847+299870273+297317597+294834881+292309253+289717431+287127169
3564+284535414+281882789+279219404+276606616+274088319+271694990+269349274
3551+266895299+264177951+261293881+258559600+256023011+253521356+251047017
3537+248649411+246267534+243822828+241348779+238934395+236524357+234078648
3524+231794046+229716070+227604362+225370537+223108260+220820027+218517556
3510+216310400+214221841+212130230+209941566+207772509+205711667+203666866
3497+201660921+199786608+197985730+196126522+194212617+192398437+190687236
3483+188794608+186659907+184690335+183031481+181403207+179648114+177753581
3470+175769137+173877891+172204221+170609133+168889153+167101654+165478760
3456+164060676+162649076+161131055+159587712+158106018+156728741+155445228
3443+154126915+152678909+151126944+149626936+148411423+147397711+146282804
3429+145102326+144036602+143019638+141986822+141000682+140091030+139196228
3416+138182349+137108560+136184192+135443512+134825473+134220713+133439618
3402+132502895+131780608+131446807+131227504+130832645+130296397+129894296
3389+129676397+129488175+129265073+128948161+128573510+128319862+128233382
3375+128239241+128221495+128031513+127805827+127937780+128475098+129050460
3362+129451112+129773471+130119693+130551838+131062119+131523774+131968719
3348+132534266+133181414+133875661+134666059+135497363+136365028+137373125
3335+138480101+139589683+140645404+141563600+142472272+143642902+145012136
3321+146332678+147595358+148895636+150267455+151672405+152962178+154039421
3308+155097447+156507622+158339302+160267567+162016744+163595713+165188250
3294+166916027+168725461+170616329+172639930+174633509+176487024+178367109
3281+180392347+182492392+184542663+186532510+188589386+190828581+193291490
3267+195888793+198468539+201007491+203572844+206152256+208688689+211297110
3254+214098565+216944982+219705732+222494220+225492565+228719949+231974604
3240+235122359+238241462+241399733+244626293+248027506+251622133+255230441
3227+258791692+262438432+266145262+269849774+273654391+277565708+281515079
3213+285482786+289442339+293424305+297430958+301411343+305439764+309604940
3200+313837758+318045667+322239161+326453331+330647850+334759063+338846571
3186+343026184+347293581+351559998+355791947+360016878+364237999+368464334
3173+372685455+376808344+380788773+384683023+388550804+392443628+396387161
3159+400327397+404232698+408114070+411921561+415606155+419181577+422696619
3146+426196244+429686778+433102006+436383999+439625486+442889655+446078695
3132+449148135+452127520+455022864+457860680+460670869+463442425+466135599
3119+468718442+471210694+473601928+475872761+478101440+480324815+482487367
3105+484506122+486350157+488156271+490020358+491829458+493457688+494889674
3092+496198452+497489851+498766902+499928097+500944871+501893736+502827317
3078+503692052+504430326+505058045+505545267+505862714+506085559+506258185
3065+506322842+506276500+506147231+505856342+505356599+504688820+503874571
3051+502953779+501949392+500733522+499133989+497171201+494991004+492626729
3038+490000974+487069359+483819360+480205127+476202506+471863902+467215025
3024+462169384+456634606+450590505+444051562+436998217+429348433+421047090
3011+412090311+402487899+392178004+381002172+368846170+355621192+341219067
2997+325803799+309374853+291276749+270639537+248384768+226502232+205437555
2984+184852556+165539139+149308364+137889912+132185961+132565792+139170015
2970+151242399+166965946+184683384+203619030+223385357+243333379+262110269
2957+277777703+288603181+294037231+294789274+291709272+285360490+276717482
2943+267441607+259574035+254795644+253456722+254578346+256850538+259589877
2930+263013081+267671493+273787871+281023914+288597901+295627651+301358160
2916+305160572+306554058+305650845+303238646+299900596+295834121+291199838
2903+286455357+283101444+282110046+282048709+281258991+279662956+277611092
2889+275010225+271646509+267944982+265124967+264794553+268501182+276923929
2876+289389535+304540361+321348915+339258240+357772269+376281776+394224699
2862+411249950+427131786+441811744+455506386+468564665+481200067+493339737
2849+504735920+515171251+524591323+533071397+540743015+547830984+554600392
2835+561166471+567563846+573939119+580344158+586577105+592442832+597938041
2822+603067500+607718872+611913948+615865101+619755029+623700166+627786515
2808+632135814+636827959+641669024+646379260+650844594+654955139+658577972
2795+661701286+664393926+666661238+668473278+669955173+671250048+672339589
2781+673184317+673812170+674270695+674555969+674657388+674602802+674366187
2768+673952134+673471953+672990926+672499694+672041972+671682059+671363008
2754+670993470+670646925+670463738+670462089+670607757+670903904+671329810
2741+671904191+672744641+673875401+675144877+676419566+677682937+678944525
2727+680225720+681624019+683295562+685394392+687906251+690587527+693201117
2714+695551979+697433356+698901213+700216185+701513867+702905750+704513883
2700+706296291+708160824+710054187+711865826+713487149+714923949+716216194
2687+717376364+718431148+719391911+720275451+721144954+722086600+723185678
2673+724413133+725616259+726716806+727750648+728732175+729613532+730352161
2660+730988214+731565937+732071428+732528170+732970385+733393707+733792521
2646+734187681+734594917+734951799+735212076+735419771+735578806+735643507
2633+735632902+735592531+735582014+735691276+735917419+736204966+736495008
2619+736723112+736907458+737072865+737202134+737269955+737261488+737208774
2606+737120455+736993325+736842712+736673472+736510248+736329467+736099002
2592+735887207+735736594+735605052+735477476+735343662+735168986+734962984
2579+734759166+734586985+734473847+734369799+734176095+733875893+733522219
2565+733167787+732811617+732382191+731825767+731138827+730381972+729669054
2552+729048642+728538249+728171430+727920422+727781439+727886334+728321954
2538+728951857+729602614+730216877+730780296+731347102+732012074+732730741
2525+733328026+733727419+734032210+734375591+734756715+735090872+735412017
2511+735806330+736256166+736719503+737200976+737732623+738340291+739042560
2498+739836890+740694852+741599246+742483543+743270922+744014409+744799604
2484+745607303+746366163+747065758+747792312+748604110+749437831+750254976
2471+751089411+751911992+752688944+753511971+754448537+755397224+756270426
2457+757078569+757800445+758387124+758823547+759127982+759342139+759537758
2444+759727050+759810021+759775175+759763143+759829271+759861354+759733645
2430+759402830+758945642+758492465+758049091+757552423+757083738+756776540
2417+756622629+756611222+756824042+757266079+757891882+758667765+759482592
2403+760221579+760905311+761645545+762347903+763043844+763721070+764308106
2390+764757986+765090227+765332367+765457135+765412308+765159295+764755134
2376+764220411+763347031+761976092+760332979+758726317+757149331+755676884
2363+754468678+753674794+753866759+755268445+757113148+758400760+759194377
2349+760635365+763199002+765181932+764804239+763253633+762568565+762846086
2336+763525896+764205350+764773047+765361866+766017079+766660528+767393633
2322+768346865+769348043+770245753+771080811+771853753+772475100+772951716
2309+773409706+773978918+774622189+775191044+775643687+776027350+776399428
2295+776738442+776976215+777135384+777276997+777379931+777409073+777388754
2282+777304446+777106866+776812056+776438908+775953826+775380871+774784121
2268+774137819+773425926+772752710+772209343+771805538+771619188+771827729
2255+772459147+773351154+774366413+775285690+776073515+776705022+777182707
2241+777563786+777875084+778119630+778313467+778486628+778634122+778767803
2228+778947826+779129899+779226327+779265006+779285682+779275789+779277126
2214+779342451+779396013+779363662+779290851+779214296+779142287+779103074
2201+779153159+779335678+779569530+779784399+780003279+780146763+780170469
2187+780204246+780324202+780523386+780761070+780972553+781145357+781286791
2174+781422522+781570461+781698527+781813136+781932468+782019806+782057594
2160+782085577+782140386+782199384+782187175+782053138+781831406+781563688
2147+781268521+781002586+780802422+780658671+780597088+780669543+780914446
2133+781336877+781917496+782632866+783416858+784195147+784954096+785708946
2120+786448823+787145656+787770301+788297983+788744565+789141686+789487829
2106+789748952+789919439+790105345+790400155+790743625+790935145+791126219
2093+791396788+791737852+792127397+792536193+792912726+793237927+793536837
2079+793854284+794204794+794577139+794950108+795268892+795501050+795702463
2066+795970180+796332900+796756846+797211538+797684233+798190170+798723823
2052+799265942+799831144+800381551+800838204+801197092+801460176+801597510
2039+801675936+801821202+802091950+802479267+802927810+803370204+803783366
2025+804222730+804763067+805385484+805972966+806431579+806819609+807231078
2012+807629357+807949656+808213720+808438749+808596760+808735876+808920890
1998+809114103+809262667+809322021+809266232+809159644+809081485+809031934
1985+809013041+809041827+809074712+809064820+809023112+809015982+809124798
1971+809309634+809451959+809555695+809701853+809874568+809981334+809964045
1958+809824482+809560151+809164724+808650945+807973184+807077078+805962628
1944+804569765+802845998+800903708+798832995+796584576+794211389+791921886
1931+789989755+788855253+788994904+790583654+793424991+797024653+800827777
1917+804419330+807641121+810602771+813259985+815432740+817218892+818825465
1904+820249342+821417443+822395629+823248867+823962098+824594051+825177166
1890+825635512+825974615+826290101+826615925+826914122+827179879+827453746
1877+827770926+828170007+828581922+828770857+828629690+828450915+828524617
1863+828751429+828924590+828994638+829030465+829096414+829165393+829199972
1850+829283834+829366894+829073777+828369993+827857284+827814328+827939542
1836+828035079+828184266+828307698+828173483+827824131+827459985+827145835
1823+826899863+826715919+826516556+826298033+826123713+825907418+825515199
1809+825043931+824709016+824489691+824157539+823622460+823081499+822782500
1796+822577880+821927301+820754387+819774063+819294773+818874036+818236914
1782+817492224+816778191+816268244+815991793+815479974+814251360+812627141
1769+811372682+810791171+810513829+809998178+809218018+808558794+808267192
1755+808318971+808389555+808112747+807575885+807155326+806943932+806738510
1742+806363046+805975105+805713269+804971520+803237949+801372748+800241721
1728+799520470+798714554+797855790+797211717+796462214+794699680+791923846
1715+789423039+787840973+786750229+785585603+784104155+782544637+780920952
1701+778459357+774989811+771320902+767891370+765103416+763008463+761137647
1688+758926481+755364071+750361208+746000858+743335133+741222088+738569598
1674+735670823+733217917+731087539+729343630+728497165+728272537+728149283
1661+728426047+729664731+731483768+732539845+732379294+732607487+733959176
1647+735456845+736749180+738601057+741390704+744666726+747705509+750280821
1634+752920479+756071598+759538560+762909450+766023406+768970618+771901878
1620+774726282+777115956+779054147+781033333+783294050+785470103+787215170
1607+788589050+789774797+790826240+791745160+792544659+793202368+793726218
1593+794164066+794531331+794810367+795003046+795109455+795187436+795425833
1580+795691501+795305609+794179395+793354942+793032861+792313124+791126754
1566+790339999+790403185+790647553+789339444+785901089+782681971+780977632
1553+779867994+778626636+777322002+776206482+775151297+773393486+770022328
1539+765840531+762940464+761015553+758540055+755635264+753040880+750506029
1526+747660860+744241310+739842059+735018016+730549920+726305293+722249111
1512+718565052+714677664+708753742+700159950+691926116+685699050+679315845
1499+670440389+658956556+646668055+634163838+619894012+604303645+590698568
1485+580691817+573060436+566320661+560162886+554371619+547504313+537696612
1472+525524992+514085586+504425424+494826132+484233681+473687751+464803962
1458+459908489+461975325+470397292+481195923+491615792+501113131+509693733
1445+516755589+521773603+524758156+525948181+525635279+524538608+523380444
1431+522106556+520633352+519367173+518667222+518549226+518765432+518979143
1418+519291911+520102239+521364807+522899594+524771925+527121718+530023390
1404+533480682+537168217+539977560+539696519+534522812+526460980+519504062
1391+512909553+502598233+488813400+477021568+472179121+476446607+489429089
1377+508586501+531494990+556837180+583251533+608886350+630715814+645701945
1364+653337024+655387194+654587472+652999748+651191851+648964108+646121479
1350+642681253+639129181+636403790+635026390+634432803+633672383+632750076
1337+632496573+633378509+635274768+637999402+641539844+645881968+650983711
1323+656768338+663035508+669588754+676381690+683441051+690699195+697993522
1310+705183623+712172133+718809108+724973968+730646214+735738510+740139944
1296+743847798+746878962+749091599+750192325+749854024+747747930+743618581
1283+737407646+729599317+721607979+715718279+714310800+718601012+727927106
1269+740207274+753083302+764843452+774687336+782496779+788478630+792883851
1256+795875267+797433983+797622294+797264387+797136143+796084967+792339504
1242+787473173+784864708+784224734+783672634+784259937+787720215+793986449
1229+801886617+810085694+817706380+824399055+830201685+835288767+839700316
1215+843381791+846363849+848786944+850756594+852313438+853476816+854277206
1202+854750792+855022877+855114849+855031432+854719422+854175787+853420581
1188+852463784+851298357+849901216+848235556+846286938+844054472+841489943
1175+838524551+835086731+831072391+826420217+821123702+815163418+808683117
1161+802065927+795709592+789882009+784628361+779745454+774940883+769880805
1148+764222105+757779145+750539360+742656169+734394752+725924749+717355242
1134+708832168+700357753+691862038+683445596+675054910+666231232+656446480
1121+645191686+631852634+615735788+596112231+572235315+543454815+509603944
1107+471138819+429205573+385881247+343754922+305133190+271876194+245792055
1094+228476116+220869845+223367511+235298751+254270591+276845058+299331005
1080+317975618+329268644+330701166+322542482+309584241+298512724+291965115
1067+286803662+276226562+253164117+216568805+173881177+135081327+106241183
1053+88798860+82516925+87546652+105153937+137704218+187369194+254133881
1040+334171737+420892689+506742065+584393299+648347796+695388577+726532238
1026+743475988+739862557+709644099+664020689+629681037+629404363+664752546
1013+719410314+776823285+829535332+876049411+915970095+948593511+973229155
999+989982276+999841488+1004033356+1003567613+999023541+990750494+978801943
986+962723195+941558346+913630684+876047629+824774965+757215369+677995571
972+604425205+562213992+569085399+622302892+703193653+790594081+869773819
959+933854957+981499885+1014532720+1036231222+1049800160+1057789627+1062141376
945+1064136782+1064444515+1063417580+1061358275+1058471576+1054915672
934+1050789486+1046025555+1040584932+1034566007+1027966106+1020535336
922+1012059896+1002467688+991622270+979395306+965769687+950807084+934802396
908+918542823+903148877+889273721+875991483+860497454+839418696+810048264
895+770119024+718406596+656702344+589788916+523851668+466071655+425783884
881+416242208+450707876+529651668+633923748+736692321+819689042+877341300
868+912442353+930457954+936102752+933830449+929761656+930587000+938604451
854+949897610+959195721+964447230+966254859+965628431+963317094+959907882
841+955861191+951357046+946379582+940992164+935321611+929512832+923564491
827+917317239+910679462+903756589+896491761+888464151+879461475+869405306
814+857918934+844746314+830350694+816088043+804594095+799240721+801360272
800+808612890+816717144+822486710+825151766+825284288+823789294+821381260
787+818271404+814584581+810631200+806564547+802261635+797663022+792816387
773+787794720+782803710+778289761+774554636+771152375+767202469+762147203
760+756132556+749999736+745178366+742926204+742925179+743445420+743067995
746+741559899+739359338+736826313+734040989+731114096+728224635+725295336
733+722245725+719185731+716175288+713204504+710360048+707709696+705120615
719+702303251+699519932+697031646+694684882+692276270+689782503+687250948
706+684770683+682465049+680378874+678411140+676498126+674701815+672979919
692+671139271+669206071+667434669+665900952+664496993+663186389+661958755
679+660842121+659910679+658922111+658031219+658413278+659152844+657375694
665+654965833+654920872+656205765+656894354+656926126+656921313+657201419
652+657828693+658655908+659484817+660363232+661468860+662842473+664414646
638+666060254+667603998+669028098+670602187+672598261+674971493+677381175
625+679682442+681928232+684333413+686952306+689565004+692191472+695029288
611+698041825+701099012+704134364+707273853+710698616+714205415+717532726
598+720834414+724302668+727860533+731514336+735440491+739590739+743607485
584+747364222+751251610+755495702+759798970+763858761+767674629+771460019
571+775461079+779655620+783867985+788110206+792318293+796296717+800135401
557+804072384+807979244+811651451+815350482+819328639+823472025+827563186
544+831397503+834875427+838077879+841267677+844810213+848689535+852428315
530+855988318+859721216+863540114+867216598+870767334+874240088+877611513
517+880987929+884503373+888025233+891323045+894284159+896956524+899483444
503+901866345+903835371+905262724+906422091+907427815+908035884+908088910
490+907638852+906830263+906144659+906214262+907325594+909435609+911883746
476+913600918+913984938+912796963+910283857+907744549+906940416+908922632
463+913364838+919122284+925203504+930680577+934415168+935634067+934044070
449+930155658+925093797+919424135+912895887+905419843+897773936+891014599
436+886094974+884314705+887188036+895783610+909929068+927623034+946087267
422+963815901+981783377+1000083985+1014978500+1025152219+1032994280+1039776699
409+1045441281+1050535315+1056287235+1062623874+1068414651+1073741823
##END=
