##TITLE=16
##JCAMP-DX=4.24
##DATA TYPE=INFRARED SPECTRUM
##DATE=16/11/2015
##SAMPLING PROCEDURE=Instrument type and / or accessory
##ORIGIN=Default
##XUNITS=1/CM
##YUNITS=TRANSMITTANCE
##RESOLUTION=4
##FIRSTX=3996.3359
##LASTX=399.24785
##DELTAX=-1.9287336
##MAXY=0.67088383
##MINY=0.024915751
##XFACTOR=1
##YFACTOR=6.2480926e-010
##NPOINTS=1866
##FIRSTY=0.30280623
##XYDATA=(X++(Y..Y))
3996+484637869+484826229+485017690+485311273+485600325+485676308+485559972
3983+485471158+485597606+485886323+486186489+486534448+486926527+487222638
3969+487481735+487791059+488036562+488230741+488493797+488752274+488942113
3956+489139870+489349981+489509913+489671754+489871562+489916398+489845852
3942+490006500+490354650+490614844+490653670+490466502+490395766+490719017
3929+491109046+491236686+491237831+491249088+491181738+491098886+491219753
3915+491439309+491456289+491350113+491289679+491197860+491144819+491192661
3902+491136425+491075180+491163231+491001963+490480716+490229251+490280622
3888+489944206+489642419+489931185+490080385+489969868+489932711+489697225
3875+489320504+488891028+488591626+488673906+488497565+487958813+487747271
3861+487810376+487616864+486808236+485886991+486089184+486931870+486873868
3848+486239148+485905212+485960399+486029704+485952099+486043537+486191449
3834+485941224+485567413+485387018+485248884+485125107+484845738+484490433
3821+484515427+484317003+483698213+483498882+483437780+483014172+482607830
3807+482612791+482484006+481762569+481383416+481499084+481274997+480881153
3794+480523034+480115739+479780229+479458838+479128575+478898431+478646680
3780+478370507+478193928+477945181+477486944+476904357+476417310+476096301
3767+475747292+475339424+474801436+474201725+473997386+474036403+473629489
3753+472871516+472559903+472515257+471593107+470382525+470313362+470520659
3740+469834805+468740368+467805101+467057430+466457863+465769672+464841273
3726+464024965+463448150+462778037+461962301+461072871+460003762+458648273
3713+457214224+455891265+454340451+452331352+449902890+447120602+444060853
3699+440703085+437138784+433546627+429876245+426060145+422555562+419872105
3686+417825372+416233442+415082006+413721270+411546038+409585591+408760315
3672+407885768+406515682+405284208+404001650+402467816+400967324+399613647
3659+398366218+397499850+396960216+395956215+394386990+392908295+391507063
3645+389765528+387818866+385946518+384109085+382214581+380350032+378454049
3632+376195441+373736643+371606271+369550523+367198736+364631281+361947848
3618+359293152+356675662+353974795+351120101+348041154+344917942+341953161
3605+339020242+335983579+332819991+329468043+325973834+322557779+319329250
3591+316133156+312808515+309394916+305977502+302578833+299180641+295681258
3578+292062390+288470161+285017641+281640746+278169552+274565876+270983927
3564+267460527+263861955+260248739+256759443+253356005+249922659+246464844
3551+243020433+239461975+235763904+232107092+228605419+225240592+221911372
3537+218564121+215279762+212112405+208933530+205675070+202459253+199337353
3524+196270462+193241240+190311039+187515289+184711489+181823704+179010567
3510+176364673+173761563+171096232+168395675+165767655+163263901+160815883
3497+158410494+156091440+153829886+151556265+149253464+146990813+144832013
3483+142649984+140322475+138042152+135964021+133940029+131804815+129557750
3470+127298545+125214130+123470961+121890038+120162037+118337208+116590998
3456+114859062+113054088+111256268+109542863+107865982+106161556+104522930
3443+103047324+101618010+100091319+98590225+97320526+96128207+94798939+93515629
3427+92464127+91474483+90366035+89229182+88202632+87279468+86304736+85157324
3412+84005530+83135627+82548073+81927948+80990397+79867478+79059153+78690130
3396+78312049+77633494+76885501+76446415+76258740+76035453+75718378+75354315
3381+74992095+74690409+74466191+74297131+74083121+73749173+73425069+73314928
3366+73450439+73692364+73923510+74151764+74382338+74582951+74702161+74777888
3350+75080539+75662613+76195743+76607313+77106022+77658237+78142989+78661248
3335+79298330+80047736+80846706+81522078+82080302+82786058+83750380+84812996
3319+85838795+86777950+87594020+88379700+89275974+90239545+91147965+92139606
3304+93497015+95148949+96686622+97885703+98959081+100228952+101751851+103383907
3288+104972689+106450512+107888234+109438988+111159035+112916216+114595589
3275+116239486+117926013+119756685+121787200+123903585+126020028+128171495
3261+130379722+132612025+134784228+136956217+139359804+142020259+144722044
3248+147374104+150088517+152894261+155725284+158635893+161626431+164538315
3234+167409918+170559221+174050877+177551430+180904499+184293366+187842928
3221+191488424+195211715+199049458+202925217+206848639+210951358+215177496
3207+219379881+223561064+227782027+232051285+236349734+240698529+245133490
3194+249631771+254174936+258762055+263380965+268034957+272711081+277364549
3180+282009096+286725859+291502817+296278798+301048315+305782631+310482413
3167+315200774+319967644+324794685+329634247+334371449+338959403+343483965
3153+348064502+352714917+357333827+361901246+366483238+371003913+375348486
3140+379612545+383955210+388322417+392545955+396568017+400463344+404360579
3126+408316960+412264612+416083002+419707451+423221525+426810343+430462266
3113+433909420+437090323+440206022+443348622+446492415+449533037+452328108
3099+454929334+457518396+460107935+462565255+464882055+467202004+469541270
3086+471715310+473644705+475441356+477149049+478723426+480204171+481622766
3072+482901222+484000000+484979722+485871728+486642723+487267475+487701672
3059+487903197+487910972+487773172+487487602+487027600+486343845+485336362
3045+483946721+482280954+480387571+478122142+475425854+472403262+469067483
3032+465331134+461208811+456746209+451882416+446485929+440480287+433893728
3018+426682226+418743707+410105597+400808298+390790516+379993702+368309414
3005+355555349+341682211+326713539+310510722+293047240+274208545+253439405
2991+230129283+205264531+180693708+157094487+134690644+114447676+97843484
2978+86196306+80062224+79398819+83937303+92982321+105374690+120062288+136556076
2963+154741531+174104490+193183334+209875166+222163409+229041763+230743494
2949+227903157+221220104+211939094+201970870+193413872+187880288+185757917
2936+186138108+187808383+190192247+193465851+198077880+204246579+211679591
2922+219573441+227024746+233259387+237566946+239498106+239189546+237216531
2909+234044524+229936344+225141689+220296690+216835846+215472677+214903971
2895+213722389+211795904+209305887+206109840+202035883+197474926+193571598
2882+191989470+194427806+201683250+213188240+227720735+244381217+262677893
2868+282058869+301824151+321334509+340114655+357853309+374518632+390368339
2855+405718930+420723805+435239248+448948495+461647683+473294600+483896113
2841+493536506+502501444+511170033+519708596+528155674+536613913+545033994
2828+553237906+561126532+568624081+575660387+582218565+588360100+594158397
2814+599666307+605093560+610764408+616897785+623566862+630601594+637589248
2801+644175235+650189558+655611850+660504786+664835217+668535697+671676103
2787+674346014+676591839+678509739+680177366+681593623+682734232+683544149
2774+684007204+684235440+684349534+684354352+684151873+683701076+683182691
2760+682799150+682502848+682134093+681695936+681364004+681274236+681422434
2747+681775497+682343393+683128745+684122395+685330068+686743177+688348557
2733+690121216+691953641+693737651+695563780+697640229+700077420+702988731
2720+706463455+710313755+714149841+717579871+720358391+722535913+724395668
2706+726280370+728486272+731073665+733823757+736574325+739327469+742017604
2693+744526438+746831314+748956463+750880373+752554964+754002272+755330097
2679+756659782+758103847+759718958+761505544+763451395+765403447+767163037
2666+768725107+770105972+771284263+772319935+773201304+773924791+774653955
2652+775487196+776382254+777266008+778056750+778762255+779436422+780017149
2639+780425493+780663937+780773166+780863316+781027923+781257685+781538819
2625+781885872+782310338+782813603+783372102+783869881+784175675+784321441
2612+784424469+784522584+784546529+784435535+784230862+784016649+783884620
2598+783799526+783571147+783202678+782938525+782841173+782744297+782576542
2585+782371488+782157036+781944922+781731186+781540488+781354179+781103047
2571+780785138+780429786+780042619+779595496+779027362+778333447+777534930
2558+776593748+775548202+774510526+773518116+772624727+771901431+771403461
2544+771230650+771410663+771869234+772521699+773329183+774273895+775245127
2530+776125160+776930307+777747283+778578330+779309211+779891654+780384282
2517+780800020+781178888+781623531+782114680+782609311+783166809+783832009
2503+784648603+785621505+786680645+787815053+789011946+790199490+791339908
2490+792434440+793539657+794708407+795905920+797117552+798312584+799419613
2476+800497976+801655327+802901969+804161012+805372358+806569394+807803443
2463+809109804+810461668+811784437+813056168+814232694+815213561+815976065
2449+816539096+816906754+817189414+817448606+817581112+817591415+817562128
2436+817484476+817337088+817102412+816762801+816317108+815762949+815098322
2422+814321412+813517887+812862418+812450304+812349470+812638713+813258981
2409+814086355+815077430+816217132+817410829+818531262+819568890+820508164
2395+821450778+822381466+823202640+823849524+824315536+824589706+824610120
2382+824352168+823818520+822966533+821694707+819920903+817692249+815173399
2368+812535971+810044308+808303321+807358800+806678813+806748071+808328697
2355+810892288+813190391+814814899+816448660+818555683+819952289+819417877
2341+818095013+817736418+818435961+819617924+820688273+821549609+822514258
2328+823657872+824834684+826095922+827562357+829045487+830320081+831380509
2314+832269891+832984697+833670980+834509325+835423796+836199084+836800177
2301+837328006+837790966+838168259+838442810+838614238+838770211+838954517
2287+839053539+838989051+838850344+838658883+838297903+837736590+837041912
2274+836242584+835362837+834425089+833394807+832276568+831141350+830067375
2260+829206135+828772844+828895906+829546796+830611994+831955177+833270887
2247+834380730+835319623+836035002+836505783+836767838+836942700+837127387
2233+837340980+837512408+837584623+837663230+837810808+837908208+837878063
2220+837784670+837717701+837696523+837655407+837535971+837356434+837146467
2206+836936976+836800082+836761160+836771272+836828987+836951953+837111742
2193+837289466+837411383+837406995+837381905+837453357+837608758+837819298
2179+838049300+838229694+838379085+838576938+838775076+838873240+838905102
2166+838967014+839062602+839123942+839107915+839039420+838986094+838913974
2152+838715835+838407227+838038901+837583669+837070149+836613582+836281029
2139+836101302+836109411+836330158+836776042+837431607+838302196+839341732
2125+840427535+841520303+842590271+843571710+844462809+845277210+846021684
2112+846681733+847181420+847518838+847834791+848193673+848502090+848726749
2098+848972395+849182267+849489539+849885626+850323782+850801719+851315811
2085+851785639+852172186+852562644+853039149+853534258+853947134+854323282
2071+854729099+855101527+855407560+855757760+856189239+856628063+857114108
2058+857741531+858478660+859224471+859935557+860620313+861271585+861861517
2044+862350234+862661513+862762156+862802032+862974127+863310782+863735201
2031+864178127+864639465+865139724+865693597+866337237+867032869+867649989
2017+868137084+868617310+869175952+869700347+870092427+870391972+870635233
2004+870815819+870966927+871112597+871230317+871287268+871235945+871084742
1990+870904060+870751426+870644677+870531823+870362303+870156342+869948473
1977+869758157+869628704+869600562+869641392+869687182+869715992+869748141
1963+869811675+869877307+869846685+869651504+869276977+868716427+867930646
1950+866824618+865344731+863486884+861237433+858650947+855816334+852676356
1936+849129894+845338454+841678184+838530575+836414680+835975569+837599982
1923+841116775+845771078+850835585+855884161+860547335+864720552+868387977
1909+871458887+874034403+876276794+878211245+879844434+881246382+882449618
1896+883465305+884350394+885063579+885555634+885941704+886328632+886735499
1882+887147326+887524047+887832177+888079254+888338733+888588958+888636275
1869+888457502+888375175+888580754+888894227+889088836+889129857+889123083
1855+889121653+889092747+889032838+889001453+888883543+888356858+887537497
1842+887007283+886899485+886929440+886988395+887096098+887047255+886669484
1828+886113322+885554203+885074931+884741616+884499785+884214836+883873889
1815+883526454+883080094+882471750+881859877+881428494+881117596+880659502
1801+879930768+879158151+878587966+878016731+876976814+875545389+874398436
1788+873716351+873076240+872208799+871153141+870079262+869200183+868450461
1774+867346819+865621000+863760481+862368168+861521524+860866818+860028377
1761+859036921+858212218+857806210+857822046+857880429+857578212+857021478
1747+856608602+856411036+856139919+855580704+854963107+854447870+853392498
1734+851336989+849193810+847798922+846814334+845703346+844448595+843236773
1720+841686007+839044667+835586638+832627246+830621629+828974894+827038726
1707+824632729+822144406+819598368+816131848+811628463+807016994+802767078
1693+799157941+796055645+792963938+789371686+784294157+777812105+772198591
1680+768341565+764921075+760897487+756716733+753118089+749980640+747434793
1666+745961011+745204707+744685846+744713272+745685554+747098758+747918835
1653+748152031+748984032+750625950+752537029+754633654+757299702+760684991
1639+764399112+767989600+771592966+775565469+779900956+784425995+788842092
1626+792917671+796781756+800608731+804146989+807154365+809845693+812589965
1612+815430779+818059240+820226363+821994920+823526416+824874751+826049273
1599+827077457+827949286+828646539+829144127+829433942+829561964+829572744
1585+829442146+829234086+829173510+829076682+828259420+826765224+825633058
1572+824906422+823707288+822077628+820821828+820274538+819709314+817459482
1558+813310686+809795419+807839122+806282632+804465041+802542038+800707848
1545+798749834+795938498+791581309+786745372+783369765+780802453+777520430
1531+773757895+770214867+766611931+762637854+758080522+752549001+746585095
1518+740941436+735542325+730387001+725503795+720109406+712368740+701951723
1504+692107372+684199285+675726784+664254443+649765997+634211543+618092961
1491+599617798+579570596+562099386+549146634+539164292+530260980+522026780
1477+514310201+505555326+493530544+478612957+464207029+451713993+439477908
1464+426302548+413046291+401402809+394298748+395491515+404366255+416263349
1450+427929870+438692031+448515538+456615134+462280496+465485248+466646414
1437+466308138+465153172+463697898+461969933+460109223+458559077+457619898
1423+457313818+457474513+457883192+458617269+459913278+461712743+463883444
1410+466469883+469594358+473293550+477457514+481641034+484736080+484545048
1396+479164969+470470051+462297429+453810284+441014269+424473987+410170086
1383+403495905+406919878+420234421+440881477+466356075+495267477+526056664
1369+556572444+583135422+601807578+611717944+614810461+614181989+612322567
1356+610081893+607291735+603677875+599239646+594585869+590873465+588749270
1342+587610712+586460707+585252700+584713757+585320432+587114650+590050336
1329+594089759+599096695+604947937+611576709+618882224+626715235+634933361
1315+643483371+652328825+661366360+670429795+679294328+687729959+695632084
1302+702950763+709548579+715309577+720186010+724147780+727072495+728675539
1288+728536737+726129405+721044769+713241523+703355054+693141757+685447596
1275+683228100+688119892+699511670+714861690+731230211+746517364+759586071
1261+770104303+778363354+784729118+789297658+791975296+792881802+792993559
1248+793134984+791964946+787523998+781588854+777990020+776589980+775522350
1234+776141902+780462030+788292465+798103046+808300650+817856427+826285856
1221+833588271+839964481+845467335+850069837+853821115+856841179+859236491
1207+861117711+862577564+863650680+864331334+864691074+864712729+864515545
1194+864164295+863614047+862794973+861677593+860279843+858624236+856691025
1180+854441765+851798327+848689544+845084986+840921213+836080601+830448103
1167+823945874+816549208+808442886+800090156+792068451+784804815+778348329
1153+772441661+766702224+760651555+753848875+746080972+737354383+727862617
1140+717881515+707610408+697228354+686912076+676751724+666784407+656988088
1126+647185854+636999888+625861340+613071859+597910009+579534822+556987324
1113+529473673+496465657+457818704+414026109+366688483+318696771+273255462
1099+232800792+198977768+173116587+156183844+148543260+150210398+160644300
1086+178075526+199655179+221967346+241257600+253770383+256447473+248925718
1072+235873085+224571147+218431735+214336600+204934483+183439710+149979014
1059+112558765+80300543+57658405+44617709+39877372+42932613+54813370+78241384
1043+116750954+172693313+244897646+328395666+415605542+498354890+569979093
1030+625747341+665238410+688685593+687841429+655399163+603854406+563955612
1016+562629696+602554104+665380408+731951313+793465724+848081868+895333685
1003+934395136+964413471+985508795+998847140+1005753755+1007262069+1004076493
989+996639187+984849987+968031099+944975662+913494420+869855271+808929027
976+727465195+631522123+542402862+490125794+494755579+553676587+646257551
962+747871041+840518639+915604687+971622111+1010811489+1036879930+1053554579
949+1063793585+1069686039+1072696945+1073741823+1073236221+1071475487
937+1068779104+1065308005+1061040918+1055967920+1050099125+1043388932
926+1035811584+1027252988+1017504510+1006368872+993647265+979222449+963097571
912+945370604+926371809+906928085+888296663+871346796+855118699+836374995
899+811194218+776291007+728871579+667675983+595244773+517819411+443141087
885+379122398+334800781+322866006+356885511+439154084+552370561+668865483
872+766880472+837539310+882202064+906256589+914861453+913294851+908950683
858+909827377+918899779+932010317+943062293+949356557+951504792+950853425
845+948314255+944402233+939508581+933975772+927953484+921461081+914618001
831+907575065+900323783+892817696+884890816+876370569+867259435+857466694
818+846631077+834278465+820143845+804072771+786340079+768563887+754169169
804+747312399+749637594+758303035+768079225+775146344+778561827+778991636
791+777464432+774761514+771191203+766781975+761791591+756655584+751319292
777+745598600+739662788+733676989+727767507+722371163+717805484+713622727
764+708944099+703046399+695874677+688374219+682264977+679016915+678437572
750+678731298+678221069+676474359+673848998+670758293+667383068+663779702
737+660090479+656410557+652795458+649276374+645784145+642310376+639032407
723+635929825+632591614+628875251+625338424+622342448+619576711+616651948
710+613595443+610624509+607858152+605268708+602768555+600291584+597814470
696+595363208+593002143+590758941+588688121+586870626+585224558+583566757
683+581860495+580197780+578657937+577221265+575733222+574491636+574507329
669+575094972+573892212+572072618+571936440+572712634+572929279+572753845
656+572761429+573044614+573576449+574307091+575079804+575923109+577068774
642+578554861+580196922+581862641+583547392+585340942+587318274+589426490
629+591574534+593737984+596183189+598862353+601661717+604630171+607518445
615+610143424+612929766+616188464+619689804+623205930+626859713+630805409
602+634798661+638456021+642081328+646249156+650725639+655089697+659385499
588+663602884+667652038+671808895+676368468+681088213+685610390+689893409
575+694088854+698380458+702969652+707816846+712506492+716834824+720960439
561+725213837+729767686+734430574+739062744+743595559+748063790+752544852
548+756937719+761260566+765504329+769526581+773536861+777797414+782180742
534+786595456+791007451+795231944+799203540+803087897+807011461+810889999
521+814744782+818630474+822471712+826243596+829890224+833436495+837001369
507+840360376+843119721+845410288+847541733+849434305+851003387+852229901
494+852956727+853075591+852660330+851831906+850921919+850743527+851953346
480+854328529+856889354+858620706+858964420+857421571+854191826+851017029
467+849723070+851081517+855081303+860926250+867100314+872100524+875028530
453+875484716+873285444+868825179+862862323+855992913+848130520+838971975
440+829625403+821438949+814586901+810520814+812737257+823136148+839964481
426+860105839+881547167+902739605+923108770+942439736+958141530+969491334
413+979269575+988854352+996909827+1002853414+1008092019+1012789918+1016341054
399+1019535121
##END=
