##TITLE=16
##JCAMP-DX=4.24
##DATA TYPE=INFRARED SPECTRUM
##DATE=16/11/2015
##SAMPLING PROCEDURE=Instrument type and / or accessory
##ORIGIN=Default
##XUNITS=1/CM
##YUNITS=TRANSMITTANCE
##RESOLUTION=4
##FIRSTX=3996.3359
##LASTX=399.24785
##DELTAX=-1.9287336
##MAXY=0.73267078
##MINY=0.057997514
##XFACTOR=1
##YFACTOR=6.8235284e-010
##NPOINTS=1866
##FIRSTY=0.30420023
##XYDATA=(X++(Y..Y))
3996+445810750+445923521+446058698+446139847+446214664+446315948+446478029
3983+446691997+446846173+446946671+447070230+447168020+447206367+447289133
3969+447468903+447668021+447890287+448173437+448408544+448477727+448483579
3956+448622687+448793547+448804771+448863428+449107270+449177588+449059882
3942+449153042+449302981+449198596+448933222+448676495+448677282+449020836
3929+449354432+449448684+449450475+449414573+449279877+449221832+449347487
3915+449423134+449350632+449319928+449304161+449070015+448766337+448744761
3902+448930339+449079667+449093905+448795818+448292585+448181867+448405749
3888+448191170+447829840+447930207+448092855+448238340+448350368+447979386
3875+447401074+447051056+447053851+447308700+447127532+446464621+446010174
3861+445912427+445855736+445456801+444957062+445263536+445944966+445838309
3848+445280569+444962828+444975581+445054852+445023013+445074856+445107919
3834+444780219+444389451+444246675+444157795+443996718+443678933+443439065
3821+443682340+443731955+443316598+443169018+443055592+442519340+441967409
3807+441963652+442101013+441730642+441485358+441605904+441481995+441219416
3794+440951858+440598215+440276062+439990684+439722777+439449104+439054755
3780+438711944+438601531+438482515+438169490+437756229+437486313+437385509
3767+437167960+436768020+436204427+435654549+435515528+435546975+435173503
3753+434604407+434560164+434807412+434241155+433278409+433022163+432750805
3740+431750279+430782554+430432536+430335270+429944939+429081774+428051112
3726+427397066+427064431+426581857+425990399+425473321+424792328+423679817
3713+422388629+421245327+419994800+418371588+416394559+414224569+411951330
3699+409372491+406490367+403612305+400853609+398185322+395818179+393927060
3686+392326122+390999382+390039518+388939543+387129224+385406343+384627603
3672+383984390+383131139+382407430+381514740+380354710+379250804+378286573
3659+377428867+376954154+376789191+376241190+375334436+374674495+374063252
3645+373006471+371721135+370559359+369465104+368262229+366946101+365497767
3632+363779124+362032222+360651432+359268874+357530183+355612596+353792472
3618+352189613+350540130+348672355+346738149+344742863+342643279+340453635
3605+338167817+335837101+333521146+331213993+328876987+326558325+324337758
3591+322072468+319584125+317016162+314515808+312040132+309636345+307311940
3578+304905118+302341871+299774868+297274930+294707905+292107425+289625917
3564+287120519+284420633+281675607+279047305+276487902+273898013+271319501
3551+268846358+266352840+263705626+261006242+258421507+256010121+253661431
3537+251256291+248805510+246367394+243993875+241708035+239382844+236852092
3524+234256853+231869991+229656937+227406846+225109039+222930270+220938543
3510+218991868+216918883+214722316+212504349+210349165+208246524+206182776
3497+204245775+202408245+200559229+198707571+196833201+194852743+192846559
3483+190937118+189056917+187154267+185314969+183587263+181882181+180038766
3470+178075352+176259333+174690913+173148031+171482115+169756833+168095918
3456+166558037+165129936+163780004+162406967+160948238+159469801+158034144
3443+156600790+155039281+153319852+151694314+150433808+149439943+148428421
3429+147347095+146333576+145367805+144284896+143146038+142184700+141371063
3416+140501729+139612718+138752283+137815273+136954925+136317552+135575413
3402+134562286+133724508+133335727+133116475+132720062+132159461+131776599
3389+131679147+131608600+131375087+131049757+130770100+130573734+130504497
3375+130581312+130630545+130514837+130431078+130646443+131088028+131475345
3362+131727540+132027866+132502131+133047008+133499271+133886076+134448129
3348+135269136+136108989+136799930+137438045+138139107+138992642+140007089
3335+141015892+142005575+143090624+144187488+145225313+146318027+147543910
3321+148877234+150293325+151700953+152998692+154252625+155513153+156736306
3308+158035312+159613811+161466932+163372367+165101350+166619697+168119295
3294+169808032+171745426+173858473+175947532+177852322+179724923+181781366
3281+183929114+185989542+187962401+189949149+192040828+194318784+196809332
3267+199361900+201853825+204365949+206930244+209502291+212116704+214817901
3254+217606471+220451165+223331717+226278240+229312771+232471996+235785354
3240+239119653+242323996+245440681+248615498+251989827+255591073+259289192
3227+262940011+266561108+270305786+274185924+278047020+281848869+285713481
3213+289691693+293711179+297755757+301842154+305940868+310013158+314094184
3200+318312002+322609812+326790221+330900510+335057378+339219487+343414048
3186+347719589+352064329+356354124+360619680+364859860+368992445+373095614
3173+377284212+381454555+385528679+389561181+393565686+397526646+401430785
3159+405291553+409171451+413061351+416866476+420563765+424195323+427779798
3146+431352174+434894633+438297242+441576816+444836517+448030530+451105614
3132+454124487+457153230+460191233+463161495+466038727+468861627+471568261
3119+474081455+476428725+478675191+480892525+483098810+485242201+487337941
3105+489415207+491391495+493223652+494988941+496711123+498305247+499746156
3092+501120765+502476244+503751403+504876580+505877936+506828802+507721099
3078+508520061+509286309+510049457+510675375+511031814+511176468+511254997
3065+511289632+511249581+511131264+510836539+510294173+509592957+508792991
3051+507864225+506769883+505432966+503800670+501915709+499793981+497402773
3038+494725314+491748151+488449185+484821559+480878899+476597008+471921162
3024+466808121+461233164+455227913+448783458+441740906+433988622+425594216
3011+416597258+406934594+396516381+385235309+373014202+359784729+345426302
2997+330021577+313491348+295156347+274268253+251827658+229720878+208386396
2984+187605854+168142782+151698747+140084079+134338328+134780414+141395882
2970+153332922+168831659+186385355+205318125+225243822+245416834+264352400
2957+280053421+290872753+296339830+297035717+293732427+287167230+278438901
2943+269204456+261504430+256950614+255786151+257009555+259385061+262296579
2930+265942309+270846165+277160531+284452625+291984324+298974050+304708926
2916+308559190+310058516+309346141+307126994+303875548+299786988+295062989
2903+290234977+286842326+285794019+285642813+284760147+283066879+280970788
2889+278395203+275005392+271157617+268161849+267760577+271528971+280083689
2876+292696764+308004726+325020193+343169179+361898705+380610651+398724980
2862+415825550+431718745+446437454+460278541+473631201+486590998+498948242
2849+510491806+521025366+530419119+538803654+546469154+553603818+560331948
2835+566871704+573407616+579943790+586347976+592494956+598320000+603773669
2822+608812505+613428210+617684419+621666781+625488415+629341496+633413961
2808+637777307+642377594+647102226+651789341+656217240+660174794+663634050
2795+666709046+669407950+671699446+673585455+675066109+676248894+677274315
2781+678143246+678771391+679169366+679397397+679434827+679298646+679077166
2768+678780083+678328126+677728893+677154600+676719370+676347645+675969718
2754+675641407+675426522+675303618+675250247+675338341+675619307+676050955
2741+676655604+677513440+678612455+679851364+681123029+682375127+683604121
2727+684873690+686294683+687969476+690021235+692480883+695153931+697750284
2714+700058682+701974522+703477713+704672116+705790654+707046901+708542755
2700+710294985+712193704+714048966+715774466+717382872+718835225+720081820
2687+721161923+722106806+722932410+723725432+724592004+725575016+726623148
2673+727731116+728945435+730134553+731136040+732025236+732885475+733629973
2660+734236456+734736980+735125433+735534501+736072150+736595824+736987508
2646+737337439+737710431+738065952+738365830+738548657+738611288+738648150
2633+738674880+738652780+738635921+738698640+738868626+739157411+739478166
2619+739713579+739872821+740006119+740129984+740226071+740235505+740145532
2606+740002887+739808967+739600458+739483844+739427677+739289923+739030489
2592+738762843+738590236+738488734+738420075+738352290+738233580+738051015
2579+737838575+737641423+737466108+737288260+737094252+736899458+736636704
2565+736212874+735701255+735185356+734677581+734187014+733665263+733053015
2552+732372197+731749423+731288818+731022876+730993438+731184520+731560481
2538+732095685+732693127+733295678+733946623+734652599+735313501+735853859
2525+736332022+736795422+737186408+737513016+737828879+738107444+738403216
2511+738820495+739306695+739789662+740313684+740911868+741523417+742160298
2498+742932050+743781457+744588325+745389601+746189131+746920876+747602393
2484+748286881+749008056+749750632+750495043+751270289+752058375+752855459
2471+753706614+754562223+755322532+756029032+756816507+757667137+758483176
2457+759273621+760024147+760629144+761054285+761349970+761537689+761684177
2444+761854775+761953832+761913825+761823765+761769520+761737549+761652119
2430+761433915+761032884+760540744+760100579+759668101+759211340+758877831
2417+758744270+758788208+759021874+759442909+760016023+760714487+761492703
2403+762282798+763047737+763800621+764445712+765079012+765783241+766558399
2390+767325172+767966333+768347885+768376973+768037438+767425889+766604783
2376+765444054+763861155+762166097+760550440+759040393+757966579+757242346
2363+756785410+756477058+755305411+753637256+753792830+758405870+766446502
2349+771672052+769930348+764797041+762295028+763340277+765399505+766890336
2336+767460043+767593604+767649509+767883437+768616055+769683841+770389468
2322+770569849+771156415+772598766+773988356+774446952+774414108+774671533
2309+775373753+776266399+777040597+777474473+777669442+777920927+778224561
2295+778443115+778629786+778819775+778956918+779065234+779197397+779275052
2282+779157302+778828685+778386861+777909659+777433767+776976830+776500677
2268+775959184+775366153+774753993+774169436+773731193+773610647+773879166
2255+774476652+775298281+776261770+777162191+778002950+778722990+779254874
2241+779558596+779695039+779816720+780039204+780322923+780542437+780684908
2228+780819167+780942770+781035799+781124461+781184996+781180454+781139573
2214+781080873+781034489+781048902+781074234+781044535+781012214+781051261
2201+781153287+781282917+781430978+781615814+781834892+782001297+782069693
2187+782122541+782228324+782407308+782646738+782873067+783045062+783207885
2174+783415608+783642547+783804148+783892548+783944260+783939980+783939980
2160+784048732+784181070+784219418+784193212+784113023+783947142+783729724
2147+783479898+783194870+782946879+782779513+782693384+782766236+783030562
2133+783437184+784005231+784731822+785495538+786232436+786979468+787715056
2120+788400679+789064377+789706324+790272101+790731920+791096613+791399636
2106+791646142+791846614+792054336+792262320+792471091+792629984+792877101
2093+793222315+793606924+793978082+794343561+794705633+795061067+795388112
2079+795652001+795901303+796198997+796501234+796771150+797051724+797358416
2066+797667815+797965422+798285915+798712890+799257528+799832651+800367767
2052+800854228+801321472+801810904+802291775+802660923+802884455+803014435
2039+803132622+803334753+803662846+804069468+804468927+804834319+805209232
2025+805644069+806159968+806736925+807311699+807791347+808157263+808488588
2012+808825154+809132981+809412506+809683646+809932074+810165739+810395998
1998+810603371+810754577+810795632+810746715+810695440+810673864+810672641
1985+810686967+810695265+810666002+810606166+810558036+810579874+810712735
1971+810894427+811005363+811047030+811147572+811339309+811495756+811513488
1958+811400630+811169235+810779559+810229768+809559432+808777896+807792919
1944+806453294+804770727+802924812+800969358+798816839+796517044+794318928
1931+792547087+791592246+791819622+793385750+796128504+799544041+803135417
1917+806630706+809871452+812812931+815364735+817443355+819175014+820681043
1904+821947642+823006257+823990885+824938126+825750758+826405459+826920222
1890+827282819+827586977+827930182+828252160+828486874+828696343+828946169
1877+829228315+829546362+829865894+830051691+830021118+829936474+830008015
1863+830225958+830443289+830550906+830583226+830636161+830700627+830729365
1850+830786319+830839865+830582702+829985828+829548022+829510461+829621834
1836+829702721+829823441+829912365+829768759+829422759+829041557+828724383
1823+828518233+828383013+828208746+827986436+827790769+827561121+827182626
1809+826724205+826374536+826152226+825862568+825386764+824881522+824584876
1796+824368768+823742631+822643223+821698253+821171435+820706637+820107929
1782+819449735+818792850+818272322+817941084+817417761+816284460+814798958
1769+813626612+813049217+812728986+812169237+811377831+810731865+810447099
1755+810489552+810550087+810271348+809730553+809303841+809090790+808872498
1742+808459150+808024401+807734219+807010161+805347423+803552084+802420706
1728+801630959+800763295+799885935+799205204+798390912+796655672+794049186
1715+791716984+790186496+789037385+787757334+786167709+784530739+782858654
1701+780446263+777150398+773669872+770353217+767560235+765363778+763386137
1688+761136919+757640495+752763391+748420965+745632701+743429256+740823905
1674+738026469+735648233+733592324+731911810+731064805+730789953+730598740
1661+730797421+731935307+733623596+734627354+734603594+734972568+736299439
1647+737729124+739026820+740904181+743660213+746824876+749748710+752312569
1634+754991993+758114465+761538999+764943966+768123042+771106887+774049065
1620+776878472+779320562+781370181+783427487+785695049+787867135+789625174
1607+790987423+792124742+793133566+794035996+794837360+795524031+796096184
1593+796556789+796919299+797211315+797424541+797537399+797649471+797955639
1580+798260758+797888640+796820854+796098630+795879902+795266518+794178204
1566+793437200+793470481+793675321+792456678+789232004+786143425+784432992
1553+783302837+782111098+780895076+779840567+778798724+777038850+773725340
1539+769655103+766798791+764874522+762492792+759757200+757269338+754722601
1526+751803134+748373708+744101252+739433354+735031268+730818123+726830914
1512+723180095+719240755+713338666+704954873+696909350+690706946+684314552
1499+675522565+664190611+652030344+639592474+625370622+609850854+596299251
1485+586269709+578544417+571695873+565464032+559644840+552795292+543042087
1472+530904576+519447053+509772378+500204184+489682460+479249397+470523579
1458+465804843+468020780+476548615+487443593+497965492+507556004+516213601
1445+523332018+528377929+531355572+532533859+532269227+531263285+530143830
1431+528854869+527377753+526128930+525441691+525319617+525507117+525678021
1418+525942260+526690776+527894918+529384220+531204978+533485293+536302427
1404+539668697+543278242+546062008+545812794+540665947+532607496+525677846
1391+519154731+508951447+495300612+483643622+478902568+483238048+496310877
1377+515599562+538599819+563901748+590130215+615484337+637014509+651771303
1364+659308527+661374830+660609630+659025814+657246635+655092631+652294539
1350+648827203+645229363+642515042+641201273+640693542+640093349+639406590
1337+639319238+640222367+642103179+644869999+648457094+652802271+657899895
1323+663689911+669961890+676518680+683277950+690215549+697292474+704443080
1310+711568921+718519143+725092616+731147658+736654262+741592076+745925416
1296+749604406+752568946+754692726+755747410+755442553+753421935+749368207
1283+743214108+735495630+727659532+721949136+720649824+724927696+734122811
1269+746139253+758703128+770264992+779983561+787603333+793376054+797630953
1256+800488662+801881659+801895285+801401050+801159959+799972850+796067271
1242+791033894+788292537+787625782+787146833+787797865+791245285+797465159
1229+805349781+813596650+821298095+828015874+833780995+838843111+843259435
1215+846986118+850064303+852554961+854497312+855999848+857204252+858172196
1202+858837815+859187222+859244175+859136121+858861837+858389352+857695168
1188+856766096+855642754+854308108+852681358+850772376+848610073+846129985
1175+843224232+839821536+835881366+831354192+826175899+820324823+813953744
1161+807401060+801092174+795364789+790270091+785569699+780865027+775750064
1148+769974111+763504411+756381321+748651224+740465676+732013968+723461892
1134+714978081+706616039+698271293+689892130+681472829+672709886+663021715
1121+651810306+638490577+622418835+602874253+579133691+550572891+516891537
1107+478398811+436315189+392847874+350580705+311781243+278324689+252033808
1094+234545113+226812549+229191287+241087599+260162709+282879990+305447353
1080+324037924+335078823+336032725+327251766+313680879+302091063+295240422
1067+290098883+279740899+256861603+220251457+177298327+138084698+108882551
1053+91257052+84996368+90250215+108268163+141447321+192036962+259989971
1040+341293478+429049978+515436870+593082526+656530832+702646911+732657574
1026+748491895+743880514+712735372+666328062+631433132+630721914+665697732
1013+720117721+777494127+830373233+877179739+917409890+950250091+975000307
999+991839608+1001721089+1005801895+1005143963+1000356394+991706834+979270318
986+962752907+941266411+913119614+875440306+824207866+756868831+678038730
972+604766814+562494207+568947223+621603625+702125073+789600716+869281753
959+934094753+982519886+1016264439+1038566013+1052685621+1061147462+1065744518
945+1067769766+1068071129+1067088597+1065102221+1062311423+1058859723
934+1054816128+1050113727+1044706223+1038693110+1032088365+1024637968
922+1016136469+1006507609+995638793+983470185+969966319+955136630+939278550
908+923194141+908042474+894461040+881447129+866277206+845704757+816927892
895+777575189+726471025+665372741+598927531+533284166+475622601+435292170
881+425756340+460412015+539542169+643748622+745972935+827922495+884396383
868+918493487+935700888+940740729+938119306+933911577+934650397+942644471
854+954123700+963716221+969133159+970952344+970362633+968236145+965058729
841+961186605+956832213+951932833+946483139+940722123+934911579+929024689
827+922912258+916491475+909722159+902504642+894586390+885795582+875937948
814+864682601+851847587+837716886+823567229+812203828+807002474+809160846
800+816277996+824109683+829626376+832140182+832180014+830615896+828158170
787+825073696+821510535+817695102+813683303+809263222+804393717+799352217
773+794352383+789474143+785082277+781505489+778274526+774449223+769385448
760+763167408+756741996+751785139+749630611+749779284+750450930+750370305
746+749229580+747162228+744473807+741582642+738730086+735842940+732860405
733+729880273+726887125+723865194+720944374+718213936+715591858+712456851
719+709472307+707086559+704789953+702401541+700041605+697653236+695209093
706+692806093+690533684+688419730+686458205+684637753+682919721+681249296
692+679550524+677778029+676041827+674512999+673216482+672060732+670914722
679+669659392+668668649+669030940+670204379+667630562+660799926+659408108
665+665047749+667997046+666571249+665005820+664787397+665277964+665878987
652+666311858+666737741+667579767+668812124+670033519+671138954+672322918
638+673720850+675374111+677186308+679000821+680776549+682655264+684817829
625+687116269+689530232+692110381+694677995+697018758+699322701+701906170
611+704826685+708026070+711445363+714903177+718220793+721534827+724970630
598+728375859+731759862+735314899+739083249+742963322+746901309+750792126
584+754581790+758495755+762604689+766713099+770644185+774410526+778223426
571+782204826+786371849+790743363+795084477+798981060+802563089+806347075
557+810451117+814564681+818388761+822060501+825793997+829611177+833548465
544+837460771+841156269+844627362+847971532+851335706+854837983+858605023
530+862635428+866598485+870191957+873542155+876886413+880301949+883732598
517+887054494+890322494+893656706+896885922+899823558+902571815+905230887
503+907742072+909898347+911537064+912851182+913927180+914383155+913996100
490+913110966+912170800+911477228+911440366+912526321+914733872+917288122
476+919226018+919848835+918601366+915840181+913199453+912341660+914059867
463+918237722+924234587+931119469+937472030+941718718+943075813+941776457
449+938650404+934064617+928277658+921905530+914967363+907664067+901059234
436+896168328+894276117+897105698+905649126+919494974+937086547+956313781
422+974723140+991492211+1007644666+1022215357+1033569761+1042266841+1049468984
409+1055279004+1059408728+1062837892+1066289941+1069795625+1073741823
##END=
