##TITLE=31
##JCAMP-DX=4.24
##DATA TYPE=INFRARED SPECTRUM
##DATE=16/11/2015
##SAMPLING PROCEDURE=Instrument type and / or accessory
##ORIGIN=Default
##XUNITS=1/CM
##YUNITS=TRANSMITTANCE
##RESOLUTION=4
##FIRSTX=3996.3359
##LASTX=399.24785
##DELTAX=-1.9287336
##MAXY=1.2435554
##MINY=0.046725508
##XFACTOR=1
##YFACTOR=1.1581512e-009
##NPOINTS=1866
##FIRSTY=0.18828541
##XYDATA=(X++(Y..Y))
3996+162574112+162648094+162750549+162889698+163011542+163109661+163186280
3983+163279136+163460320+163666246+163792464+163912108+164123476+164364218
3969+164573914+164774140+164940926+165035957+165101627+165215777+165385986
3956+165565587+165727728+165852159+165916555+165947653+166048306+166217743
3942+166350214+166486237+166669415+166841258+167005368+167143038+167220249
3929+167323115+167512958+167714252+167872713+168004568+168086153+168106752
3915+168169141+168348356+168536140+168656852+168804609+168965040+169040025
3902+169094835+169163348+169218095+169381150+169640934+169708752+169628222
3888+169761208+169946908+169963248+170038220+170092645+170056426+170196541
3875+170470697+170720355+170819168+170732887+170799547+171020977+171064079
3861+170971557+171005704+171409437+171967000+171926870+171427128+171317970
3848+171579582+171817725+171910542+171993788+172187194+172299041+172266348
3834+172341101+172521809+172664419+172746455+172766848+172879467+173060690
3821+173058876+173141349+173372788+173361119+173304983+173492034+173708908
3807+173691436+173680448+173933400+174033732+173910382+173952623+174058474
3794+174100470+174159346+174241485+174355429+174460483+174525367+174629057
3780+174718247+174701636+174711698+174861745+175065033+175142604+175094008
3767+175084525+175145486+175307988+175498358+175471365+175363288+175538205
3753+175886844+175912011+175652844+175744556+175975905+175706060+175421366
3740+175645446+175961636+175995591+175933536+175968957+176056564+176104813
3726+176056770+175994253+175982377+175920773+175807279+175785458+175923861
3713+175995964+175769645+175471429+175350987+175322488+175118801+174627217
3699+174067082+173567688+173080542+172644451+172217906+171575516+170827300
3686+170410251+170307114+170219932+170178361+170245433+170057571+169685631
3672+169685979+169748574+169521920+169387158+169407912+169315210+169124955
3659+168962273+168697831+168355330+168222999+168103780+167608452+166980562
3645+166639154+166503568+166267767+165855787+165393011+164927532+164495661
3632+164168277+163640320+162705040+161911380+161486689+161087703+160441325
3618+159577968+158795206+158139589+157434256+156669044+155794584+154816511
3605+153927022+153108325+152201274+151248496+150291601+149234078+148172464
3591+147299998+146374317+145067985+143706817+142687867+141835897+140884149
3578+139811019+138689976+137562666+136472733+135419366+134226567+132851130
3564+131579589+130484895+129384669+128231846+127074944+125886120+124592796
3551+123245897+121901699+120469651+119004162+117714377+116589190+115425893
3537+114131411+112812187+111572413+110358410+109067750+107683802+106270808
3524+104899739+103609124+102388874+101167904+99902249+98633506+97393166
3510+96145511+94900211+93689579+92415837+91070939+89831261+88708011+87574847
3495+86424674+85312714+84218348+83069449+81863031+80668713+79477857+78265539
3479+77145589+76160510+75174473+74079664+72852749+71575373+70436497+69511941
3464+68658189+67727162+66758919+65846799+64951386+64024508+63100756+62186121
3449+61252971+60336952+59520609+58776883+57979203+57062225+56110425+55291631
3433+54615055+53961165+53338380+52808380+52292691+51689074+51041662+50444526
3418+49881637+49255284+48570753+47931805+47380917+46910909+46454631+45865475
3402+45163349+44640249+44411733+44197116+43766869+43226284+42879816+42781717
3387+42671472+42416403+42096121+41791395+41532524+41329432+41159285+40929614
3371+40601873+40344910+40356837+40567253+40736439+40794428+40842754+40911749
3356+40952391+40926243+40869857+40950886+41218605+41480062+41638446+41766978
3341+41894731+42066075+42364468+42758754+43173448+43579873+43927026+44199506
3325+44514317+44973111+45508926+46011289+46450012+46854175+47261157+47662294
3310+48015024+48354306+48873916+49682028+50573736+51299153+51838358+52330676
3294+52905171+53633688+54515470+55410548+56207656+56975905+57782592+58612020
3279+59444884+60269384+61068847+61834986+62672545+63725668+64914742+66041531
3263+67085145+68154061+69271605+70379158+71494052+72679356+73903060+75099289
3248+76313150+77640801+79063792+80502731+81936594+83334077+84660352+86028313
3233+87607707+89353045+91078517+92728547+94370529+96053626+97762269+99470185
3217+101199973+102996120+104853067+106700138+108493088+110278742+112129834
3204+114046275+115980419+117936282+119919190+121874384+123790735+125721688
3190+127696002+129700692+131705730+133695728+135685133+137699422+139735417
3177+141750349+143722321+145674324+147634497+149600679+151548989+153491355
3163+155450551+157394216+159285143+161115688+162876008+164622587+166484011
3150+168463072+170413030+172250677+173974830+175578207+177159556+178880403
3136+180709520+182481445+184112138+185642022+187183061+188785808+190351293
3123+191771762+193112730+194506888+195968786+197447707+198880258+200208051
3109+201495314+202840335+204187929+205438241+206585597+207697248+208834992
3096+209960835+210998196+211967018+212938053+213901497+214809899+215681851
3082+216537192+217379242+218262336+219188686+220048903+220767025+221362196
3069+221902582+222466333+223056589+223600089+224058388+224452535+224804789
3055+225089804+225293967+225466531+225614957+225671852+225620618+225535160
3042+225456495+225332103+225092609+224718173+224242247+223694348+223073907
3028+222350690+221468703+220419093+219207445+217797037+216177655+214348924
3015+212302971+210062775+207607570+204826576+201600368+197885356+193672454
3001+188902467+183479307+177305100+170243336+162116689+152767482+142169431
2988+130396041+117580065+104058853+90549640+78153602+68043899+60955578+56947927
2972+55535525+55889092+57197656+59183324+62255966+67122811+74079908+82506630
2957+91043617+98248410+103188510+105550460+105363551+102846201+98476556
2943+93154371+88223445+84993789+84063746+85142009+87442388+90299312+93524413
2928+97196555+101349371+105914848+110731122+115563216+120107785+124030795
2914+127081904+129115506+130095998+130202724+129759646+129005962+128111932
2901+127249836+126427999+125442798+124026742+121959765+119154711+115571849
2887+111106883+105867641+100505590+96253247+94595137+96408698+101312161
2874+108133036+115891564+124147904+132677872+141181670+149337048+156969216
2860+164088699+170802777+177268483+183681913+190158054+196672652+203094471
2847+209210110+214852371+219952071+224523454+228676038+232524925+236165531
2833+239706758+243215124+246693178+250110425+253420829+256602365+259633159
2820+262463006+265102895+267615973+270052368+272456726+274864969+277325630
2806+279871028+282470568+285046768+287517208+289846760+292024413+294048982
2793+295924662+297602844+299056096+300359482+301584537+302710573+303696186
2779+304577221+305408849+306164154+306805413+307369781+307904378+308385656
2766+308767348+309088441+309432023+309798045+310152178+310522265+310921868
2752+311291106+311588138+311847111+312117459+312411609+312739700+313142340
2739+313681748+314408670+315327995+316393971+317496564+318502480+319361720
2725+320153565+321037946+322123015+323400694+324826181+326367027+327942458
2712+329411176+330690347+331776523+332722919+333662213+334678087+335750805
2698+336842153+337888263+338840166+339729153+340583066+341354660+342008192
2685+342569010+343040716+343418111+343778986+344273079+345010114+345971641
2671+347051255+348142011+349175641+350138558+351063081+351982561+352889123
2658+353747513+354547001+355314993+356082007+356851799+357630032+358408394
2644+359141312+359845101+360553418+361218839+361833644+362446931+363056872
2631+363648157+364216721+364746711+365267926+365804015+366309198+366763303
2617+367176853+367576841+368001353+368437290+368850505+369219641+369559389
2604+369909405+370256538+370569113+370871781+371188576+371503569+371815346
2590+372118091+372403672+372704384+373024164+373334191+373661151+374042020
2577+374439178+374833016+375260539+375717114+376167538+376598432+377023947
2563+377461428+377905265+378310864+378617777+378848857+379077003+379316805
2550+379554524+379798212+380077540+380445878+380928339+381478427+382069403
2536+382725766+383435062+384147290+384849895+385567065+386296303+387022479
2523+387739031+388435794+389118559+389797335+390465999+391116340+391776178
2509+392504052+393297905+394089544+394846368+395596424+396387395+397213542
2496+398008295+398772221+399522277+400208825+400859038+401548982+402273151
2482+402993665+403702086+404411149+405128705+405864479+406636073+407431290
2469+408211582+408965703+409702790+410435759+411207971+412051539+412924932
2455+413741146+414461275+415130865+415802462+416476915+417121312+417723251
2442+418310753+418906156+419492912+420051414+420576000+421060289+421515963
2428+421959723+422396046+422798119+423124898+423421339+423765513+424146279
2415+424529876+424952664+425466957+426047821+426645848+427269248+427936135
2401+428604336+429225497+429843441+430490154+431133806+431732219+432259687
2388+432678460+432940831+433041497+433049371+433070266+433168102+433334180
2374+433551724+433817697+434079193+434315882+434673257+435339116+436340065
2361+437537663+438781580+440030747+441158507+441631679+441274253+440747814
2347+440573449+440889858+441843305+443220311+444463868+445348609+445946070
2334+446431543+446960349+447535062+448085124+448654022+449345613+450129893
2320+450861164+451445141+451935452+452437342+453008350+453665768+454386591
2307+455132993+455864573+456545356+457197577+457876404+458580296+459267307
2293+459920711+460539427+461130455+461698478+462219101+462670607+463091027
2280+463544900+464028262+464469629+464821909+465104763+465366258+465634289
2266+465916834+466214201+466522221+466851445+467234295+467707725+468306267
2253+469026730+469789086+470503065+471199494+471848883+472512426+473197738
2239+473845172+474442067+475049924+475708835+476385604+477056918+477731217
2226+478377931+478965459+479531423+480110305+480708847+481319020+481893837
2212+482412247+482894734+483374546+483875406+484386663+484900596+485458017
2199+486105399+486832193+487606489+488403327+489204797+489992474+490727090
2185+491413380+492128800+492914212+493690258+494374438+495011785+495680268
2172+496360897+496998296+497607182+498217921+498851717+499527662+500193006
2158+500816457+501458848+502126611+502750834+503331620+503927022+504528704
2145+505088595+505615188+506137973+506656229+507192858+507806016+508512584
2131+509281888+510088504+510918897+511746511+512554260+513350171+514137076
2118+514933760+515759933+516570718+517315164+518028319+518764634+519511241
2104+520238138+520937861+521617049+522313580+523023957+523735259+524430607
2091+525125904+525818319+526441101+526969083+527479362+528015425+528530954
2077+528993267+529415591+529822425+530228126+530633210+531053373+531536272
2064+532143614+532869996+533632249+534402222+535224741+536098520+536975746
2050+537838203+538670448+539434040+540118889+540743369+541322818+541875349
2037+542440079+543041760+543657851+544303536+545049114+545917231+546844894
2023+547747390+548587819+549402979+550251899+551128663+551993126+552828306
2010+553614490+554323425+554975903+555628792+556302319+556964884+557568160
1996+558110862+558650734+559242482+559881476+560490259+561036409+561570877
1983+562130099+562682374+563185911+563681213+564244758+564849888+565412353
1969+565950989+566543715+567186054+567797514+568344642+568873654+569393042
1956+569853760+570226935+570499547+570644267+570614469+570428833+570205577
1942+570033940+569883970+569664625+569365817+569068141+568843083+568743652
1929+568864390+569387278+570475152+572129969+574175459+576423156+578705129
1915+580785924+582546656+584104769+585601844+587053167+588404235+589610274
1902+590702625+591723440+592697165+593653185+594572098+595445774+596339727
1888+597304908+598265971+599146337+599983884+600804499+601619659+602431936
1875+603155539+603765249+604438209+605396134+606583027+607684334+608539894
1861+609302919+610137790+611035242+611908197+612683728+613327869+613830891
1848+614316466+615019586+615986053+617002751+617860421+618590611+619304538
1834+620006371+620747935+621632161+622609025+623560979+624520705+625525874
1821+626445663+627235707+628018186+628818215+629591687+630413486+631341457
1807+632225272+632902452+633464814+634164125+635016134+635733355+636260875
1794+636925858+637893818+638896003+639625678+640125510+640647265+641299949
1780+641957264+642409593+642653024+643030677+643797459+644762434+645551037
1767+646015049+646344221+646795572+647423089+648107372+648703392+649180630
1753+649642223+650293877+651242846+652227172+652945577+653479427+654019401
1740+654452688+654717168+655198935+656203230+657381734+658215730+658704908
1726+658995996+659031044+658803104+658606712+658860694+659611264+660339242
1713+660634292+660516128+660183456+659739053+659215496+658796105+658643150
1699+658785091+659047565+659028316+658487828+657398358+655863919+654376828
1686+653375004+652754692+652046066+650855878+649369817+647944433+646703089
1672+645696066+644953010+644379274+643786754+643130159+642560335+642001112
1659+641065627+639923714+639471848+639979039+640357515+640082485+639881410
1645+640176615+640463688+640357104+640263334+640982871+642777107+644806539
1632+646304747+647566368+649149957+651216805+653569697+655785743+657752079
1618+660135902+663338847+666589861+669226945+671479429+673676072+675834220
1605+677923249+679962666+681897763+683663333+685306981+686915582+688473283
1591+689920437+691252977+692490667+693612869+694526070+695135111+695641736
1578+696551694+697809044+698654465+698934797+699208850+699685470+699846402
1564+699266130+698382162+698255454+699363812+700550294+700735620+700219474
1551+699589899+698935002+698019074+696890027+696247122+696603108+697211068
1537+696990694+695975900+694830796+693780183+692502196+690851754+689146553
1524+687653440+686275301+684878584+683319081+681488356+679302211+676569711
1510+673492598+670644043+668066453+665077604+661027436+655838083+649683086
1497+642534499+634318212+624695790+612848469+599175107+585480541+572775138
1483+560877279+549559485+539190351+529975637+520964880+510209859+497154544
1470+484256765+473677910+464993289+456353545+446669313+437567153+433934266
1456+440407113+454808504+471215654+486294020+499023714+508877267+515489277
1443+519269715+521363119+523172125+525547302+528095968+529911202+530813853
1429+531243383+531615117+532148195+532978742+534270419+536260224+539005591
1416+542106686+545216119+548383810+551697509+555080017+558425882+561585442
1402+564269874+566142749+566742063+565335515+561488172+555391537+546885449
1389+535443006+522469469+511920258+507577922+511483524+523177941+539588796
1375+557422565+574828811+591080844+606117472+619327492+629438321+636009981
1362+639550282+640883131+640894659+640287934+639337575+637956966+636082856
1348+634213995+633496414+634695042+637198161+639859537+642375368+645031031
1335+647987612+651363532+655347824+660024634+665265658+670876461+676766308
1321+682936076+689312734+695698450+701975472+708124859+714027624+719454850
1308+724276535+728460615+732018311+735091358+737867038+740465832+742976568
1294+745465792+747894081+750127574+751998493+753232015+753415231+752177232
1281+749500572+745913026+742590938+741174973+742997617+748279042+756001364
1267+764687581+773199124+780868232+787420284+792818277+797050015+800091102
1254+801853017+802140091+800887373+798202581+794058180+788449025+781977619
1240+775839554+771156054+768956682+770393389+776013815+785117364+796139181
1227+807518836+818141694+827351107+835064372+841601190+847203449+851945208
1213+855969592+859481741+862628435+865509361+868129667+870468561+872631546
1200+874748522+876690721+878375078+879859956+881281223+882681080+883927776
1186+884901603+885678112+886392451+887059030+887544349+887760606+887752166
1173+887482178+886799439+885627882+884022678+882057629+879751776+877168216
1159+874546778+872149419+869961525+867759838+865346937+862532915+859018862
1146+854585586+849330615+843505665+837363946+831237409+825511582+820359901
1132+815615878+811141276+807072529+803429607+799777626+795493703+790120670
1119+783204964+773831942+760581831+741998006+716845558+684049631+643094648
1105+595454677+545632474+499383508+460213600+428392839+403665520+387566828
1092+382444817+389211891+406250392+429736985+454673305+475464838+486096805
1078+480897622+456443352+415496757+370519089+339154620+330828377+337357810
1065+338786668+319397540+278798336+229263643+184980422+154466688+140687770
1051+144926751+168964216+214462881+280759423+363051185+452841087+540354858
1038+617591463+680281854+727792698+761521279+782534422+789883621+779519891
1024+744586455+682731450+608543702+553890087+545914349+584442485+646693568
1011+710536679+766961165+815447175+856727162+890682293+916957818+935618738
997+947551594+954254131+956815561+955431040+949949879+940282733+926107017
984+906165434+877607936+835684581+774349632+689823373+588430637+492426475
970+432701311+430416224+484839146+576349921+679196450+774037135+852131410
957+912148897+956111206+987308979+1009341084+1025277120+1037056816+1045702272
943+1052018407+1056838856+1060619603+1063380307+1065218443+1066411203
932+1067083238+1067145717+1066445067+1064942485+1062761076+1059819935
920+1055767142+1050370384+1043544330+1035279923+1025731148+1015326503
908+1005071726+996655496+991638655+989773037+988150026+982519924+969202444
895+945646142+910263619+863617495+810527603+759055472+716374650+689103167
881+687912156+722409630+787234906+861744826+926187406+972482536+1001664309
868+1017585111+1023119796+1019769918+1010144561+1000587654+999042870+1008332364
854+1023780920+1038781625+1050086192+1057461175+1061577270+1063467386
843+1064245027+1064428450+1063858214+1062409156+1060519246+1058708901
831+1056867677+1054477318+1051528251+1048547276+1045655644+1042370509
820+1038340670+1033686865+1028538788+1022631493+1015494898+1007073316+998195133
806+990528445+985969954+985460962+988134277+991845752+994660082+995751044
793+995215805+993616983+991555693+989172436+986216061+982758620+979134225
779+975382608+971176037+966169386+960708296+955694440+951790485+948966170
766+946409990+943082344+938184800+931334146+923390986+917095437+915300429
752+917902722+921924738+924822545+926018291+925772390+924534854+922820853
739+920882565+918801513+916580783+914154810+911610467+909137969+906694704
725+904178254+901483735+898809082+896263091+893924506+891615360+889196180
712+886772574+884431004+882196894+880062935+877916316+875694146+873524264
698+871523704+869651703+867855048+866109241+864375168+862718242+861253795
685+860005915+858922055+857869178+856729066+855551693+854302063+852719813
671+851084862+850473969+851095464+851413983+851004422+850469028+850169448
658+850191990+850468925+850844262+851373789+852201866+853114089+853801048
644+854429183+855354272+856569163+857846533+859142430+860594833+862258090
631+864046099+865920569+867918968+869918808+871791838+873470740+875251647
617+877788167+880908717+883782953+886268317+888780958+891520663+894364638
604+897168984+900147901+903470194+906723833+909658181+912709663+916121198
590+919513896+922706394+925974340+929386903+932707653+935898915+939236237
577+942846015+946508906+949946688+953162551+956406926+959670652+962684565
563+965555713+968772400+972443319+976198848+979772189+983062060+986116013
550+989127661+992289074+995617646+998954350+1002066768+1004863600+1007746379
536+1010820919+1013555581+1016017786+1018703865+1021415573+1023759408
525+1025885029+1028019091+1030008946+1031714817+1033360163+1035245647
513+1037197213+1038799638+1039926832+1040770349+1041479129+1041834549
501+1041661316+1041195967+1040434692+1038763715+1035943620+1032716538
490+1029481118+1025773246+1021723542+1018468153+1017156611+1017746815
478+1018713128+1018549880+1016785546+1013412096+1008853399+1004119617
467+1000853627+1001106425+1005533782+1012745414+1021061698+1028798173
455+1034067194+1036731864+1037767861+1037384547+1035581716+1032850657
444+1029992992+1027209953+1023679122+1019645886+1017042049+1016740977
432+1017970689+1020701955+1025426782+1031349927+1037421499+1043342689
420+1049073560+1054806696+1060202425+1064524381+1067434540+1068973765
409+1069694280+1069986294+1070352213+1071524799+1072844268+1073741823
##END=
