##TITLE=31
##JCAMP-DX=4.24
##DATA TYPE=INFRARED SPECTRUM
##DATE=16/11/2015
##SAMPLING PROCEDURE=Instrument type and / or accessory
##ORIGIN=Default
##XUNITS=1/CM
##YUNITS=TRANSMITTANCE
##RESOLUTION=4
##FIRSTX=3996.3359
##LASTX=399.24785
##DELTAX=-1.9287336
##MAXY=1.188404
##MINY=0.039986674
##XFACTOR=1
##YFACTOR=1.1067874e-009
##NPOINTS=1866
##FIRSTY=0.17965379
##XYDATA=(X++(Y..Y))
3996+162320051+162466479+162640588+162783826+162904216+163031970+163155955
3983+163293188+163475833+163676048+163846064+164004461+164194565+164406049
3969+164620669+164842910+165075316+165321683+165558828+165734028+165831759
3956+165915488+166066494+166274666+166430115+166491117+166591178+166778764
3942+166938238+167059436+167192455+167324356+167457671+167586489+167695058
3929+167825761+168005444+168171475+168313353+168505072+168719343+168854098
3915+168940251+169081428+169238708+169341300+169452588+169596513+169711423
3902+169821392+169932977+170021378+170193562+170428512+170463356+170378792
3888+170557694+170833910+170921086+171003213+171055989+171044855+171183340
3875+171392239+171578061+171683547+171602053+171588401+171725068+171765526
3861+171711187+171744550+172052984+172491959+172486910+172132647+172100819
3848+172382043+172648996+172799491+172935162+173114010+173169910+173123071
3834+173232596+173436002+173545271+173588865+173645170+173835569+174054310
3821+174031759+174098631+174393562+174440266+174318759+174406217+174593830
3807+174568855+174533608+174820595+175022694+174956616+174993721+175097888
3794+175147999+175211492+175288651+175386934+175497967+175598889+175720437
3780+175802335+175794432+175812661+175932648+176119547+176259042+176291233
3767+176304090+176351886+176505221+176710659+176707993+176568930+176650074
3753+176930773+176984478+176805509+176981826+177340034+177176198+176825543
3740+176858676+177050301+177113364+177108261+177105178+177150160+177279220
3726+177378378+177380128+177342404+177243111+177072933+176937868+176928578
3713+176900601+176676193+176405497+176234202+176093899+175806536+175292946
3699+174718596+174141149+173470791+172750470+172038941+171256810+170492046
3686+170049880+169903438+169760928+169595059+169537677+169413908+169262148
3672+169417893+169510198+169206813+168899914+168706351+168450882+168210479
3659+168051920+167755509+167320963+167059732+166845152+166353063+165765950
3645+165367526+165046706+164609104+164081001+163547458+162984808+162454106
3632+162101405+161655186+160803826+159952856+159360828+158813270+158092397
3618+157181542+156332834+155609538+154848733+154015696+153037618+151933616
3605+150916494+149984259+148996864+148003384+147040156+145966649+144801833
3591+143746434+142670490+141310387+139942313+138894871+137949132+136849453
3578+135655555+134469696+133271787+132086480+130961785+129745053+128356475
3564+127028186+125836255+124647016+123414977+122154045+120847473+119482038
3551+118125005+116781973+115353960+113920818+112639887+111436431+110137936
3537+108724679+107355562+106144560+104980942+103687638+102246936+100796729
3524+99467867+98268585+97087431+95795668+94411041+93085553+91901565+90759805
3508+89533818+88223415+86852225+85507268+84327878+83253744+82155485+81060807
3493+80009151+78929578+77766163+76575349+75449853+74357631+73211543+72109702
3478+71124064+70119921+69015347+67802500+66543278+65445234+64574689+63739599
3462+62819084+61899403+61050870+60204909+59307301+58413457+57557034+56698168
3447+55855159+55056710+54223814+53317207+52390418+51524746+50805138+50160142
3431+49464439+48811695+48316722+47871806+47328459+46672136+46010112+45437327
3416+44875037+44265460+43700080+43205147+42751581+42294393+41688770+40958857
3400+40447926+40264635+40044733+39568818+39047517+38762149+38664213+38505412
3385+38213238+37891045+37613045+37379690+37185012+37012859+36782880+36455294
3369+36174211+36128594+36281441+36398529+36380868+36376472+36479064+36593712
3354+36591302+36493062+36525327+36758410+36963798+37052808+37138577+37254144
3339+37432689+37742442+38107103+38417071+38681032+38919204+39163700+39536580
3323+40059637+40549131+40918106+41274945+41678743+42092842+42447825+42672931
3308+42861449+43296614+44073404+44913122+45561379+46077096+46603039+47164888
3292+47789521+48527017+49315389+50065787+50794273+51540370+52293922+53024603
3277+53719292+54388341+55065912+55864183+56880133+58002809+59056444+60024889
3261+60968810+61925657+62928151+64008161+65160866+66308059+67375521+68443609
3246+69683416+71082449+72459119+73755688+75010298+76208692+77445470+78897273
3231+80527062+82171210+83781228+85376565+86963668+88553929+90177168+91836678
3215+93504474+95189087+96911599+98661684+100429574+102204351+103970976
3202+105748971+107568493+109435690+111337892+113233981+115099488+116987843
3188+118951296+120940276+122898856+124841697+126765636+128666955+130586370
3175+132533654+134476697+136405496+138331292+140264547+142209327+144128041
3161+145997184+147859944+149713738+151496768+153241454+155077921+157026255
3148+158958514+160802143+162560683+164219095+165836565+167535261+169300519
3134+171017619+172657088+174280859+175931113+177567634+179097242+180491555
3121+181859023+183294306+184799733+186376006+187949962+189392502+190736691
3107+192112479+193494285+194765207+195943082+197141422+198379008+199578614
3094+200700253+201763729+202808882+203845298+204840542+205798142+206722124
3080+207592185+208472869+209429958+210379184+211189494+211845500+212449443
3067+213113392+213819765+214462724+215031891+215557396+216006886+216367316
3053+216665517+216923329+217135903+217247569+217238696+217189716+217151615
3040+217087583+216916153+216570425+216100511+215583784+214987906+214238989
3026+213315330+212229921+210968465+209526544+207910892+206069780+203968246
3013+201636985+199076387+196233354+193019578+189320742+185063644+180211650
2999+174700501+168468344+161404241+153281185+143912721+133337233+121711637
2986+109179043+96042958+83002079+71124657+61497405+54778087+51046895+49880588
2970+50457664+51948669+54077851+57222697+62004923+68695651+76754103+84937825
2955+91878152+96640405+98903601+98713915+96270961+92037068+86946219+82294461
2939+79236942+78283791+79161587+81160005+83682979+86553141+89873487+93705820
2924+97979114+102522270+107072184+111339050+115023070+117839540+119656982
2910+120522843+120571297+120022447+119152265+118198057+117347262+116616211
2897+115739930+114416717+112506060+109936442+106629149+102516582+97700980
2883+92756648+88851612+87354518+89035233+93553952+99902736+107234775+115062450
2868+123085675+131102841+138915955+146340946+153277981+159762335+165996296
2855+172231765+178585510+184984075+191240870+197171661+202656207+207637153
2841+212148171+216292594+220164530+223854251+227431028+230926325+234378942
2828+237814568+241210262+244508831+247646269+250598612+253379646+256002727
2814+258507869+260980590+263496825+266101058+268807774+271548741+274218917
2801+276793637+279277587+281632127+283828390+285854906+287676105+289288190
2787+290749269+292077491+293272478+294385689+295428997+296345615+297121190
2774+297818030+298475988+299053785+299523740+299952416+300405864+300856297
2760+301273529+301680474+302099053+302538607+302957158+303294633+303585443
2747+303898979+304236427+304577886+304951093+305448971+306193283+307227302
2733+308442862+309643316+310706388+311638893+312506261+313427726+314541502
2720+315910976+317521068+319260786+320944146+322462795+323817216+325021278
2706+326123691+327235421+328410537+329596235+330739846+331839539+332893915
2693+333884958+334796217+335622145+336372247+337040653+337619042+338135230
2679+338630711+339210178+340008425+341018425+342129804+343275381+344435256
2666+345569012+346625622+347613704+348561207+349470796+350365092+351244739
2652+352086580+352926322+353792640+354643933+355455132+356243658+357002188
2639+357708668+358370989+359006301+359637063+360280346+360914366+361522590
2625+362124783+362732119+363320902+363858658+364331736+364764532+365190326
2612+365603277+365999964+366395600+366777073+367134689+367484846+367833980
2598+368172801+368490645+368804559+369136082+369456674+369757178+370076099
2585+370407758+370717659+371031788+371407741+371839271+372286176+372745926
2571+373225089+373701749+374147362+374550349+374916851+375275705+375629955
2558+375953643+376248169+376502197+376707111+376912482+377164033+377466368
2544+377846279+378325900+378874104+379490891+380186089+380904148+381610198
2530+382338596+383120257+383930028+384721840+385483116+386227079+386946484
2517+387637589+388343450+389079577+389806199+390524904+391292643+392107854
2503+392925003+393747296+394579821+395432999+396308553+397143502+397922819
2490+398681484+399428408+400194639+400978965+401732244+402480973+403276958
2476+404103667+404951352+405835953+406725052+407562073+408353427+409151701
2463+409995132+410890908+411811160+412714826+413569943+414372875+415135498
2449+415860962+416566957+417262398+417919871+418524783+419118629+419752783
2436+420399324+420978037+421458277+421889673+422334020+422784749+423195195
2422+423562855+423914170+424244778+424556591+424904405+425343152+425883197
2409+426519748+427237538+427991706+428745712+429472657+430120975+430728283
2395+431371270+432059656+432721868+433279147+433669775+433868361+433927142
2382+433942302+433980134+434066165+434172526+434216929+434190460+434248137
2368+434517110+434899498+435422633+436201385+437374104+439151790+441334132
2355+442980333+442915574+441257067+439937596+440388648+442051329+443641145
2341+444712135+445519079+446279117+447011474+447705918+448495548+449377376
2328+450126859+450730398+451482815+452490123+453425508+453981548+454332028
2314+454807288+455473351+456231450+457011683+457791647+458536552+459236327
2301+459907829+460575023+461266721+461986691+462695891+463370248+463983911
2287+464507693+464960334+465402150+465849997+466284274+466702556+467091918
2274+467429043+467722277+467986645+468217731+468438100+468681089+468942495
2260+469213056+469556643+470056836+470695542+471407650+472177220+472983518
2247+473779961+474463203+475105571+475788544+476482180+477133864+477766699
2233+478425815+479102057+479785353+480478343+481137190+481734912+482333335
2220+482969240+483606438+484219616+484796390+485328411+485800978+486223245
2206+486654398+487117486+487590968+488118789+488769127+489527603+490347041
2193+491193460+492033525+492844778+493616663+494352036+495079816+495835814
2179+496598060+497314261+497991149+498670783+499367112+500061771+500729450
2166+501362501+501992105+502645189+503295419+503940210+504620760+505312942
2152+505962849+506584590+507184036+507737761+508253356+508742510+509228432
2139+509746344+510316116+510971301+511734139+512553201+513366284+514181630
2125+515030257+515925953+516852668+517757949+518617778+519449118+520284821
2112+521118477+521900002+522640383+523376349+524094057+524796149+525524574
2098+526296622+527068723+527826714+528557779+529269402+529976286+530659313
2085+531290102+531870430+532422969+532956068+533459654+533932490+534392185
2071+534831416+535218733+535585907+536032947+536639664+537397170+538223717
2058+539066152+539944398+540872083+541809838+542733861+543629879+544444794
2044+545161803+545826196+546454131+547031605+547588183+548170665+548791437
2031+549472472+550253405+551131921+552060144+553000753+553936893+554867647
2017+555801309+556720593+557605518+558455114+559283385+560070780+560776426
2004+561438611+562138710+562861697+563510688+564064574+564613182+565229969
1990+565883322+566468066+566975961+567502758+568077970+568638749+569162800
1977+569704838+570298306+570898237+571447868+571984413+572594360+573266940
1963+573901821+574458561+574986436+575502624+575957957+576309245+576537100
1950+576600217+576449480+576136644+575784656+575468480+575177940+574819435
1936+574350154+573856692+573440241+573162302+573124658+573554465+574666006
1923+576431008+578621402+581081171+583639116+585962582+587889200+589591193
1909+591265991+592895067+594375237+595685337+596877335+597975305+598992064
1896+599980711+600957456+601916915+602913855+603957379+604918022+605764334
1882+606625778+607525028+608383456+609167082+609850594+610443524+611130536
1869+612156073+613413934+614524399+615354500+616113299+616985730+617933233
1855+618818373+619573241+620210007+620698245+621128698+621821204+622868497
1842+623944495+624798077+625529249+626254067+626919376+627588616+628467779
1828+629525681+630553749+631554675+632584897+633521521+634313171+635059153
1815+635802281+636556234+637410462+638374336+639251452+639889672+640428048
1801+641134340+641990668+642664271+643105172+643747539+644813143+645885102
1788+646560859+646985818+647487358+648146043+648796812+649183697+649275303
1774+649509512+650293246+651412165+652312384+652752692+652975755+653359893
1761+653997091+654700959+655301052+655777926+656247531+656941867+657954856
1747+658988417+659716897+660202496+660675655+661064748+661255606+661676096
1734+662783221+664143190+665029838+665458513+665670105+665609573+665201146
1720+664766493+664934355+665850784+666747934+666999161+666682232+666137986
1707+665548880+664901504+664296188+663980013+664100968+664425706+664465181
1693+663876667+662555527+660659607+658803322+657607446+657056684+656421586
1680+655051763+653235491+651556493+650168144+649010234+648155468+647581064
1666+646986572+646290136+645745297+645233902+644198887+642786034+642175279
1653+642951204+643732298+643628845+643616244+644276114+644843786+644783577
1639+644618354+645401980+647573309+650081547+651855920+653241900+654965327
1626+657220076+659758256+662072406+664010656+666392337+669752057+673165630
1612+675831283+678061851+680283856+682521910+684698517+686778025+688703727
1599+690455105+692088596+693679220+695234570+696706285+698048051+699252382
1585+700325364+701183685+701687595+702020519+702794505+704057644+704925443
1572+705132996+705371622+705905204+706041347+705225301+703946382+703534617
1558+704763828+706282773+706643432+706119542+705383739+704547390+703372409
1545+701918143+700964178+701217506+701974743+701838816+700708480+699426492
1531+698277845+696849482+694989159+693030552+691256879+689679772+688202079
1518+686570580+684616659+682223883+679153735+675634070+672382597+669587964
1504+666465148+662140800+656517392+649892574+642317615+633625028+623357058
1491+610740419+596319357+581978698+568729277+556410988+544801898+534199604
1477+524742187+515485483+504516553+491258085+478088583+467155520+458103944
1464+449123995+439083638+429597705+425625722+431830212+445976405+462145937
1450+477079849+489824660+499822553+506586960+510445742+512530313+514289553
1437+516640861+519148884+520825997+521562878+521897794+522209230+522634298
1423+523296537+524443730+526388604+529082745+532017235+534946987+538025805
1410+541318315+544751868+548298083+551778920+554767156+556861205+557493071
1396+555776267+551519291+545342320+536960793+525423114+512010516+500841304
1383+495924835+499489952+511150957+527807596+546153412+564332281+581546144
1369+597636781+611827349+622684695+629786226+633682759+635174347+635213660
1356+634608721+633647593+632226177+630277911+628300778+627470730+628587926
1342+631056205+633719003+636205053+638751312+641589297+644927259+648932739
1329+653623077+658907152+664676988+670811629+677217424+683804060+690408144
1315+696909314+703292706+709514159+715365691+720611638+725138099+728985841
1302+732343029+735382211+738204740+740903028+743541592+746087797+748407708
1288+750331741+751561706+751602743+750037322+746908797+742854257+739130917
1275+737455796+739270236+744804570+752896418+761932752+770750064+778706900
1261+785517514+791120080+795524131+798729291+800624027+801005150+799896463
1248+797487585+793577426+787875069+781157838+775027397+770485319+768257120
1234+769572929+775180396+784483522+795920387+807823895+818978944+828694697
1221+836884074+843873913+849923357+855092240+859449815+863187426+866554739
1207+869692150+872527442+874993082+877226504+879408550+881421388+883166841
1194+884702158+886154431+887572454+888820999+889744322+890454114+891153028
1180+891831531+892313091+892519674+892512296+892250406+891547991+890281674
1167+888536113+886445942+883982833+881166390+878299002+875657422+873228618
1153+870849144+868289637+865283306+861537671+856821699+851203245+844967736
1140+838405927+831861513+825730480+820189468+815072716+810259646+805892915
1126+801980979+798093116+793576672+787901350+780574171+770666644+756702800
1113+737125242+710654404+676315697+633783897+584679517+533519378+485967493
1099+445455478+412319459+386422703+369293389+363241629+369247102+385810466
1086+409198581+434388022+455712784+467208781+463289844+440504003+401472238
1072+358375378+328380594+320508577+326805641+327966674+308510798+267922068
1059+218524751+174563174+144277916+130178441+133295200+155429074+198434181
1045+262091620+342254018+430912975+518417604+596790415+661650408+711823892
1032+747963253+770661905+779289705+770430280+736916558+675762296+601816800
1018+547560287+540339308+579814639+642969676+707579194+764681878+813809577
1005+855737246+890434404+917536030+937015574+949717626+957106897+960278775
991+959479370+954571894+945435391+931690624+911953874+883167595+840446391
978+777734086+691351823+588037459+490706676+430615271+428845826+484447687
964+577474586+681748085+777645874+856407348+916830761+961074410+992510563
951+1014751619+1030850980+1042730254+1051420201+1057822549+1062809729
939+1066754515+1069674142+1071687410+1073019967+1073741823+1073729114
928+1072905151+1071280061+1068928483+1065837817+1061663506+1056002293
916+1048728591+1039921889+1029774874+1018742612+1007838199+998760182+993132358
903+990712171+988499320+982141563+967843826+942822408+905376717+856336692
889+800696460+746438815+700958146+671368638+668916085+703966901+771412734
876+849696364+917854305+967222138+998713329+1016229258+1022790367+1020058582
862+1010707742+1001182631+999804406+1009639930+1025756201+1041266294+1052913135
849+1060507697+1064734462+1066622789+1067312009+1067391713+1066773041
837+1065333961+1063342450+1061176345+1058968126+1056497209+1053571012
825+1050432954+1047237381+1043560032+1039082093+1034033197+1028520621
814+1022140783+1014394892+1005306104+995769252+987504965+982521663+981975263
800+985068729+989310896+992477712+993807468+993369745+991694355+989545052
787+987110002+984060049+980414366+976542067+972606543+968287365+963094787
773+957313696+952006517+947987951+945127025+942433153+938817951+933636037
760+926636558+918596625+912241884+910463203+913049798+916946439+919646558
746+920669564+920384677+919235331+917541415+915380480+912932612+910450385
733+907935416+905331587+902765780+900212035+897527157+894753689+892328817
719+889899582+887323488+884818643+882403411+879983708+877557220+875210489
706+872993708+870800784+868559714+866341963+864221041+862208419+860304258
692+858474039+856676724+854952920+853396547+852054188+850903226+849833960
679+848721342+847347264+845139960+842456375+842223511+845409121+846691864
665+843881506+841898181+842187321+842741746+842886020+842993835+843238762
652+843789201+844718878+845671120+846394268+847174555+848283726+849600020
638+850914482+852227651+853702382+855416978+857309667+859337422+861459960
625+863675233+865815273+867638384+869467742+872051752+875213074+878211758
611+880956253+883702363+886536039+889455720+892481815+895681535+898959505
598+902074405+905141591+908593831+912385350+915890690+918954107+922133847
584+925668914+929295964+932930122+936641399+940323594+943880419+947292699
571+950606859+954016770+957488505+960693126+963676192+966925512+970629033
557+974551740+978429532+981969662+985079285+988065798+991322980+994813025
544+998165529+1001238531+1004148356+1007133146+1010197962+1013057919+1015753837
530+1018572111+1021456518+1024064331+1026198340+1028122103+1030194287
519+1032376872+1034536299+1036733640+1038743246+1040167785+1040998640
507+1041549887+1042051804+1042424795+1042523348+1042331521+1041692277
496+1040221639+1037720994+1034578413+1031080074+1026816365+1022081221
484+1018574804+1017680724+1018893618+1020252779+1020130316+1018160453
473+1014653605+1010164034+1005450216+1002065401+1002282324+1006850306
461+1014068000+1021945294+1029216411+1034535007+1037471543+1038786329
449+1038789345+1036913942+1033161198+1028901367+1025150131+1021452533
438+1017890108+1015709893+1015288649+1016218380+1018991309+1024034820
426+1030208182+1036488282+1042985736+1049238694+1054540271+1059153383
415+1063409013+1067027662+1069580868+1071126039+1071459178+1070245854
403+1068792449+1069141206+1072080650
##END=
