##TITLE=31
##JCAMP-DX=4.24
##DATA TYPE=INFRARED SPECTRUM
##DATE=16/11/2015
##SAMPLING PROCEDURE=Instrument type and / or accessory
##ORIGIN=Default
##XUNITS=1/CM
##YUNITS=TRANSMITTANCE
##RESOLUTION=4
##FIRSTX=3996.3359
##LASTX=399.24785
##DELTAX=-1.9287336
##MAXY=1.2150081
##MINY=0.04098573
##XFACTOR=1
##YFACTOR=1.1315645e-009
##NPOINTS=1866
##FIRSTY=0.18264361
##XYDATA=(X++(Y..Y))
3996+161408038+161482586+161595928+161744931+161884163+162019998+162173847
3983+162343288+162526674+162727430+162928765+163085353+163189399+163303466
3969+163479372+163706979+163948689+164162021+164318543+164460488+164649195
3956+164840048+164954641+165031770+165136039+165268186+165471076+165705688
3942+165817042+165855666+165981084+166184750+166371086+166466282+166511753
3929+166628467+166813381+166959737+167072593+167220885+167357957+167456379
3915+167618986+167848041+167965887+167959105+168050601+168243758+168341838
3902+168376037+168453074+168564283+168758231+169003220+169072645+169010937
3888+169119578+169260324+169284383+169436876+169617142+169712456+169919796
3875+170134643+170232473+170229549+170154093+170261536+170494305+170512122
3861+170354967+170323257+170704436+171313604+171409670+171005827+170851728
3848+171020536+171223887+171339784+171434440+171603960+171727284+171764051
3834+171880145+172012385+172064085+172125306+172229391+172442315+172671120
3821+172674109+172733947+172911460+172807652+172670066+172871586+173192742
3807+173265578+173270477+173522893+173659623+173569471+173586722+173607515
3794+173581336+173658346+173784712+173888468+173951493+173990117+174113507
3780+174273861+174306756+174280735+174355401+174517573+174606672+174594504
3767+174622580+174693361+174801239+174930410+174930792+174895250+175102616
3753+175479647+175572420+175360563+175483993+175805018+175599969+175219580
3740+175258980+175456391+175503087+175520220+175590659+175662849+175716828
3726+175693611+175619340+175583640+175526699+175403756+175320504+175392537
3713+175459749+175269621+174960368+174749065+174613072+174364922+173884056
3699+173300462+172702711+172097718+171549323+170994146+170272308+169534811
3686+169123621+168967243+168782435+168642281+168714313+168690241+168504840
3672+168553432+168521906+168138528+167877025+167833647+167717421+167522696
3659+167344393+167040961+166663680+166518562+166417966+165959922+165319320
3645+164867346+164553222+164156740+163668737+163180444+162668224+162170594
3632+161828025+161384084+160562388+159801359+159311696+158791917+158031152
3618+157087988+156224836+155485615+154732883+153946333+153028374+152000891
3605+151097088+150269624+149309498+148267135+147243208+146152792+145017392
3591+144005540+142951786+141576349+140185438+139142837+138223258+137164684
3578+136023714+134868785+133679973+132511125+131372249+130085041+128651648
3564+127352154+126179250+124946481+123698108+122510218+121277238+119917577
3551+118560154+117253851+115826161+114324067+113004398+111850115+110648556
3537+109338836+108037176+106802142+105526358+104134097+102687213+101273975
3524+99936331+98657301+97376934+96050306+94725278+93491265+92340359+91165631
3508+89921103+88644483+87301861+85935628+84708246+83593685+82462993+81321858
3493+80226741+79141389+77995757+76844417+75769106+74657633+73407949+72206048
3478+71205989+70263095+69198529+67976690+66694783+65566079+64686579+63879901
3462+62993705+62093872+61235751+60348547+59418907+58523005+57672042+56806197
3447+55920863+55086130+54266175+53350875+52378270+51486493+50768769+50171038
3431+49556155+48916308+48329467+47789533+47234702+46646858+46057025+45475185
3416+44854985+44236783+43740922+43325458+42876045+42357731+41699391+40965566
3400+40477056+40297643+40070731+39593440+39054928+38750763+38672228+38559429
3385+38307302+37995285+37710960+37490593+37301976+37091149+36812748+36484286
3369+36243602+36220409+36373765+36513632+36514228+36471614+36512987+36596821
3354+36604970+36553490+36628772+36869965+37086603+37210078+37322054+37443980
3339+37618955+37929846+38338772+38740863+39057296+39262693+39446501+39748758
3323+40214957+40746262+41201080+41535471+41853066+42260010+42676629+42979090
3308+43251858+43721337+44455241+45266620+45956861+46492653+46966082+47491863
3292+48146377+48932597+49747018+50509920+51258063+52018410+52764562+53472399
3277+54148928+54825990+55536721+56384030+57434848+58534818+59551035+60546946
3261+61563044+62546919+63504279+64557618+65768475+67014939+68187434+69347855
3246+70595912+71904038+73193781+74472067+75772819+77071813+78397499+79870951
3231+81476629+83076461+84659561+86284834+87933877+89570080+91211221+92884349
3215+94570810+96253136+97986873+99808279+101644560+103449657+105265849
3202+107121422+108994621+110864298+112748637+114655363+116552450+118436619
3188+120359108+122329202+124295463+126246173+128211118+130200161+132187401
3175+134166028+136153570+138119160+140036922+141940172+143858605+145788916
3161+147718740+149632973+151498771+153295302+155083116+156961424+158916295
3148+160835755+162654081+164370625+166012807+167658241+169409551+171256202
3134+173055894+174719712+176307981+177905192+179502231+181022853+182436783
3121+183838360+185307005+186811746+188343614+189864697+191266182+192584586
3107+193941970+195303185+196591210+197844864+199104444+200344653+201541998
3094+202666086+203696821+204712531+205746691+206711069+207621378+208538362
3080+209428352+210323964+211273277+212189090+212982869+213669232+214300220
3067+214918830+215540034+216146437+216709343+217176724+217528524+217834379
3053+218149597+218443613+218662462+218762333+218739315+218676316+218635309
3040+218543774+218305000+217924650+217476205+216997446+216433421+215683546
3026+214732704+213658447+212460588+211059169+209436174+207606629+205563172
3013+203323569+200876073+198094607+194846326+191098835+186831920+181972075
2999+176460395+170256584+163199578+155066260+145735860+135185307+123460954
2986+110734297+97391459+84171380+72144017+62390443+55579084+51763021+50489505
2970+50939830+52257062+54173306+57144124+61814552+68425332+76457753+84687163
2955+91690842+96518148+98868980+98733172+96290805+92064772+86958133+82224351
2939+79087661+78133106+79092441+81181329+83752097+86683548+90112950+94063758
2924+98441875+103067221+107675288+112009982+115794227+118731254+120666964
2910+121623139+121741933+121256445+120424938+119499512+118694487+117996470
2897+117092733+115695462+113730030+111120427+107684882+103334695+98289534
2883+93187550+89174830+87624104+89311876+93890261+100342149+107797230+115766665
2868+123954817+132124178+140038278+147500352+154455090+161005657+167332620
2855+173651406+180101391+186603089+192966147+199014752+204594672+209632163
2841+214167533+218307963+222175776+225860018+229426980+232963180+236509941
2828+240033210+243475676+246770205+249885483+252830385+255596036+258179722
2814+260643943+263088173+265581180+268149249+270794354+273490474+276168026
2801+278750606+281212746+283552550+285727060+287669829+289373060+290907970
2787+292342456+293661558+294830485+295887532+296875469+297789030+298621288
2774+299345510+299939627+300450780+300930777+301389651+301811258+302175108
2760+302530714+302940285+303373269+303770567+304115217+304446935+304800012
2747+305138235+305436294+305739120+306126568+306674936+307413038+308332156
2733+309388202+310477432+311522706+312507588+313436162+314386068+315478038
2720+316776702+318291938+319960036+321634322+323172656+324507271+325649993
2706+326689656+327745360+328858004+329980341+331072600+332126486+333136652
2693+334094960+334984923+335791502+336518700+337167387+337717178+338150636
2679+338530288+339040388+339817865+340817074+341921581+343057007+344199834
2666+345308501+346312030+347228330+348139099+349056532+349933194+350743566
2652+351528153+352333231+353148580+353960190+354777356+355587280+356334521
2639+356993796+357610483+358215081+358830083+359476505+360101304+360674772
2625+361239443+361800164+362343238+362868561+363358461+363809408+364240681
2612+364671269+365084237+365450825+365806300+366180947+366538133+366847623
2598+367135989+367445979+367770086+368080260+368369838+368645616+368935273
2585+369245789+369547509+369863267+370246184+370666922+371096984+371569711
2571+372062587+372530627+372999114+373462624+373869982+374239020+374588226
2558+374882940+375132301+375376053+375626757+375881834+376140729+376414005
2544+376749831+377199962+377750279+378374235+379060637+379775220+380502208
2530+381254558+382010965+382749831+383487353+384216685+384928265+385632972
2517+386332174+387031771+387732184+388438866+389179759+389969456+390773059
2503+391542424+392292614+393089475+393956840+394815198+395594834+396336281
2490+397072039+397785674+398498466+399239728+399983493+400726336+401504181
2476+402310654+403124081+403933899+404734315+405529438+406301225+407043673
2463+407817146+408672080+409581058+410488930+411335674+412096742+412816223
2449+413533071+414245205+414929842+415561568+416146045+416729652+417328588
2436+417908719+418455244+418959313+419417213+419859442+420291821+420683957
2422+421016544+421320291+421658488+422042776+422454848+422922546+423458931
2409+424033057+424658488+425353634+426064372+426730178+427338543+427931605
2395+428547897+429193635+429843876+430421057+430814430+430989468+431029685
2382+431044881+431088338+431178912+431324741+431505836+431719721+432043775
2368+432543051+433039930+433393797+433872925+435028973+436934923+439018017
2355+440430985+440215362+438526932+437277834+437862442+439657591+441338040
2341+442423663+443121443+443702864+444271275+444832891+445524929+446349549
2328+447038848+447522506+448131476+449052965+449967342+450513419+450829730
2314+451266244+451932998+452727383+453503068+454186889+454808502+455446022
2301+456123732+456825094+457548579+458293818+459028944+459717084+460317469
2287+460814927+461234111+461627485+462047354+462515999+463000236+463437856
2274+463805050+464125154+464419446+464683240+464919170+465141088+465378544
2260+465671257+466049987+466550184+467188494+467928519+468697883+469423159
2247+470132211+470832993+471537516+472202953+472838840+473473990+474102186
2233+474737125+475389184+476043085+476685504+477310435+477925515+478545390
2220+479163789+479773022+480367033+480924857+481443016+481926885+482382203
2206+482835046+483316808+483834757+484407750+485073925+485813739+486586633
2193+487391763+488216330+489009504+489731830+490403957+491093467+491853402
2179+492652265+493408776+494093756+494746815+495399295+496041292+496693666
2166+497381385+498079692+498756981+499376381+499950165+500549864+501186331
2152+501819215+502451415+503077716+503645916+504151434+504659480+505209665
2139+505779972+506362448+506994806+507697168+508461423+509280775+510143426
2125+511005129+511820162+512615179+513443750+514291863+515119854+515938311
2112+516742125+517499426+518227547+518962515+519707280+520424128+521095939
2098+521780076+522509724+523286937+524045081+524728323+525367318+526006839
2085+526629769+527208188+527743203+528232023+528684497+529132968+529573222
2071+529977868+530364921+530772885+531245323+531848394+532574354+533344930
2058+534143634+534999701+535904281+536805279+537669405+538506561+539319540
2044+540084480+540767564+541357466+541885159+542417857+543011236+543659765
2031+544360758+545147715+546023798+546938861+547845916+548740225+549647175
2017+550579462+551491416+552330258+553111422+553893059+554661686+555363469
2004+556030118+556722367+557420884+558045235+558573666+559089403+559668665
1990+560304921+560916736+561469818+562017159+562577617+563116161+563642116
1977+564204312+564799113+565370000+565907385+566479905+567130014+567793555
1963+568376663+568893874+569426097+569961324+570421278+570779412+571040941
1950+571163515+571076654+570802694+570475743+570217006+570017317+569749625
1936+569368155+568974519+568658735+568469949+568529682+569035937+570135834
1923+571830480+573973649+576382298+578815756+580991162+582825501+584465839
1909+586054872+587569739+588942490+590183924+591334652+592407738+593429361
1896+594424488+595371840+596291010+597253111+598262829+599218398+600070778
1882+600901508+601747883+602576717+603372576+604080943+604691020+605416085
1869+606478478+607714328+608777617+609591649+610338943+611160034+612043754
1855+612902402+613657123+614294116+614804849+615315002+616113548+617185791
1842+618168329+618912936+619600550+620348054+621088342+621859708+622787360
1828+623798974+624749908+625684038+626656042+627556302+628344682+629118735
1815+629912066+630711929+631558514+632454824+633282341+633943301+634552219
1801+635334173+636224109+636888335+637364408+638079043+639120103+640088050
1788+640725676+641184945+641714956+642373599+643013858+643417187+643602496
1774+643983754+644838346+645875139+646649350+647048728+647313418+647730021
1761+648339781+649002901+649582795+650056392+650566597+651342230+652397091
1747+653379049+654023997+654488375+654999055+655425719+655674764+656188762
1734+657308465+658549003+659309676+659668127+659855069+659824149+659550241
1720+659359559+659720169+660597042+661302512+661423032+661136640+660759596
1707+660345679+659786276+659273647+659112726+659305146+659541708+659413445
1693+658710187+657421715+655685141+654078567+653145754+652670155+651885726
1680+650410839+648680849+647175147+645920018+644856782+644031899+643368884
1666+642688856+642017572+641496357+640913724+639846696+638602418+638263299
1653+639075435+639632416+639368990+639213232+639581901+639866923+639728757
1639+639692307+640644557+642765603+644973825+646474892+647743453+649426826
1626+651666653+654210570+656526827+658484372+660898288+664212201+667517845
1612+670142249+672404041+674632649+676818906+678940478+680995470+682900550
1599+684624694+686264873+687908583+689501777+690952065+692265768+693502672
1585+694651398+695580314+696167056+696640073+697549921+698820957+699636939
1572+699903156+700242327+700750110+700787930+700005186+699040610+699097183
1558+700481628+701706732+701743130+701084962+700353892+699591586+698595352
1545+697477493+696932786+697412967+698017196+697599382+696383601+695130579
1531+693950511+692497168+690743843+689029760+687557718+686206721+684801627
1518+683133319+681072217+678598673+675631042+672437542+669601176+667036400
1504+663861231+659500516+654059183+647725754+640357165+631813459+621801766
1491+609549825+595428254+581229778+568042495+555770538+544196360+533644438
1477+524291440+515166313+504253254+490925593+477688585+466829833+457968184
1464+449175907+439295638+429998107+426221763+432556957+446791173+463065500
1450+478098025+490868599+500812605+507510279+511334609+513427157+515246589
1437+517668880+520204422+521910077+522702513+523067442+523393813+523886900
1423+524672593+525942682+527964963+530701300+533690528+536673066+539758899
1410+543035203+546467529+549990033+553370844+556228174+558242712+558900565
1396+557361836+553313850+547154352+538665533+527141712+513934045+503054539
1383+498374932+502043714+513708123+530310666+548471374+566259620+582949971
1369+598517880+612278209+622831238+629724597+633462119+634835292+634810640
1356+634199300+633266539+631856178+629890838+627926394+627153131+628319714
1342+630817436+633523591+636087261+638729679+641640685+645007589+649024972
1329+653739923+659037823+664765758+670819538+677160711+683700940+690229002
1315+696615263+702881375+708980665+714683791+719766990+724131497+727821823
1302+731029387+733936864+736654133+739257151+741788794+744229944+746496529
1288+748432951+749708676+749830933+748419203+745517994+741716051+738219251
1275+736691005+738507276+743896198+751804596+760698798+769368027+777166599
1261+783893875+789475481+793822237+796920027+798734243+799084792+797920106
1248+795362598+791284851+785555915+778905649+772735405+768078659+765815182
1234+767164651+772791925+782054533+793378928+805123876+816108784+825672111
1221+833733423+840584854+846450743+851424274+855643979+859292113+862553299
1207+865565282+868302199+870721751+872938401+875102693+877112859+878852646
1194+880367145+881822174+883250918+884507048+885471098+886215284+886930815
1180+887664676+888191527+888363141+888304145+888056680+887445445+886315471
1167+884672552+882622722+880214494+877497699+874743400+872231351+869927946
1153+867636814+865163639+862262377+858621039+854021498+848537551+842464808
1140+836097456+829741799+823793894+818456277+813554542+808920131+804677091
1126+800884787+797125510+792744463+787246926+780124854+770453807+756846550
1113+737760456+711854536+678120757+636190292+587627628+536969360+489971657
1099+450118097+417684642+392419534+375806536+370190692+376562178+393375603
1086+416826073+441873319+462910268+473981562+469428795+445757435+405693440
1072+361652701+331057772+323056430+329497131+330781705+311424784+270993068
1059+221733494+177809258+147536565+133607441+137170110+160020406+203952332
1045+268607306+349579643+438673604+526223806+604173651+668081147+717050880
1032+752155777+774148400+782145028+772432211+738029044+676274514+601970801
1018+547368790+539668193+578584357+641293560+705619081+762502901+811458359
1005+853242020+887733153+914582527+933843080+946337692+953482046+956420232
991+955463978+950405326+941029889+927007820+907078301+878292084+835845935
978+773704248+688102688+585589755+488817294+428836923+426716061+481602146
964+573736192+677254103+772746888+851364752+911719982+955908025+987321964
951+1009594658+1025739406+1037654809+1046413005+1052870167+1057845594
939+1061729920+1064539264+1066457566+1067804664+1068647879+1068747960
928+1067892947+1066193982+1063888839+1060883124+1056756179+1051187953
916+1044113656+1035599975+1025801245+1015120428+1004532739+995746099+990415962
903+988323518+986463790+980479752+966644361+942307774+905801575+857822861
889+803352853+750488153+706494111+678144671+676332772+711075216+777212583
876+853679534+920112722+968070788+998443878+1015144026+1021187693+1018140997
862+1008616386+998974838+997395339+1006979999+1022918262+1038352641+1050014153
849+1057595390+1061728866+1063604818+1064384296+1064517457+1063909382
837+1062500549+1060589305+1058564391+1056437076+1053912280+1051016550
825+1048095746+1045071279+1041481088+1037209288+1032419275+1027072388
814+1020914207+1013529025+1004775990+995513066+987530029+982767407+982272477
800+985222778+989235525+992199522+993331498+992765773+991081557+988896933
787+986428393+983495369+980055089+976341745+972466795+968170237+963065547
773+957424209+952232184+948296659+945487525+942800281+939249806+934218544
760+927289734+919211145+912791487+910968000+913627538+917660406+920383469
746+921393135+921198345+920128735+918456529+916442887+914248676+911903921
733+909422213+906905002+904452580+901964235+899335670+896516844+893985306
719+891476417+888896102+886413867+883993682+881575657+879211782+876938085
706+874739765+872525433+870219394+867879380+865666259+863704606+861942643
692+860201960+858439522+856774796+855261930+853931424+852884465+851990209
679+850969535+849658307+847585406+845001614+844732869+847722412+848706636
665+845753649+843850517+844270386+844878303+844968218+844937351+845076517
652+845633709+846619934+847640135+848411711+849130877+850110413+851337572
638+852662284+854122001+855746062+857412105+859113915+860997135+863054181
625+865155421+867150312+868890626+870760572+873494065+876850118+879887175
611+882382842+884888306+887740422+890640683+893342782+896237248+899580817
598+902866128+905854355+909120388+912860491+916524954+919915403+923275513
584+926631513+929898494+933147776+936566354+940194471+943833544+947209877
571+950367822+953710970+957207717+960445831+963480201+966695139+970227916
557+973902492+977494264+980910840+984181719+987364315+990673224+994156697
544+997461603+1000419911+1003293834+1006527419+1009945681+1012810123+1015237050
530+1017867511+1020597949+1023089981+1025289038+1027277608+1029268495
519+1031329334+1033430732+1035630842+1037589598+1038957661+1040014734
507+1041029667+1041750571+1041921342+1041681356+1041279555+1040566868
496+1038993585+1036355117+1033085081+1029480141+1025397864+1021053899
484+1017586229+1016298442+1017136915+1018342951+1018263624+1016684862
473+1013693685+1009216771+1003986820+1000148216+1000450778+1005420516
461+1012878810+1020909044+1028388724+1033827371+1036779463+1037933668
449+1037640587+1035853866+1032852049+1029561260+1026199044+1022060721
438+1017934618+1015588494+1015412245+1016858056+1019947945+1025063907
426+1031485566+1037740036+1043573531+1049883520+1056484694+1061720860
415+1065097298+1067265593+1068807272+1070166380+1071167934+1071649379
403+1072114917+1072685909+1073741823
##END=
