##TITLE=31
##JCAMP-DX=4.24
##DATA TYPE=INFRARED SPECTRUM
##DATE=16/11/2015
##SAMPLING PROCEDURE=Instrument type and / or accessory
##ORIGIN=Default
##XUNITS=1/CM
##YUNITS=TRANSMITTANCE
##RESOLUTION=4
##FIRSTX=3996.3359
##LASTX=399.24785
##DELTAX=-1.9287336
##MAXY=1.2250873
##MINY=0.043397814
##XFACTOR=1
##YFACTOR=1.1409514e-009
##NPOINTS=1866
##FIRSTY=0.18579885
##XYDATA=(X++(Y..Y))
3996+162845539+162927911+163030134+163179857+163333315+163484462+163642714
3983+163777156+163887764+164011223+164162814+164334531+164527157+164759434
3969+165026073+165264397+165419919+165517114+165624483+165775473+165952113
3956+166131300+166270197+166328759+166345659+166396176+166557719+166822699
3942+167068808+167252279+167400839+167522039+167626312+167679037+167722123
3929+167902211+168163116+168310463+168386996+168534094+168679847+168734086
3915+168806271+168964339+169080302+169128886+169256159+169446943+169583737
3902+169693417+169777225+169807499+169917493+170130584+170210827+170191498
3888+170365278+170548618+170539502+170598221+170688102+170705486+170818614
3875+170992916+171198146+171363006+171347569+171393136+171544779+171549925
3861+171464863+171509843+171884752+172412479+172427942+172017888+171924259
3848+172142392+172346642+172457380+172580108+172780048+172872136+172825981
3834+172896611+173053805+173133068+173161239+173215465+173436550+173708687
3821+173742827+173859011+174142472+174114836+173934826+174009126+174239928
3807+174312073+174326765+174532334+174617475+174562412+174704286+174847009
3794+174846591+174872503+174980028+175133852+175241966+175256358+175269941
3780+175279214+175239693+175272239+175457082+175701897+175816436+175776210
3767+175755875+175795500+175921009+176099335+176117253+176066684+176258879
3753+176582840+176580358+176324246+176457565+176769706+176547055+176203961
3740+176322391+176577746+176635042+176627428+176655207+176700918+176772893
3726+176802710+176783537+176764130+176680505+176528587+176429316+176457121
3713+176435703+176185428+175903665+175784438+175770934+175633840+175204078
3699+174642041+174109246+173586260+173083896+172583830+171947467+171248363
3686+170796450+170588217+170422469+170351447+170418903+170288065+170019376
3672+170080942+170129030+169838217+169622356+169574229+169430017+169181441
3659+168950182+168664736+168383117+168320989+168197047+167638158+166962288
3645+166584480+166370591+166036143+165569447+165079124+164561949+164079332
3632+163742677+163242337+162348230+161562509+161101389+160678145+160051499
3618+159185196+158322381+157572877+156842793+156089031+155184750+154144759
3605+153194975+152319791+151367735+150393738+149451346+148420693+147340999
3591+146406548+145427835+144100648+142721050+141648304+140722499+139721075
3578+138626113+137478805+136291925+135100669+133939596+132688576+131310820
3564+130042678+128906942+127709313+126448250+125217866+123990656+122682406
3551+121334675+119999508+118587247+117139800+115857083+114742283+113578846
3537+112233831+110838613+109549184+108302004+106968554+105530629+104048057
3524+102612319+101305232+100094661+98866405+97579352+96291216+95054269+93824015
3508+92585383+91387219+90144676+88809901+87523318+86331181+85144562+83961077
3493+82826666+81672783+80429632+79204701+78127893+77074332+75898703+74757932
3478+73740476+72698964+71570397+70368413+69128730+67987952+67037927+66164566
3462+65207599+64208160+63293586+62428734+61525157+60602539+59706557+58834867
3447+57980313+57169327+56370756+55489225+54522623+53595838+52829796+52186345
3431+51555295+50951765+50421994+49891766+49266974+48577639+47941198+47395000
3416+46847552+46257716+45682701+45163071+44709908+44237870+43566297+42766729
3400+42234176+42062267+41846083+41356005+40831935+40590127+40572587+40491884
3385+40250742+39947145+39667414+39415014+39172859+38955944+38714100+38376701
3369+38082900+38036513+38178589+38308947+38369328+38430604+38519215+38580608
3354+38541077+38431315+38454556+38674129+38891710+39026565+39156443+39291326
3339+39482924+39833740+40278243+40686521+41041634+41351734+41613303+41876314
3323+42212153+42654642+43182601+43702558+44144649+44527400+44854548+45127952
3308+45452843+45992040+46775077+47612986+48293454+48803703+49281971+49828769
3292+50489101+51282233+52138545+52966329+53746263+54505060+55288207+56102249
3277+56899018+57659885+58416742+59263101+60266674+61340158+62396756+63448188
3261+64503832+65550712+66587268+67682498+68888949+70122363+71300395+72484187
3246+73779566+75158445+76521320+77868319+79239533+80610341+81991043+83490861
3231+85125324+86774408+88399135+90049140+91715835+93372260+95072684+96849693
3215+98638483+100396308+102153492+103940068+105755710+107601208+109471318
3202+111354939+113266313+115218709+117189416+119131090+121031232+122943912
3188+124914306+126920942+128932710+130936708+132914506+134877012+136859211
3175+138857619+140841648+142829046+144860810+146902251+148895200+150840961
3161+152747386+154608752+156440432+158253932+160072891+161967574+163935956
3148+165863643+167686024+169431754+171134477+172843312+174607196+176389704
3134+178129505+179814453+181466175+183109199+184718436+186230035+187624731
3121+188979540+190393591+191898568+193470335+195020409+196444073+197762640
3107+199077146+200401002+201689244+202931434+204148588+205355725+206518405
3094+207595970+208600856+209583839+210566717+211519792+212443573+213345399
3080+214200639+215047521+215948002+216858004+217666972+218341980+218961783
3067+219594423+220204261+220731531+221197104+221638934+222028993+222323972
3053+222559371+222810077+223044953+223166205+223167354+223114303+223039180
3040+222924276+222725446+222392434+221904162+221290224+220616365+219884205
3026+219008512+217960633+216761606+215391830+213814473+211990145+209911796
3013+207605374+205055743+202200489+198951323+195227533+190988788+186182639
2999+180710520+174488308+167396895+159209149+149755795+139072239+127265120
2986+114450451+100936965+87437819+75091551+65083382+58082640+54123438+52777758
2970+53218334+54575556+56547546+59534233+64222245+70940597+79149436+87542562
2955+94682527+99616027+101998571+101829126+99329765+95004450+89755159+84918286
2939+81782078+80885365+81887533+84027521+86696843+89749517+93319594+97438745
2924+101961414+106703874+111462138+115938998+119804192+122810018+124811561
2910+125795275+125912321+125425669+124622343+123759188+122976602+122213685
2897+121257123+119852188+117816572+115077501+111557543+107158314+102003742
2883+96715420+92497703+90813017+92509444+97208140+103831328+111479808+119639488
2868+128016844+136387657+144486397+152102703+159213406+165910803+172348771
2855+178749843+185276503+191891698+198392251+204545595+210199866+215301857
2841+219877309+224030248+227900875+231596050+235199202+238779028+242330775
2828+245791126+249128763+252344834+255421526+258356435+261164607+263819399
2814+266308221+268706561+271138702+273692955+276361800+279062225+281708110
2801+284244262+286651692+288925490+291032481+292940773+294640309+296151123
2787+297544604+298830234+299971912+301021908+302017154+302925550+303728967
2774+304416356+304982677+305444907+305849384+306251746+306663249+307081231
2760+307516243+307931195+308303622+308689972+309084759+309417012+309685088
2747+309924222+310178062+310508409+310945877+311509193+312233334+313143611
2733+314222103+315358140+316399646+317299396+318148576+319074630+320160410
2720+321465133+322997942+324660282+326306715+327799010+329065702+330149289
2706+331141531+332146965+333238623+334387171+335510827+336571427+337582111
2693+338535016+339378894+340102277+340754012+341340863+341823180+342225071
2679+342648068+343195347+343924007+344850008+345940464+347104267+348237848
2666+349276690+350218206+351116833+352028311+352941121+353813157+354640579
2652+355442402+356226281+357009167+357804069+358575932+359315537+360040827
2639+360730855+361392933+362039157+362653095+363236969+363792997+364318413
2625+364834713+365379562+365942304+366480571+366975817+367416680+367818572
2612+368224851+368629903+368996010+369353574+369731774+370080354+370364337
2598+370618124+370906443+371233943+371542401+371828265+372143149+372500844
2585+372868308+373213727+373534253+373872854+374271898+374720493+375175148
2571+375601097+376029030+376504869+376980420+377379569+377726032+378072809
2558+378394563+378664258+378903575+379138320+379380693+379652609+379983112
2544+380370977+380829864+381385892+382003383+382633360+383287628+384000485
2530+384765035+385533868+386270364+386979172+387676514+388369310+389066103
2517+389764384+390463032+391179337+391913168+392655150+393424636+394221079
2503+395001615+395746339+396492421+397294323+398128641+398913199+399634545
2490+400344502+401068173+401790199+402503134+403234536+404008698+404796260
2476+405572016+406351689+407134523+407920988+408711841+409483548+410235585
2463+411011497+411842315+412697581+413533388+414321446+415048434+415755675
2449+416482768+417201737+417872122+418497867+419098562+419686406+420271585
2436+420843887+421376747+421853631+422290211+422728540+423182699+423600236
2422+423933431+424228515+424557269+424925673+425320277+425773495+426313539
2409+426912536+427551263+428217129+428885685+429549122+430178941+430791913
2395+431420401+432068557+432719351+433335197+433846768+434180616+434301084
2382+434257097+434201669+434246126+434331279+434388718+434505373+434768773
2368+435123464+435638902+436488578+437740277+439191093+440484375+441356333
2355+442022199+442881305+443769300+443927487+442936263+441860094+442366050
2341+444288787+446123497+447234562+447784714+448195277+448754885+449480254
2328+450266013+450969597+451509458+451983337+452598634+453351168+453982816
2314+454389043+454774113+455364282+456150773+456973519+457719575+458363865
2301+458973311+459614310+460272027+460919713+461566563+462193353+462790939
2287+463343964+463828867+464259648+464659554+465049848+465459053+465881527
2274+466274015+466620270+466936695+467224596+467489511+467763098+468042118
2260+468317115+468660601+469153131+469781697+470504088+471285250+472051942
2247+472814297+473488365+474114005+474726063+475340576+475959425+476584281
2233+477245132+477954411+478650733+479274441+479865654+480476040+481102725
2220+481726328+482336923+482943548+483522119+484041605+484521127+484990513
2206+485460214+485938900+486441512+486994276+487634074+488374488+489188771
2193+490023585+490842831+491642591+492399357+493102314+493798794+494526252
2179+495261860+495971765+496664849+497364776+498057233+498714323+499344090
2166+499972551+500614700+501260662+501879668+502488225+503134919+503792113
2152+504413835+505033833+505665951+506253926+506761188+507217775+507718037
2139+508321109+508970101+509615854+510301990+511058494+511851045+512659425
2125+513485201+514315105+515143023+515971777+516804971+517632158+518429411
2112+519192968+519936203+520680013+521430301+522160528+522856328+523551658
2098+524298341+525051711+525769139+526455797+527139321+527826606+528479516
2085+529042571+529549259+530060334+530546856+530998168+531463009+531930620
2071+532345676+532711260+533084105+533530663+534125533+534864903+535648520
2058+536440601+537276303+538145387+539020427+539902258+540769723+541577162
2044+542310733+542981771+543590172+544139801+544677833+545261210+545897455
2031+546595606+547377813+548220255+549094511+550004448+550912922+551783155
2017+552666188+553578632+554447768+555253850+556041177+556781225+557436852
2004+558075605+558762419+559459317+560076964+560602406+561128788+561731860
1990+562384352+562983297+563502679+564023785+564592796+565173561+565734422
1977+566286141+566850712+567424163+567982882+568540452+569141539+569788703
1963+570419097+570990616+571532409+572057433+572525305+572895643+573148542
1950+573254592+573159931+572890366+572592383+572388224+572236934+572001012
1936+571669124+571341050+571071485+570914239+570995474+571514699+572633862
1923+574325170+576409280+578739758+581127859+583285211+585080740+586641132
1909+588151633+589650276+591046891+592277537+593391998+594449672+595459076
1896+596424755+597339968+598237158+599203045+600242226+601217517+602063406
1882+602870010+603696308+604531122+605340652+606046848+606632837+607295098
1869+608283449+609513990+610641459+611510073+612271384+613101235+614010231
1855+614892637+615650343+616254147+616705354+617167740+617925916+618974240
1842+620003339+620827339+621550984+622284084+622994930+623748718+624677357
1828+625701963+626669626+627621199+628604013+629503136+630290776+631070005
1815+631845578+632596545+633425821+634374886+635261942+635928330+636494833
1801+637216597+638070427+638751391+639247943+639933034+640952886+641975821
1788+642689069+643178674+643704324+644354832+644993010+645406655+645609926
1774+645989771+646813406+647828556+648619540+649062388+649370559+649815602
1761+650450645+651146602+651760802+652246645+652701091+653363770+654346374
1747+655344390+656037212+656531309+657062811+657513548+657752081+658187668
1734+659225282+660473115+661297794+661717604+661954518+661956033+661668550
1720+661402956+661680983+662568822+663392718+663647289+663416383+662991714
1707+662512767+661969616+661509632+661341416+661510259+661796384+661785100
1693+661202245+659985078+658277314+656659405+655648486+655102043+654395795
1680+653097288+651486274+649990453+648706051+647635577+646849191+646285822
1666+645690847+644991652+644397774+643825367+642792716+641484231+641007583
1653+641754423+642356032+642095192+641879906+642250348+642594513+642439827
1639+642251759+642987628+644981882+647223447+648788488+650050321+651682545
1626+653852068+656306516+658564797+660515169+662927667+666247646+669583767
1612+672212543+674438801+676647140+678844195+680980806+683068782+685039371
1599+686827482+688488542+690094279+691625416+693057556+694402975+695655353
1585+696779844+697684243+698258583+698713238+699612256+700902247+701733457
1572+701965303+702267048+702816416+702948795+702223897+701199709+701063777
1558+702311296+703625319+703832141+703291550+702634617+701919070+700881716
1545+699630331+698980451+699484265+700245941+700005423+698858834+697612829
1531+696493406+695116589+693355801+691566645+690006619+688591144+687211455
1518+685675042+683803188+681498255+678595579+675341215+672409492+669881228
1504+666900451+662711440+657324487+650994006+643701503+635323429+625468393
1491+613341753+599391635+585409233+572386918+560184842+548615093+538035472
1477+528637911+519487974+508611257+495369895+482208357+471372493+462514793
1464+453766746+443949898+434668574+430878973+437275592+451676055+468152138
1450+483363358+496250524+506232873+512912534+516714281+518819026+520651437
1437+523052650+525589586+527339300+528161576+528545706+528916879+529448851
1423+530231058+531473458+533496967+536314752+539427124+542496189+545627055
1410+548930160+552357077+555846004+559201245+562013962+563918571+564487739
1396+562982462+559019655+552881474+544336750+532758800+519596374+508855589
1383+504327010+508109010+519812862+536376501+554469396+572194200+588789863
1369+604185442+617725049+628077683+634827504+638505701+639889622+639869927
1356+639220412+638243398+636823117+634887163+632968136+632220513+633376610
1342+635852737+638563323+641152448+643811994+646732432+650115936+654158097
1329+658904260+664234114+669981166+676032000+682328002+688779526+695226661
1315+701565553+707798396+713856387+719494725+724503661+728797572+732414124
1302+735553715+738412352+741083756+743626178+746117194+748577492+750871872
1288+752775697+754011462+754173253+752856253+750048081+746331696+742913765
1275+741439153+743263572+748620173+756477873+765323766+773962263+781735018
1261+788418545+793948326+798255297+801322795+803106831+803427905+802232418
1248+799621300+795469067+789712664+783097991+776955107+772298120+770041771
1234+771407774+777036551+786273523+797546280+809205779+820072153+829505551
1221+837434560+844149170+849888072+854758622+858899936+862502435+865747344
1207+868737002+871428937+873786529+875943254+878085978+880091203+881811923
1194+883300588+884735339+886176151+887443209+888381460+889113986+889804196
1180+890479988+891015147+891279487+891312921+891106882+890473615+889266217
1167+887556467+885502971+883143028+880491893+877778278+875287784+873036503
1153+870815156+868367239+865462055+861859973+857349627+851953061+845937072
1140+839645354+833423587+827609144+822337382+817435697+812824734+808672710
1126+804943213+801178505+796807694+791387986+784404647+774883379+761368065
1113+742386338+716723749+683309666+641624290+593215631+542702280+495877000
1099+456199096+423926038+398849778+382486510+377110919+383692602+400732393
1086+424388556+449547906+470550791+481426986+476513286+452273119+411448390
1072+366630634+335510774+327366688+333908224+335284022+315856077+275189952
1059+225625145+181426407+150988778+137103191+140988667+164481106+209394530
1045+275210666+357222076+447011022+534851111+612722643+676264578+724707558
1032+759272253+780864628+788574433+778460176+743513964+681235378+606471934
1018+551473104+543508936+582343459+645089343+709518593+766561151+815640952
1005+857450662+891903978+918661072+937736415+949985926+956911748+959666425
991+958549404+953382020+943947473+929856461+909786550+880839088+838321563
978+776193640+690594123+588014918+491136792+431040790+428782587+483581882
964+575784318+679480910+775165638+853989579+914562752+958922406+990425507
951+1012711488+1028822666+1040688622+1049416033+1055870117+1060812863
939+1064632007+1067418551+1069351057+1070669519+1071422419+1071476437
928+1070717686+1069133524+1066823733+1063800954+1059725725+1054226087
916+1047228695+1038806373+1029113023+1018551738+1008072053+999377554+994168900
903+992242455+990548691+984723278+971064718+946955938+910803791+863307838
889+809334710+756922758+713369081+685459704+684022131+718918766+784837256
876+860707167+926363407+973619416+1003461352+1019772196+1025517367+1022260130
862+1012671993+1003057945+1001403676+1010766026+1026478082+1041728431
851+1053269029+1060904912+1065187748+1067099253+1067821122+1067960083
839+1067425760+1066048370+1064135193+1062166955+1060123698+1057599300
827+1054643285+1051726138+1048842007+1045424285+1041179062+1036407040
816+1031217820+1025153037+1017771672+1009118966+999960566+991974248+987257184
802+986866524+989780746+993662370+996595712+997816275+997332103+995659654
789+993469286+990939978+987859942+984347559+980714394+976930566+972678552
775+967680848+962207018+957074322+953021452+950064915+947380241+943933681
762+938929708+932002842+924021435+917685312+915826989+918379388+922349717
748+925167920+926341256+926197907+925091752+923400078+921394540+919192679
735+916809854+914317845+911831688+909424728+907031978+904519177+901718946
721+898760423+896162156+894044299+891873260+889391909+886808583+884340396
708+882092981+880027260+877939389+875690668+873437088+871384689+869517903
694+867724829+865964458+864219655+862541251+861028660+859735691+858630894
681+857579227+856486603+855534194+855013558+854208522+851327108+847974844
667+849077603+852546417+853092859+851318383+850103567+849999868+850350145
654+850820629+851426679+852186527+852986549+853662758+854317915+855317132
640+856726860+858183083+859458029+860736579+862259096+863976002+865747448
627+867702052+869864941+871965350+873624843+875264902+877798652+881012320
613+884068429+886784238+889387103+892096017+894916622+897707032+900665137
600+903969600+907228404+910212525+913352115+916849975+920267802+923456917
586+926825637+930492236+934096981+937428088+940723775+944261025+947975268
573+951454634+954521296+957697037+961214017+964500196+967432076+970570307
559+974151753+978029094+981860984+985207136+988121462+990964844+994068388
546+997507634+1000899444+1003988152+1006875103+1009853268+1012987948+1015917842
532+1018587784+1021269428+1023936131+1026386974+1028512771+1030510161
521+1032629063+1034649229+1036472550+1038507344+1040583200+1042095686
509+1043035296+1043711506+1044166004+1044346027+1044376954+1044305801
498+1043712759+1041955575+1039004785+1035588212+1032148026+1028457605
486+1024479335+1021025566+1019451331+1020107898+1021380597+1021359492
474+1019445166+1015871243+1011267228+1006378185+1002760379+1003111440
463+1008222612+1015889632+1023970924+1031239343+1036436713+1039486239
451+1041000502+1040767715+1038882227+1036349888+1033616107+1030133920
440+1025781707+1021963086+1020179050+1020246232+1021643893+1024895801
428+1029929761+1035636901+1041507346+1047290340+1052775245+1058351573
417+1063610796+1067779538+1070438300+1071009923+1070361505+1070615920
405+1072328072+1073741823+1073580189+1073585935
##END=
