##TITLE=31
##JCAMP-DX=4.24
##DATA TYPE=INFRARED SPECTRUM
##DATE=16/11/2015
##SAMPLING PROCEDURE=Instrument type and / or accessory
##ORIGIN=Default
##XUNITS=1/CM
##YUNITS=TRANSMITTANCE
##RESOLUTION=4
##FIRSTX=3996.3359
##LASTX=399.24785
##DELTAX=-1.9287336
##MAXY=1.2076428
##MINY=0.040172964
##XFACTOR=1
##YFACTOR=1.124705e-009
##NPOINTS=1866
##FIRSTY=0.18033461
##XYDATA=(X++(Y..Y))
3996+160339479+160471425+160584147+160705719+160824417+160938331+161062858
3983+161225144+161428450+161614200+161761197+161906935+162076443+162290373
3969+162531226+162734412+162882681+163018112+163181034+163391653+163600271
3956+163731501+163841269+163998852+164121418+164184775+164336263+164580905
3942+164757076+164867824+165003136+165165051+165340163+165473487+165552570
3929+165695897+165908715+166047524+166121652+166237289+166367751+166472935
3915+166612221+166803006+166949115+167042732+167207099+167425229+167563350
3902+167587291+167535553+167534043+167744344+168056211+168143097+168067062
3888+168173239+168304615+168290797+168393635+168526482+168566640+168725336
3875+168981001+169241899+169382245+169287767+169259533+169370825+169389956
3861+169388115+169549010+169967783+170370643+170177076+169699730+169694205
3848+169980011+170152645+170205999+170318906+170535089+170645864+170648196
3834+170782381+170977538+171102357+171206109+171280754+171416396+171589467
3821+171591349+171683244+171892325+171808035+171680090+171890431+172229498
3807+172315603+172297200+172484302+172556124+172459818+172549738+172710249
3794+172818520+172916522+172959621+172998984+173075933+173139939+173215153
3780+173302318+173371398+173462034+173571140+173661511+173686962+173666598
3767+173687479+173742223+173868115+174024068+174022346+173996245+174216377
3753+174514399+174465642+174217715+174381578+174664960+174416939+174137068
3740+174329337+174568017+174515909+174397119+174409109+174515922+174631413
3726+174649379+174599497+174581968+174540698+174455957+174454089+174589533
3713+174621278+174322554+173920276+173684868+173589635+173391457+172940768
3699+172403337+171852764+171210547+170541568+169885454+169125759+168368859
3686+167949292+167845089+167779917+167722695+167714282+167494097+167187146
3672+167249098+167297298+166990969+166740126+166638944+166452094+166213639
3659+166035507+165773562+165436575+165280675+165106305+164566556+163918895
3645+163537378+163300076+162915565+162371046+161816790+161253139+160691556
3632+160248101+159673136+158748955+157956231+157480938+156984804+156249329
3618+155348122+154548587+153877064+153154400+152316802+151308768+150241883
3605+149339206+148472473+147420148+146317624+145321607+144286719+143167964
3591+142149491+141105235+139777981+138446011+137429923+136531286+135499233
3578+134341632+133144205+131938392+130763223+129630676+128381552+126941497
3564+125549933+124341668+123221761+122087492+120872219+119562056+118201429
3551+116874335+115562331+114134319+112642871+111286947+110076470+108859143
3537+107569682+106289377+105092261+103930732+102675089+101255809+99764381
3524+98351327+97088497+95928942+94734490+93443731+92163730+90993105+89856995
3508+88642125+87338362+85974721+84663631+83499326+82395358+81287282+80171892
3493+79010880+77819581+76648731+75543305+74527872+73477999+72298041+71168177
3478+70198566+69243277+68177551+66965139+65694214+64596002+63744935+62951111
3462+62077926+61176812+60291139+59398346+58507228+57624033+56748608+55918634
3447+55147989+54389947+53557877+52615052+51624053+50712194+49998122+49414605
3431+48826047+48274208+47796835+47286108+46682082+46053058+45477978+44936622
3416+44350386+43755217+43223202+42726306+42254839+41777847+41150513+40394637
3400+39874566+39735240+39564404+39072554+38508652+38254087+38245458+38129156
3385+37829567+37507508+37247620+37043815+36870817+36687322+36426281+36080898
3369+35792842+35718668+35810036+35896535+35923914+35963492+36063164+36161428
3354+36135020+36013282+36043532+36289194+36502506+36597766+36716347+36886500
3339+37089348+37400791+37814751+38180853+38415922+38604819+38847818+39179145
3323+39593079+40021023+40431277+40870297+41331642+41758282+42088949+42290270
3308+42475192+42883104+43600687+44423600+45103479+45604508+46083408+46679598
3292+47402086+48209802+49010217+49708464+50367208+51084327+51837100+52569445
3277+53260875+53934581+54640793+55454027+56430620+57496651+58532394+59516738
3261+60484435+61451615+62429414+63466734+64588278+65727866+66826920+67940249
3246+69156489+70468745+71814587+73144814+74411162+75599037+76830977+78310441
3231+79999470+81636087+83132145+84598002+86119399+87721363+89388273+91060682
3215+92712786+94398079+96141018+97895179+99649367+101428628+103225809+105040107
3200+106881135+108738538+110610549+112488455+114329198+116128432+117965810
3186+119875805+121812656+123774189+125764910+127733943+129651861+131550860
3173+133461716+135380774+137301236+139221048+141157118+143115697+145050295
3159+146928506+148740751+150468123+152188287+154044915+155998712+157877492
3146+159640437+161334409+162973820+164624057+166374786+168180870+169925876
3132+171577861+173188099+174814222+176441048+177976045+179380619+180733708
3119+182105425+183532893+185059000+186606636+188032807+189359119+190695647
3105+192028783+193294972+194520447+195769677+197053209+198295272+199397054
3092+200368189+201335442+202370834+203412202+204393406+205299170+206140784
3078+207003251+207953452+208899281+209711561+210377189+210969947+211576802
3065+212224463+212866905+213444917+213918342+214299925+214639641+214967566
3051+215275856+215516602+215638122+215643183+215588279+215521359+215424708
3038+215224648+214890377+214463735+213948934+213318138+212567677+211675294
3024+210629608+209441084+208086472+206533456+204750995+202723614+200478434
3011+197994600+195181768+191960074+188273381+184074749+179315063+173948430
2997+167907054+160975985+152882373+143538431+133046428+121501464+108995680
2984+95854609+82821755+70978008+61391498+54711201+50996000+49800766+50321244
2968+51738147+53749473+56736923+61366948+67928146+75882637+83996911+90913413
2953+95711262+98038533+97882454+95454550+91275990+86237030+81565695+78474298
2937+77542558+78482167+80507362+82996423+85842191+89165704+93013007+97311556
2922+101841598+106346612+110592954+114274996+117106257+118954142+119838946
2909+119913286+119405255+118580349+117692378+116886113+116135838+115244223
2895+113978498+112151494+109615870+106283216+102087730+97162824+92132555
2882+88162189+86621727+88280171+92783237+99120217+106426861+114224637+122232793
2866+130227011+138001138+145389892+152294027+158751102+164961905+171155034
2853+177465086+183857201+190129744+196057391+201499703+206411950+210856377
2839+214954290+218782826+222420922+226001902+229566081+233045150+236440485
2826+239782029+243014535+246095737+249038117+251827525+254436137+256903569
2812+259339945+261811033+264321842+266924943+269641216+272358364+274956404
2799+277398874+279694520+281840665+283818866+285623426+287233730+288660032
2785+289971917+291185627+292284601+293279146+294160599+294926733+295594904
2772+296190842+296740488+297242093+297707529+298138915+298521597+298925425
2758+299395737+299856827+300253262+300587427+300881553+301178091+301494370
2745+301816558+302138322+302514566+303065325+303848126+304822348+305923442
2731+307053286+308103556+309041821+309928175+310867871+311967162+313300537
2718+314864231+316559726+318224403+319717322+321022343+322187350+323264039
2704+324346691+325481278+326623231+327760866+328910239+330011094+330976890
2691+331806115+332554283+333249350+333880106+334441331+334938617+335394805
2677+335931282+336695587+337695645+338826178+339975948+341087111+342160912
2664+343213223+344240388+345209840+346089729+346923433+347775208+348625499
2650+349442668+350242692+351044916+351863172+352686726+353460068+354142521
2637+354760744+355367334+355998037+356651581+357293360+357884899+358414963
2623+358925021+359451482+359982977+360496532+360973230+361414287+361838757
2610+362246613+362634224+363022498+363408890+363758954+364073219+364380727
2596+364711077+365069964+365409747+365700190+365961301+366225034+366528329
2583+366873570+367233597+367603217+367982693+368381884+368822094+369301626
2569+369790513+370257008+370692740+371096223+371475488+371834561+372158497
2556+372441760+372675207+372869065+373064858+373297430+373596141+373986217
2542+374488829+375081190+375697557+376331281+377019829+377737419+378444065
2529+379169418+379933141+380693922+381423754+382133129+382838371+383555642
2515+384275988+384984462+385722164+386509708+387294920+388065135+388862324
2502+389677347+390476841+391281265+392105270+392934071+393740588+394482079
2488+395185518+395913681+396655198+397397510+398175595+398973923+399742389
2475+400500309+401289045+402111699+402950411+403774469+404573540+405397094
2461+406289623+407208067+408086737+408908782+409679341+410415823+411130869
2448+411819656+412482792+413139384+413800983+414441862+415037031+415596614
2434+416118013+416593094+417054157+417525263+417986486+418408889+418786113
2421+419128439+419437802+419747218+420116202+420560996+421089708+421721551
2407+422416140+423103575+423784863+424469092+425108883+425729756+426380756
2394+427075584+427772214+428381401+428823412+429072334+429154583+429142632
2380+429130788+429177557+429272234+429369772+429448710+429530906+429643443
2367+429820475+430186544+430901775+432080799+433701517+435441290+436847109
2353+437440503+437183527+436744721+436636504+436979519+437897937+439258047
2340+440577325+441561775+442209463+442706961+443252686+443904984+444591174
2326+445259769+445977173+446754569+447472768+448070508+448620710+449192800
2313+449828325+450562529+451349888+452127919+452885865+453603640+454266141
2299+454921169+455621933+456344106+457035437+457690624+458320214+458906082
2286+459427879+459885922+460297646+460696970+461098519+461480725+461829596
2272+462149002+462432847+462668467+462865081+463060582+463298746+463608930
2259+464019118+464544518+465153811+465821028+466561432+467357853+468169007
2245+468881112+469537200+470185232+470819539+471438371+472072201+472730939
2232+473404886+474090493+474746740+475345169+475930931+476539959+477142150
2218+477733955+478345367+478938443+479462678+479940117+480420524+480904163
2205+481380490+481869376+482397479+483021558+483775317+484609365+485456821
2191+486286682+487081513+487821335+488499628+489159956+489881282+490647972
2178+491363892+492030632+492722069+493423521+494077277+494710047+495369103
2164+496060380+496759501+497400644+497985983+498601052+499248979+499880265
2151+500508106+501115968+501652497+502142497+502636894+503161659+503719970
2137+504311085+504967597+505695123+506461284+507255055+508084227+508942812
2124+509803146+510662261+511527576+512384148+513219255+514020658+514779664
2110+515515193+516260738+517015451+517748701+518446656+519142596+519906902
2097+520718056+521511191+522233259+522893533+523536160+524185253+524814949
2083+525384177+525895004+526385056+526873094+527335483+527751977+528154904
2070+528576008+529000187+529460402+530052842+530780263+531570059+532407499
2056+533293059+534189165+535076156+535971944+536858881+537682595+538429677
2043+539099809+539686473+540231587+540788149+541361352+541960787+542639028
2029+543418755+544286084+545224057+546186779+547116696+548020010+548950351
2016+549881911+550731540+551511320+552301912+553083176+553803283+554505106
2002+555210374+555873299+556464202+556993100+557512724+558090802+558736662
1989+559355017+559898012+560435760+561007002+561574269+562111223+562639909
1975+563207759+563804121+564358351+564882797+565477675+566153955+566798437
1962+567348798+567855438+568357096+568818584+569183937+569434289+569554377
1948+569473082+569171430+568778095+568453601+568219678+567936786+567531633
1935+567101626+566745123+566517877+566545064+567022026+568089891+569758199
1921+571882589+574283140+576758786+579025310+580929238+582587105+584190281
1908+585761183+587195408+588464764+589636554+590737012+591771066+592772634
1894+593747385+594682443+595617501+596602057+597560857+598432214+599287037
1881+600151239+600998854+601818752+602540873+603115454+603714200+604624138
1867+605835728+607017694+607955825+608754949+609582426+610467349+611331128
1854+612086371+612707270+613185345+613624468+614279444+615254778+616327837
1840+617225586+617977438+618711960+619398838+620073369+620905615+621899975
1827+622903292+623914929+624961649+625902695+626702031+627482606+628266149
1813+629017894+629820675+630728228+631583474+632236171+632795435+633501922
1800+634340051+635012091+635473419+636080327+637053383+638110755+638863773
1786+639347730+639858345+640499011+641126429+641533595+641692795+641941769
1773+642622023+643613204+644498181+645040063+645353268+645713904+646278840
1759+646966990+647601456+648112918+648558454+649154551+650086800+651124723
1746+651902860+652427307+652909992+653315781+653534760+653876159+654786203
1732+656063932+657079808+657687988+658007553+658003048+657652958+657227561
1719+657256284+657968919+658827027+659227039+659083792+658633168+658048995
1705+657369218+656726803+656334634+656347512+656584456+656618321+656185451
1691+655112180+653407941+651595750+650246582+649478249+648843465+647702201
1678+646106232+644507614+643122092+641953693+641049903+640446439+639913514
1664+639266700+638696942+638192369+637255509+635927063+635228155+635783445
1651+636505301+636484685+636417274+636936633+637496322+637530875+637402042
1637+638056488+640006998+642437492+644304163+645748935+647412208+649561983
1624+652049659+654421274+656431193+658742923+661947579+665329082+668093290
1610+670405868+672629042+674815967+676939933+679013817+680987593+682787277
1597+684426279+685985945+687490443+688904053+690212943+691444407+692602047
1583+693564451+694144225+694471103+695133127+696286792+697187615+697482749
1570+697720806+698223524+698411924+697719163+696490402+695893034+696802919
1556+698209692+698711191+698409963+697885199+697204309+696113973+694674448
1543+693620839+693658519+694304908+694331671+693438003+692284390+691195115
1529+689797986+687940854+686012496+684294319+682720185+681222576+679637631
1516+677784315+675512809+672578749+669144515+665861531+663049467+660131148
1502+656153018+650790001+644265847+636750512+628246858+618282217+605939176
1489+591719236+577576140+564555018+552443940+540974218+530459055+521063111
1475+511837231+500877222+487683864+474685053+463956318+455079891+446263192
1462+436377090+426964213+422933803+429047929+443212886+459461267+474407673
1448+487076479+496984945+503703541+507543988+509601232+511291374+513554189
1435+516063911+517858349+518700081+519060400+519389610+519875475+520587156
1421+521681148+523500759+526188441+529286364+532369766+535493233+538790155
1408+542234034+545763607+549200809+552133279+554136308+554698912+553059063
1394+548996298+542959599+534602638+523084689+509815176+498897617+494182527
1381+497762711+509280607+525722979+543784055+561628908+578515915+594279887
1367+608175069+618807246+625714083+629468147+630938886+631025110+630449788
1354+629501693+628075841+626111393+624159133+623386507+624516378+626919102
1340+629502859+632007335+634658768+637549371+640844279+644803330+649503210
1327+654813125+660559142+666604055+672868689+679283725+685733738+692133511
1313+698461051+704633790+710395918+715513246+719928326+723711061+727008619
1300+729974264+732730628+735351907+737903337+740402990+742726114+744659242
1286+745893885+745972637+744481494+741446318+737522986+733965590+732426274
1273+734271004+739723001+747686627+756607994+765337727+773229862+780004104
1259+785595638+789977755+793131111+794987925+795393396+794333215+791902987
1246+787913463+782204808+775554629+769436900+764863627+762647501+764004088
1232+769630175+778900466+790232824+801966784+812928807+822475524+830526699
1219+837380010+843285704+848324704+852585195+856261143+859580005+862648568
1205+865377163+867722705+869866650+871997717+873995606+875754378+877289189
1192+878721189+880094204+881274897+882167506+882912945+883684299+884414581
1178+884882216+885054823+885067489+884856460+884189985+882965410+881271612
1165+879212566+876791664+874048496+871233200+868643613+866316832+864050996
1151+861583300+858647173+854961792+850328104+844819879+838735166+832370476
1138+825993332+819968345+814553605+809600034+804912979+800638338+796827357
1124+793033864+788612848+783072508+775912616+766202725+752534630+733395249
1111+707464561+673727115+631824976+583334240+532754356+485739236+445722052
1097+413049211+387550837+370746557+364992484+371251368+387937971+411285723
1084+436336627+457500369+468820643+464716595+441752613+402532380+359256722
1070+329155185+321263607+327595174+328843358+309572097+269252810+220087424
1057+176200275+145891922+131837024+135106626+157464589+200729780+264571081
1043+344711891+433123598+520163826+597818152+661794739+711125882+746596927
1030+768852674+777144662+767888256+734104439+673077704+599468653+545319502
1016+537772529+576630006+639123187+703131465+759699292+808393956+849982306
1003+884367997+911181860+930409585+942883844+950092863+953147117+952295156
989+947431943+938428380+924790440+905097518+876482487+834228350+772269313
976+686837482+584538782+488058915+428337679+426288331+481081010+573063441
962+676344419+771429171+849544561+909484722+953426617+984683753+1006772722
949+1022693615+1034396785+1043019520+1049425653+1054353732+1058192748
937+1061015623+1062962477+1064255680+1064950879+1064974727+1064241477
926+1062713396+1060469978+1057457909+1053336107+1047797939+1040728087
914+1032163330+1022293497+1011511819+1000804229+991945238+986514334+984232229
901+982240117+976219264+962296948+937739329+900916149+852634428+797878952
887+744642760+700150610+671229211+668976412+703655806+770137610+847129171
874+914014274+962374322+993188944+1010241510+1016487171+1013607379+1004278634
860+994853754+993440250+1002997725+1018702820+1033887601+1045473756+1053209765
847+1057564748+1059454684+1060063606+1060105049+1059523685+1058124914
835+1056164069+1054071583+1051964152+1049565667+1046699124+1043609045
824+1040445514+1036877836+1032579559+1027667060+1022266363+1016064264
812+1008590902+999780562+990400941+982229730+977351360+976806987+979771678
798+983896554+986947734+988108660+987620781+986044474+983944250+981498494
785+978442650+974813073+971001085+967098474+962844289+957901688+952436231
771+947299878+943281736+940389755+937798366+934392538+929317448+922302923
758+914292502+907938411+906036180+908541609+912419736+915075992+916162830
744+916063303+914986535+913230360+911122929+908922013+906656972+904199663
731+901603717+899051545+896547599+893969035+891135985+888340987+885796817
717+883503053+881231865+878825007+876322228+873877902+871647362+869611846
704+867568487+865349711+863004223+860771404+858838382+857125876+855407646
690+853619673+851959156+850567327+849355896+848234664+847123183+845900093
677+844605458+843270971+841683482+840123603+839750619+840748954+841313200
663+840936612+840260809+839755229+839692217+840018300+840480583+841081502
650+841862925+842615784+843235146+843951649+844991321+846293322+847671318
636+849058749+850507707+852105318+853896947+855835905+857869248+859962529
623+862030107+863964083+866012636+868658027+871715514+874634682+877335189
609+880076344+882964351+885843136+888689752+891775963+895058841+898147330
596+901104496+904413024+908095596+911624799+914892202+918298560+921845358
582+925214725+928463262+931944450+935666557+939276525+942631796+945942443
569+949420134+952901746+956043125+958909668+962036527+965734786+969638563
555+973291246+976632737+979781006+982860486+986139018+989663133+993002717
542+995905615+998682913+1001773946+1005017289+1007923579+1010588950+1013289510
528+1015805539+1018074183+1020355759+1022580522+1024542215+1026337925
517+1028283613+1030568368+1032799279+1034490799+1035624274+1036382855
505+1036913767+1037248701+1037359144+1037149811+1036301772+1034473629
494+1031794479+1028853424+1025721902+1021935458+1017837928+1014691567
482+1013548872+1014136595+1014813987+1014201038+1012167483+1008977772
471+1004711609+999889945+996445112+996843747+1001450884+1008480565+1016477738
457+1024190217+1029706868+1032596411+1033607465+1032852593+1030529787
446+1027573787+1024787692+1021773502+1017874177+1014149632+1012083750
434+1011549340+1012255668+1015122529+1020424971+1026745887+1032760062
422+1038208667+1043788913+1050235004+1056215157+1060007537+1061723223
411+1062303315+1062722936+1063684491+1065857425+1069338614+1072341038
399+1073741823
##END=
