##TITLE=12
##JCAMP-DX=4.24
##DATA TYPE=INFRARED SPECTRUM
##DATE=16/11/2015
##SAMPLING PROCEDURE=Instrument type and / or accessory
##ORIGIN=Default
##XUNITS=1/CM
##YUNITS=TRANSMITTANCE
##RESOLUTION=4
##FIRSTX=3996.3359
##LASTX=399.24785
##DELTAX=-1.9287336
##MAXY=0.4785127
##MINY=0.013813647
##XFACTOR=1
##YFACTOR=4.4564968e-010
##NPOINTS=1866
##FIRSTY=0.058843281
##XYDATA=(X++(Y..Y))
3996+132039320+132142030+132350484+132485694+132514007+132544017+132650639
3983+132828482+132998642+133077461+133083121+133161714+133378979+133598417
3969+133697140+133742246+133849980+133987515+134037060+133948937+133836647
3956+133918910+134211074+134502368+134630064+134561560+134460463+134559127
3942+134805156+134945834+134921952+134892552+134978510+135179483+135430118
3929+135627162+135660206+135500160+135322986+135339571+135519219+135709592
3915+135815286+135835624+135868685+135964331+136075300+136162253+136160615
3902+136063188+136040743+136146304+136217165+136180033+136087329+135960026
3888+135823888+135779417+135812753+135785235+135756772+135834905+135931020
3875+135970801+135963337+135971504+136053650+136106907+136039774+135919493
3861+135820268+135747309+135701500+135748780+135898511+135923296+135687900
3848+135405859+135336352+135499023+135658417+135627429+135481268+135363085
3834+135329707+135376928+135425144+135419853+135426381+135471555+135496691
3821+135510007+135519528+135502408+135460144+135331546+135126243+135004206
3807+135079180+135246491+135357451+135444404+135467642+135326823+135125825
3794+134987914+134928789+134881660+134760844+134636810+134588268+134499952
3780+134351434+134302582+134334832+134303326+134236753+134238852+134272021
3767+134253263+134195451+134090208+133946496+133907475+134028299+134161922
3753+134206953+134214936+134199170+134050752+133836363+133713482+133522014
3740+133225111+133153138+133332075+133387673+133219518+132965657+132655588
3726+132349957+132155154+132045898+131882024+131567533+131206105+130960502
3713+130811891+130594911+130162847+129546897+128891934+128254868+127596855
3699+126850400+125935373+124852626+123728577+122668475+121715999+120932154
3686+120296802+119737343+119314533+119108645+119000343+118851992+118665731
3672+118404706+118074558+117750270+117401924+117017131+116672447+116354896
3659+115978438+115627442+115432881+115228723+114784129+114149855+113486450
3645+112822434+112185527+111630098+111111951+110582853+110110347+109702333
3632+109192695+108497140+107785435+107180327+106597889+105995547+105388082
3618+104724484+103934444+103048449+102188024+101415581+100648504+99786993
3605+98863248+97990109+97225899+96514662+95765140+94965520+94157149+93294066
3589+92299919+91308639+90510817+89809770+89022907+88167699+87326124+86464045
3574+85571922+84678303+83719508+82669329+81645055+80772117+80003360+79223802
3559+78431121+77689724+77018143+76308896+75398984+74294086+73201935+72311418
3543+71577711+70867142+70173945+69482502+68717448+67896325+67042053+66173206
3528+65443821+64858800+64133833+63172312+62229131+61510509+60942758+60365361
3512+59754292+59131375+58447376+57643092+56782873+56086816+55615063+55129140
3497+54484066+53783939+53117281+52467635+51831874+51199451+50552045+49964124
3481+49493871+49050827+48558941+48010533+47356435+46655877+46068077+45596248
3466+45148720+44701927+44250783+43761233+43232190+42691422+42126756+41567787
3451+41119999+40727671+40220474+39672447+39255777+38921140+38521021+38054438
3435+37643577+37308376+36969785+36609862+36227841+35806656+35441910+35213034
3420+35008939+34766364+34518245+34249189+33998869+33823767+33636141+33334089
3404+32981126+32682723+32455571+32268255+32130376+32046138+31968969+31914879
3389+31874232+31776047+31656863+31553720+31426016+31305372+31283788+31311816
3373+31236636+31069440+30996650+31107500+31279339+31388107+31429692+31467321
3358+31549472+31644756+31715754+31787116+31951365+32228392+32460300+32544657
3342+32581965+32731451+33034254+33375335+33650331+33901649+34181962+34470700
3327+34769825+35050800+35270625+35518589+35909090+36367749+36730293+36997062
3312+37278550+37598270+37887755+38190271+38669477+39256003+39715915+40051488
3296+40405686+40813813+41275280+41798652+42339570+42856283+43332718+43792267
3281+44304086+44866416+45402631+45877357+46341014+46877083+47530600+48258376
3265+48968280+49643309+50319546+50991587+51628840+52261354+52945971+53634346
3250+54315214+55105584+55993134+56875050+57776577+58695950+59559484+60379011
3234+61208360+62079296+62986658+63931063+64930071+65905665+66777813+67637423
3219+68618090+69700160+70795128+71886534+72997560+74114814+75178685+76203544
3204+77272724+78382780+79485856+80594901+81747464+82922638+84070470+85202987
3188+86329068+87405412+88467344+89608087+90836727+92075582+93236989+94338553
3173+95429082+96506863+97638954+98831090+99964109+101062086+102228458+103387642
3157+104446339+105460899+106501682+107615918+108783895+109894186+110906238
3144+111879997+112847838+113766233+114646962+115584417+116585193+117552072
3130+118409730+119187247+119958027+120750157+121585654+122498516+123468621
3117+124370758+125117873+125835112+126623789+127415610+128183664+128877916
3103+129426340+129935844+130550933+131287933+132006016+132536410+132950326
3090+133452423+134048052+134570053+134982297+135375866+135767856+136154053
3076+136563722+136976292+137336191+137641436+137913287+138161372+138419246
3063+138680406+138861442+138897696+138843427+138824719+138892270+138981580
3049+138979650+138830939+138576367+138309080+138078156+137810326+137410312
3036+136877085+136294504+135698516+135040017+134359275+133632933+132636771
3022+131349114+129988724+128611565+127120721+125461388+123632546+121659666
3009+119520221+117101091+114339727+111268419+107855276+104047662+99896716
2995+95405684+90375281+84660925+78434724+71932151+65210302+58399954+51846690
2980+46017679+41426018+38428932+37084416+37237256+38489181+40286980+42400847
2964+45082841+48737410+53432801+58640056+63560929+67487604+69951204+70841889
2949+70357722+68785317+66367362+63503651+60903959+59336565+59171787+60140046
2934+61639421+63256427+65002634+67082336+69497423+72069510+74694986+77299532
2918+79664869+81546675+82829040+83491000+83563056+83111683+82326683+81463618
2903+80621558+79899095+79436896+79049153+78349769+77189708+75676511+73890937
2887+71743683+69311618+67008465+65363987+65081298+66760054+70188824+74560219
2872+79339419+84404789+89676959+94991994+100101167+104797251+109085580
2858+113086469+116938646+120799426+124706984+128553335+132217405+135590991
2845+138612529+141300140+143711829+145940250+148065569+150112177+152107376
2831+154107223+156114843+158030696+159784330+161447784+163086462+164627370
2818+166066496+167548789+169054287+170429264+171712406+173066619+174550517
2804+176063873+177508466+178899576+180210973+181375498+182412160+183381814
2791+184301263+185107629+185751992+186291848+186787918+187242928+187671222
2777+188061615+188377310+188636596+188824596+188905028+188962473+189089399
2764+189233580+189335846+189397504+189387256+189384949+189526554+189707899
2750+189779538+189765645+189741136+189790455+189950334+190189826+190515251
2737+190921610+191372624+191879411+192453055+193055104+193620623+194135234
2723+194662802+195255840+195964017+196850146+197858989+198810805+199602023
2710+200263891+200866408+201484757+202118170+202692298+203215888+203788880
2696+204453205+205104707+205631004+206073893+206501836+206888885+207208492
2683+207459921+207662281+207882631+208187292+208623995+209188394+209818780
2669+210485028+211156926+211763406+212264759+212700610+213151925+213633701
2656+214079933+214461432+214818773+215167202+215513860+215919818+216377503
2642+216796969+217172165+217530876+217822246+218030207+218232801+218473714
2629+218712855+218914179+219117108+219377348+219657867+219896790+220111673
2615+220328562+220534684+220701584+220803584+220842922+220855344+220905382
2602+220997802+221103346+221246456+221366193+221380120+221337170+221304285
2588+221320703+221385487+221485313+221614780+221712266+221763291+221822273
2575+221920879+222082513+222278487+222431962+222525352+222602809+222697084
2561+222772417+222757153+222691115+222689427+222712649+222633353+222491547
2548+222438817+222505607+222601187+222697151+222851329+223087878+223392271
2534+223752270+224118622+224448227+224764691+225081572+225388908+225701309
2521+226009715+226289231+226559669+226836360+227102367+227358076+227619637
2507+227923695+228307869+228732150+229138242+229524522+229860296+230121087
2494+230380374+230697106+231044833+231376410+231675537+231986233+232341133
2480+232693976+233026590+233385034+233757321+234090921+234387607+234678643
2467+234988436+235349805+235784536+236253823+236700641+237090031+237413550
2453+237710771+238002124+238269068+238517471+238774534+239041009+239277960
2440+239481006+239683952+239887750+240059415+240168587+240239373+240326075
2426+240417023+240454606+240459338+240479634+240491270+240509108+240578306
2413+240688063+240854596+241103333+241420282+241771704+242100941+242414312
2399+242743498+243008035+243201233+243427936+243757039+244129376+244439219
2386+244667945+244859471+244983038+244953981+244800940+244656626+244548508
2372+244336417+243895200+243313180+242785412+242460588+242382480+242557355
2359+242917889+243384702+243886223+244279157+244617438+245221493+246145908
2345+246920458+247143281+246974558+246870453+247195677+247935904+248670447
2332+249088860+249247368+249353012+249590581+250071755+250711822+251229242
2318+251522216+251790915+252160210+252601159+253085259+253563140+253964032
2305+254271719+254545985+254829949+255116971+255400918+255689495+255977203
2291+256251854+256499221+256713134+256878178+256988169+257075774+257180014
2278+257298899+257392221+257424137+257405563+257373413+257328457+257260162
2264+257188992+257145641+257154050+257226090+257367528+257591622+257888643
2251+258251350+258694339+259094663+259445684+259731770+259967534+260166350
2237+260330960+260477046+260675929+260989919+261321396+261519928+261634332
2224+261804576+262034890+262246512+262412661+262555169+262676846+262780216
2210+262892013+263011466+263096914+263143341+263207557+263318568+263478430
2197+263723840+264048663+264384119+264692525+264962645+265190484+265398863
2183+265614916+265854091+266122071+266386256+266601824+266798885+267000459
2170+267158583+267286897+267433050+267592243+267763022+267939619+268103343
2156+268240953+268327103+268390767+268507161+268676703+268836498+268934235
2143+268998584+269104445+269226139+269318358+269429787+269614225+269872375
2129+270165349+270458992+270764372+271121412+271510384+271847712+272127094
2116+272413331+272730882+273060503+273370848+273642373+273890408+274135701
2102+274345050+274490317+274631621+274851971+275150279+275442350+275668317
2089+275843560+276035705+276289425+276531893+276683095+276780931+276894266
2075+277026375+277141080+277239017+277322175+277376025+277446861+277616453
2062+277928604+278337571+278724186+279044695+279383545+279790473+280208769
2048+280595668+280961769+281307072+281587675+281776259+281911044+282022890
2035+282164429+282440518+282852427+283293126+283711355+284132025+284567642
2021+285010882+285475221+285944241+286370762+286781836+287211300+287609032
2008+287972559+288366412+288769528+289103329+289351498+289561415+289786981
1994+290016024+290213736+290412720+290634273+290865890+291110415+291342601
1981+291571878+291852648+292145455+292378678+292586689+292836162+293127565
1967+293427929+293719232+293964492+294120776+294237571+294390879+294559201
1954+294678905+294706390+294625072+294463170+294257366+293978468+293585985
1940+293156923+292760160+292342332+291893876+291477954+291141511+291007931
1927+291274390+292004251+293092791+294424684+295902931+297359645+298663552
1913+299856348+300982805+301971167+302787731+303526754+304239028+304879144
1900+305439514+305948424+306426372+306907295+307383972+307785617+308127443
1886+308496386+308872184+309198361+309499695+309819920+310148271+310490565
1873+310906286+311341501+311635646+311796679+311981953+312225808+312471570
1859+312735287+313055011+313392022+313685364+313915577+314122418+314370219
1846+314553387+314525166+314484641+314625912+314834859+315073298+315461635
1832+315921626+316211725+316350455+316501156+316647910+316807237+317030863
1819+317237069+317395560+317595647+317820611+317947036+317986324+318064466
1805+318224395+318404687+318521883+318562810+318642089+318845152+318984450
1792+318857289+318662686+318616543+318639013+318674857+318743771+318777241
1778+318779515+318880929+319018522+318940113+318650850+318388336+318279098
1765+318295749+318286253+318208446+318188718+318264118+318459323+318767578
1751+319003576+319063528+319060486+319094725+319181527+319262813+319309390
1738+319440764+319544251+319256058+318741230+318429631+318296284+318168823
1724+318034841+318046276+318191827+318060019+317398335+316562813+315949847
1711+315618855+315430572+315202331+314970279+314810684+314363532+313436259
1697+312348187+311189363+310141383+309404199+308871816+308445227+307726300
1684+306315963+304787661+303760378+303032088+302184696+301284372+300653384
1670+300121804+299486502+299055299+298904197+298734271+298572035+298802850
1657+299561534+300323696+300491081+300542139+301014369+301458144+301624928
1643+302003066+302919907+304280824+305731452+306904253+307899035+309119450
1630+310648253+312306425+313975028+315571843+317066307+318587152+320161664
1616+321629546+323012665+324469412+325935321+327263001+328455430+329564700
1603+330590211+331547210+332468798+333342104+334144658+334871978+335526606
1589+336121015+336663630+337133452+337536835+337996259+338578897+339015116
1576+339056143+339066040+339316583+339451802+339300634+339189623+339450699
1562+340091250+340454543+339865685+338921492+338319661+337937376+337595952
1549+337328590+337228580+337294618+337296089+336710675+335431378+334303784
1535+333592012+332752043+331717136+330829853+330064983+329275805+328365284
1522+327102872+325543139+323940941+322337105+320844313+319616943+318520513
1508+316810046+313842685+310544198+307908698+305407715+302072481+297614903
1495+292645939+287491033+281424001+274246913+267103796+260902715+255574238
1481+250839969+246753473+243258360+239635485+234793465+228671412+222809198
1468+218242665+214455196+210551918+206418762+202862409+201565323+204254706
1454+210301309+217402412+224012811+229565516+233876273+236859450+238704617
1441+239888151+240827344+241586296+242121153+242498255+242662999+242590725
1427+242531358+242725275+243182810+243805506+244479110+245217598+246152428
1414+247284385+248543670+249902531+251354647+252894602+254484411+255982119
1400+257058337+257178141+255830081+253135348+249861270+246106770+241109151
1387+235161355+230296113+228512971+230760134+236823054+245302661+254577968
1373+263727735+272489384+280806989+288142485+293600430+296812851+298130768
1360+298323097+298068475+297648507+297048280+296171096+295013943+293877322
1346+293379312+293879161+295007457+296150666+297124182+298113648+299364123
1333+301037106+303125343+305510333+308112496+310954335+314059356+317359716
1319+320734372+324101673+327452856+330771138+333979145+336976566+339702345
1306+342157486+344358104+346320686+348084785+349685110+351155199+352567709
1292+353944140+355162716+356038563+356435594+356192306+355092499+353186861
1279+350981828+349254075+348827553+350319543+353767995+358514034+363686461
1265+368698190+373196662+376940395+379896187+382168127+383780857+384657707
1252+384751030+384184876+383095768+381291979+378548210+375379158+372733627
1238+370981565+370315334+371373914+374571789+379619028+385732371+392029616
1225+397878171+402962091+407240347+410848293+413974246+416757904+419221504
1211+421339300+423162817+424802263+426302478+427624040+428734414+429694990
1198+430619822+431538569+432430867+433203394+433812348+434351452+434836588
1184+435189582+435400235+435505829+435530672+435461023+435220043+434723270
1171+433952415+432935264+431685056+430183270+428421778+426496112+424593115
1157+422824368+421192177+419658124+418072411+416193656+413898912+411207306
1144+408102920+404584719+400844764+397177801+393759978+390574708+387539604
1130+384660249+381958678+379356013+376683867+373657255+369912786+365123614
1117+358860942+350503112+339482464+325421863+308039738+287350030+264288657
1103+240830454+219087316+200301089+184772707+172727401+164864438+161994545
1090+164523782+172016448+182914282+194823065+205037415+210970599+210388245
1076+201817806+186268843+168887587+156769372+153391204+155384982+154961336
1063+145711224+127257202+104847975+84712409+70385350+62847276+62485300+70044794
1047+86655053+113363118+149828933+193395141+239608652+283824874+322491651
1034+353544335+376302987+390696385+396749708+393438214+377404065+347192487
1020+310450441+283225249+278796276+297409433+328753520+362503361+393949298
1007+422199231+446989244+467700351+483753392+495089852+502286417+506149888
993+507246753+505852299+502085160+495842216+486818991+474406029+457289091
980+433385057+400134128+356142051+304974072+257609645+228703629+228074964
966+255426631+302142532+356713053+409542982+454950880+490836573+517562250
953+536734021+550242042+559682427+566235565+570882899+574358000+576955782
939+578736500+579823468+580431084+580694233+580520294+579823401+578733491
926+577323321+575477067+573041119+569862671+565797341+560789457+554872925
912+548159189+540984658+534017804+528251738+524527699+522459591+520092858
899+514872749+504676155+488098723+464589512+435044834+402395803+370984808
885+344758211+327496926+325524047+345551335+386326144+436294506+482103948
872+516603780+539188794+552164232+557633746+556937656+552082846+547160093
858+547186976+554060909+564760395+574779706+581943437+586435890+589095464
845+590547764+591129634+591042029+590484368+589671382+588690543+587462471
831+585930190+584234870+582571784+580796149+578680192+576369833+573999690
818+571302064+567877854+563624943+558688280+553235250+547691540+543097839
804+540824930+541477753+544304110+547868822+550838256+552493485+552938330
791+552602256+551808195+550700931+549304738+547830871+546395825+544667001
777+542445317+539870138+537118445+534495585+532364816+530823406+529603627
764+528076963+525578956+521957402+517837168+514769362+514347288+516502265
750+519654299+522276724+523617579+523811914+523537130+523115490+522414317
737+521521651+520653695+519765710+518771597+517739031+516690448+515617892
723+514733719+513861249+512888869+511863693+510900508+510010450+509115076
710+508176568+507285942+506587578+506099632+505686051+505210678+504701132
696+504216631+503691003+503028951+502311328+501782088+501567356+501507938
683+501384255+501213325+501197276+501269800+501035106+500877986+502155478
669+504292834+504472591+503298252+503416452+504740387+505960334+506801975
656+507533943+508401465+509516921+510780336+512087620+513457163+514854760
642+516288938+517967004+519992279+522176815+524339516+526502986+528730087
629+531018277+533260525+535500331+537858772+540481599+543224866+545835723
615+548286249+550839059+553808560+557112999+560384369+563493402+566639149
602+570130434+573857984+577338702+580656248+584219757+587932193+591575215
588+595386424+599727809+604467562+608982351+612879025+616577685+620818426
575+625656751+630439570+634825627+638907274+642695546+646357024+650200400
561+654418135+659062058+663969664+668633047+672682261+676610098+680952018
548+685463999+689720253+693705134+697703256+701865018+706107028+710314599
534+714481577+718657450+722880067+727131373+731452696+735846510+740033083
521+744114529+748432174+752815356+757002128+761020312+764976036+768809447
507+772497274+776135882+779597474+782724630+785434962+787463046+788842855
494+790207684+791631428+792205741+791628352+791032840+791506976+793185510
480+796445144+801400097+806335991+809086112+809100156+807501669+806148945
467+806949893+811374135+819752295+831011181+843652551+856187792+866732665
453+874482411+879669149+882987632+885574046+887326743+887455810+886807668
440+887165778+888587115+889752994+891114480+894908904+902660188+914429388
426+929154949+945334883+961888576+978510947+993363435+1003571197+1011311247
413+1021138764+1032588107+1041113523+1045954590+1051672106+1060435794
401+1068651584+1073741823
##END=
