##TITLE=12
##JCAMP-DX=4.24
##DATA TYPE=INFRARED SPECTRUM
##DATE=16/11/2015
##SAMPLING PROCEDURE=Instrument type and / or accessory
##ORIGIN=Default
##XUNITS=1/CM
##YUNITS=TRANSMITTANCE
##RESOLUTION=4
##FIRSTX=3996.3359
##LASTX=399.24785
##DELTAX=-1.9287336
##MAXY=0.47201189
##MINY=0.013014987
##XFACTOR=1
##YFACTOR=4.3959533e-010
##NPOINTS=1866
##FIRSTY=0.057663389
##XYDATA=(X++(Y..Y))
3996+131173796+131341165+131510186+131570922+131571896+131646013+131806085
3983+131999216+132125043+132101069+132088366+132311810+132633107+132785306
3969+132834009+132956421+133120518+133202279+133220024+133296285+133425189
3956+133545652+133684631+133842924+133957201+134001860+133991920+133947565
3942+133945057+134090621+134388444+134675682+134793925+134792493+134773078
3929+134741528+134735232+134805933+134860559+134787959+134708758+134809442
3915+135022911+135124205+135022936+134818399+134701139+134788637+134964819
3902+135046410+135082248+135200932+135344818+135390046+135339479+135248583
3888+135158941+135155975+135207254+135144188+135010496+134971082+135011555
3875+135047487+135046546+135078359+135201898+135282455+135271227+135271896
3861+135244871+135066257+134709343+134402020+134532822+134921227+135004344
3848+134824577+134654158+134549109+134505178+134549550+134716690+134918464
3834+134981505+134927939+134860635+134759485+134649370+134607040+134598922
3821+134605718+134653734+134742011+134803111+134664030+134348030+134132916
3807+134194864+134385325+134497458+134568795+134574117+134402147+134215423
3794+134194178+134252422+134247651+134173373+134117544+134103002+134056334
3780+133996217+133986115+133931566+133751231+133562448+133537745+133666649
3767+133753621+133662937+133434121+133208863+133075807+132985996+132866008
3753+132787222+132905227+133125247+133142043+132959768+132848084+132810077
3740+132655403+132446849+132374139+132364969+132223388+131983098+131743705
3726+131502339+131223897+130935989+130738290+130611031+130436552+130203473
3713+129986157+129815966+129573481+129095120+128394620+127596530+126746611
3699+125828338+124862345+123904123+122943690+121853514+120640629+119581834
3686+118827565+118283562+117907207+117707407+117598020+117509996+117430846
3672+117253105+116908740+116437345+115888215+115354559+114947095+114654814
3659+114363152+114044694+113731270+113341423+112874639+112495216+112152852
3645+111632687+110954484+110268255+109654288+109110547+108596009+108056235
3632+107387896+106568560+105839155+105313685+104732234+103989286+103264643
3618+102647854+101992870+101199890+100350124+99484790+98577143+97676759
3605+96818933+95946091+95030436+94149636+93369198+92647055+91890379+91054095
3589+90184982+89338672+88538040+87755865+86862972+85796380+84696933+83719941
3574+82876395+82095346+81335883+80610079+79929308+79235088+78394685+77361644
3559+76254917+75239477+74384702+73630136+72876062+72055405+71152165+70232853
3543+69366078+68567662+67861972+67187324+66396378+65536721+64795837+64134651
3528+63355666+62463964+61630049+60917486+60241084+59528123+58835233+58190534
3512+57521156+56878156+56344195+55760286+54994809+54200592+53506215+52896688
3497+52342778+51788059+51215171+50620174+49992122+49392086+48851489+48295533
3481+47686307+47127054+46648574+46113351+45468956+44764097+44053568+43497353
3466+43183395+42906165+42463921+41908486+41384919+40959807+40574626+40140832
3451+39644293+39112010+38603036+38170733+37789878+37417756+37010389+36510648
3435+35957657+35491042+35167021+34903315+34645663+34415576+34210587+33957704
3420+33593439+33196180+32892097+32694110+32516113+32317139+32162249+31962103
3404+31480508+30874531+30600415+30681994+30792067+30782428+30684930+30540641
3389+30355549+30177966+30123050+30158577+30114928+30016648+30007553+30013542
3373+29892827+29699989+29606745+29662952+29740060+29800463+29914765+30056806
3358+30171850+30245198+30266655+30287883+30438828+30752274+31065643+31257577
3342+31398885+31529445+31630516+31790053+32019231+32208165+32385194+32644294
3327+32963561+33264138+33501997+33758065+34162728+34653750+35070612+35375706
3312+35606166+35829343+36120263+36497173+36962158+37510224+38025915+38381431
3296+38641018+38955192+39379991+39891190+40417909+40893037+41349005+41845907
3281+42381856+42951723+43505412+43997658+44501900+45092503+45779495+46514769
3265+47204052+47801096+48319134+48819066+49410484+50132012+50909238+51652847
3250+52337300+53070069+53905014+54710304+55484356+56346110+57251142+58064414
3234+58771125+59531373+60437557+61394296+62325798+63241750+64171031+65110372
3219+66034421+66998549+68072984+69216709+70357413+71443674+72459335+73478352
3204+74550596+75650339+76785116+77957239+79089676+80123710+81129066+82197496
3188+83319994+84471363+85639944+86779610+87853142+88890379+90002715+91225260
3173+92396875+93418527+94435663+95597227+96840305+98031665+99156781+100245982
3157+101271719+102247500+103286685+104417572+105536730+106596331+107606924
3144+108572137+109513206+110468428+111439726+112369956+113263069+114183868
3130+115121879+116038584+116928714+117765880+118541309+119312112+120098609
3117+120860615+121609139+122371569+123114313+123849574+124607673+125320062
3103+125966038+126601471+127269581+128008325+128726459+129282056+129727824
3090+130192736+130692427+131195779+131664784+132052215+132418155+132854372
3076+133300717+133662674+133962895+134244075+134502644+134776960+135108375
3063+135440519+135692335+135839882+135886610+135846814+135770451+135685471
3049+135557338+135397961+135286099+135186415+134949082+134588159+134216194
3036+133765909+133159670+132465611+131719511+130873295+129933361+128984097
3022+127994588+126818465+125449762+123955546+122295003+120449354+118449210
3009+116261621+113836360+111140072+108146029+104836062+101158451+97088291
2995+92668233+87750238+82101016+75862919+69367116+62718445+56025368+49652427
2980+44058165+39634599+36671385+35289208+35360175+36546350+38415494+40697835
2964+43527475+47166409+51626093+56604506+61435812+65304452+67713370+68613657
2949+68170744+66564106+64065572+61194810+58721474+57341771+57210329+58030338
2934+59427337+61054326+62782731+64765156+67074589+69596539+72231629+74811547
2918+77046855+78778303+79974815+80574851+80603791+80210335+79540860+78731719
2903+77889097+77149683+76653484+76226596+75519919+74438751+73065599+71382845
2887+69274136+66816350+64487303+63009836+62980290+64625609+67793385+71998872
2872+76715524+81691797+86825236+91966945+96938845+101594592+105880128+109876062
2856+113739193+117585350+121428830+125225878+128853338+132104196+134974209
2843+137643997+140125299+142356226+144406463+146381599+148316534+150234316
2829+152199910+154186131+156083812+157874903+159562335+161103364+162519888
2816+163851532+165104450+166357435+167697723+169099145+170532821+172030987
2802+173570033+175074385+176474027+177696708+178747038+179701031+180599347
2789+181424886+182130004+182715446+183230688+183692049+184111699+184513249
2775+184858986+185094251+185244366+185360753+185481478+185625221+185704676
2762+185661864+185599475+185577442+185615153+185773149+185980059+186123445
2748+186206409+186257323+186323610+186457267+186667432+186974305+187395074
2735+187900960+188447149+189006288+189555189+190037499+190462522+190967154
2721+191629662+192448608+193419041+194444727+195398822+196224445+196923377
2708+197529412+198099720+198715975+199377704+200017265+200629283+201227912
2694+201771220+202216514+202640860+203130542+203598886+203949572+204225548
2681+204500880+204791941+205067578+205375180+205906574+206700164+207499229
2667+208126840+208652335+209163441+209661157+210137823+210592829+210995768
2654+211364538+211800595+212338649+212851026+213228237+213554313+213942236
2640+214372055+214766181+215075563+215312845+215514027+215696920+215900712
2627+216152383+216418546+216659998+216870874+217094885+217372065+217627431
2613+217763902+217827833+217944457+218132825+218266228+218275923+218280228
2600+218368192+218462732+218518968+218589237+218652117+218632643+218590475
2586+218645219+218740183+218776131+218816452+218917331+219043497+219162596
2573+219259051+219357201+219468452+219552450+219614330+219688023+219766258
2559+219811495+219794766+219745208+219704023+219660109+219590365+219504824
2546+219465808+219534349+219700311+219946983+220248890+220530392+220787979
2532+221091140+221464334+221874883+222233315+222501325+222775149+223100496
2519+223405133+223661347+223906002+224154453+224413684+224719896+225095480
2505+225505029+225888935+226231350+226560986+226882249+227202766+227560910
2492+227938273+228281213+228595544+228897401+229174157+229476726+229863868
2478+230265875+230616256+230963993+231335730+231700619+232076118+232477769
2465+232846183+233160277+233513471+233960325+234408313+234788999+235135075
2451+235462134+235770957+236078068+236398721+236708594+236947368+237109364
2438+237257343+237454491+237682519+237843176+237880327+237866684+237921530
2424+238039154+238094305+238004731+237873802+237870616+237973071+238129355
2411+238396365+238708968+238975046+239257818+239578200+239882446+240197811
2397+240527837+240851320+241144838+241418204+241684943+241908921+242055578
2384+242165457+242311877+242464822+242493177+242363960+242209829+242063205
2370+241793381+241465051+241266344+241226565+241091569+240795576+240883235
2357+241626674+242393349+242417993+241919158+242062697+243423425+245024300
2343+245650810+245461340+245195787+245153822+245458662+245949938+246367215
2330+246693309+247015538+247349665+247765383+248386588+249099350+249592202
2316+249826450+250045801+250364250+250729529+251104859+251485951+251875992
2303+252290591+252681243+252988455+253265008+253562254+253840332+254082462
2289+254323930+254585991+254812901+254936525+254994964+255071759+255157570
2276+255178349+255130977+255087487+255062149+255012370+254939914+254864221
2262+254794986+254751275+254773936+254925237+255205501+255534883+255897619
2249+256350896+256759869+257051692+257228891+257398547+257621593+257876586
2235+258123665+258341676+258543247+258769259+259031676+259290127+259471987
2222+259590577+259756759+259965991+260108699+260177901+260267272+260386015
2208+260450674+260478927+260556129+260680346+260835054+261039151+261276992
2195+261516901+261756590+262003347+262273696+262605009+262954102+263204638
2181+263338940+263425345+263535850+263714965+263960636+264252748+264512317
2168+264670805+264810581+265004186+265170741+265252841+265322805+265461988
2154+265664187+265848521+265962433+266060753+266188597+266279137+266297069
2141+266315018+266379338+266483691+266634908+266866953+267198775+267553681
2127+267842776+268102278+268403406+268738889+269067880+269395211+269758711
2114+270133396+270446608+270680009+270884631+271118286+271361043+271578953
2100+271807489+272048178+272271223+272486930+272725449+273002222+273298062
2087+273554632+273733949+273868709+273988638+274091974+274211242+274366950
2073+274523641+274647435+274728975+274793872+274913157+275127880+275399077
2060+275701001+276056569+276467558+276901039+277320639+277716391+278102788
2046+278477186+278788991+278998190+279165541+279366943+279593717+279837745
2033+280112873+280405188+280736146+281155847+281638123+282127907+282619047
2019+283105103+283564058+284000013+284419511+284783535+285091222+285433146
2006+285827950+286198245+286553389+286950599+287326048+287577126+287731834
1992+287888169+288083825+288293684+288496730+288708487+288935770+289165933
1979+289398741+289625481+289856560+290148926+290497357+290788265+290961075
1965+291124426+291381640+291673701+291894610+292013489+292073724+292124232
1952+292166773+292161858+292048878+291787596+291361675+290832908+290362073
1938+289964456+289519789+289036208+288594219+288245177+288098943+288300226
1925+288938007+290034759+291459638+292970753+294432207+295801529+297043498
1911+298148182+299118767+299987220+300804623+301549587+302190283+302776845
1898+303333610+303824208+304284671+304768015+305212410+305578537+305920833
1884+306268994+306616850+306949180+307255376+307531199+307796955+308102948
1871+308432092+308723813+309020450+309386339+309761380+310065847+310316621
1857+310553733+310778948+311002569+311240496+311502557+311785024+311959122
1844+311937156+311947529+312154879+312419991+312631003+312844421+313090178
1830+313298851+313487829+313697993+313858667+313995409+314199404+314439974
1817+314647325+314785661+314853998+314924572+315064535+315222361+315340494
1803+315431339+315481948+315505134+315607165+315797398+315882752+315773534
1790+315679740+315714790+315753128+315735704+315702044+315667333+315683977
1776+315783195+315801228+315561031+315205142+314979147+314936945+315002401
1763+315003994+314894844+314831795+314905556+315133855+315431916+315603437
1749+315625267+315623267+315639978+315681502+315734416+315806754+315943360
1736+315941021+315580488+315176668+314996740+314880065+314731255+314596581
1722+314549938+314520786+314198353+313499354+312804592+312348536+312036272
1709+311729060+311335307+310933893+310581394+309968663+309008213+308012204
1695+307021687+306136421+305434778+304797675+304176436+303236935+301726295
1682+300259518+299307779+298618576+297837444+296982347+296219451+295447131
1668+294748098+294431462+294335532+294159672+294059200+294359633+295046870
1655+295606686+295618584+295612720+296044641+296572628+297023905+297646906
1641+298555731+299694075+300939433+302179402+303488352+304997704+306640883
1628+308281994+309891581+311451745+312960995+314483228+316000952+317460881
1614+318940437+320494263+321997106+323328089+324528703+325679013+326772240
1601+327785231+328724462+329578271+330333065+331002269+331615236+332180375
1587+332683447+333124114+333541018+334016566+334536146+334842477+334800885
1574+334787936+334975931+335047862+334954135+334960644+335201451+335573272
1560+335593679+334952780+334233204+333805724+333470919+333133673+332859951
1547+332717785+332652058+332405352+331580492+330305270+329374039+328804392
1533+328058479+327160467+326339980+325449392+324403757+323254227+321885177
1520+320383994+318910811+317391154+315895497+314528176+313089229+310993722
1506+307988306+305000280+302578375+300036100+296599746+292139113+287190322
1493+281938454+275685934+268395914+261274789+255139638+249806705+244963386
1479+240738086+237181328+233594063+228804861+222722015+216937940+212481798
1466+208779552+204897447+200708213+197017900+195550920+198130041+204157940
1452+211262642+217850866+223354710+227614993+230614612+232555665+233784346
1439+234646307+235335358+235869565+236191251+236257351+236175726+236154151
1425+236330909+236746492+237318884+237922157+238647173+239669570+240919064
1412+242247675+243619539+245057299+246546024+248045953+249492086+250608752
1398+250781494+249409139+246708342+243544591+239876311+234823421+228800861
1385+223944035+222184299+224386735+230277214+238496159+247632082+256880137
1371+265843640+274316494+281730426+287233135+290498578+291862204+292074470
1358+291825324+291371912+290687048+289753478+288638320+287590380+287114256
1344+287558415+288635574+289721479+290601728+291551127+292830621+294497697
1331+296510358+298809792+301393862+304281010+307401542+310686577+314095034
1317+317494745+320788560+324057664+327348293+330481977+333283330+335767878
1304+337981924+339913943+341626916+343252536+344835954+346355407+347778185
1290+349000764+349859251+350212870+349909826+348774567+346834209+344520877
1277+342647942+342124023+343584833+347081355+351952046+357278861+362391986
1263+366894449+370639677+373676075+376046354+377698889+378554291+378617916
1250+378074439+377050024+375273797+372481664+369243237+366596253+364898838
1236+364239228+365271202+368494748+373609704+379807920+386179387+392042629
1223+397124569+401471713+405190399+408347947+411040964+413393854+415507258
1209+417407108+419068694+420517708+421820794+423008425+424106296+425149252
1196+426122719+426984393+427696205+428248700+428692722+429105593+429482194
1182+429740493+429863913+429908793+429852998+429601615+429109458+428351850
1169+427313672+425987502+424360086+422486743+420468150+418455624+416633128
1155+415034321+413519037+411895993+410005058+407718709+404926779+401626320
1142+397984717+394249319+390615784+387153464+383827683+380649899+377728413
1128+375094920+372594000+369944372+366831468+362998005+358177821+351867811
1115+343437040+332394810+318298216+300794522+280046519+257079623+233756821
1101+212146061+193516683+178117461+166106967+158221284+155371830+157942952
1088+165380798+176097884+187792878+197916894+203938590+203535566+195201844
1074+180004888+163079755+151370169+148210316+150229451+149752108+140571627
1061+122428305+100458782+80723567+66673688+59253087+58850949+66211831+82335086
1045+108117521+143425250+186049803+231687907+275562276+314029646+345023238
1032+367881373+382465514+388714747+385660315+370007015+340232172+303874647
1018+276885277+272512200+291125545+322492619+356179262+387457016+415566443
1005+440300125+460955062+476898152+488224781+495636357+499775982+501013341
991+499618088+495793743+489561188+480658633+468361824+451319508+427497837
978+394325622+350405916+299333135+252099715+223306932+222695049+249997683
964+296686490+351210539+403867043+449001295+484566704+510944853+529828275
951+543184922+552662480+559395395+564168224+567614272+570115938+571841929
937+572931935+573522496+573760389+573697000+573201826+572182327+570708194
924+568839767+566409828+563154249+559055912+554162883+548306725+541452559
910+534066508+526996821+521198798+517348522+515086782+512542880+507110916
897+496700636+479946448+456189928+426404102+393707536+362272871+335753708
883+318014528+315678079+335576696+376415599+426577488+472707579+507691308
870+530774624+544091543+549822144+549401613+544785221+539969477+539975274
856+546764560+557342836+567302416+574525793+579061882+581658020+583001308
843+583484415+583344079+582815076+582004045+580879735+579522413+578072483
829+576519709+574816837+572940681+570873411+568626552+566137971+563238145
816+559730708+555415359+550277387+544675359+539053433+534214470+531772193
802+532665831+535831141+539421457+542265521+543972292+544507194+544038527
789+543046214+541939631+540674070+539141871+537419542+535509319+533334594
775+530916824+528335025+525771903+523615212+522095250+520823926+519079868
762+516436850+512833382+508749247+505709459+505420857+507795271+510928955
748+513205779+514262329+514478255+514304463+513840000+513101239+512209330
735+511278607+510396968+509469602+508397765+507346130+506472864+505649664
721+504662164+503455279+502334290+501543259+500868259+500078212+499210471
708+498339781+497511259+496816463+496262409+495680085+495049423+494528046
694+494094261+493591663+493096930+492825988+492762328+492700635+492542130
681+492374745+492284476+492028245+491144538+490405710+492384338+496328984
667+496479590+493397092+492705753+494533809+496285731+497414075+498248631
654+499073389+500305223+501862099+503322096+504775008+506481643+508305462
640+510046435+511729952+513425299+515188983+517106698+519204645+521473672
627+523913475+526658355+529335813+531848089+534536292+537278291+539695756
613+542139253+545171821+548602853+551978971+555306583+558741581+562368574
600+566130445+569766727+573236198+576865599+580789025+584565201+588052164
586+591845085+596132706+600438903+604552291+608700729+613039399+617537387
573+622022494+626374995+630656311+634782783+638706616+642738515+647125523
559+651526904+655588835+659576802+663749036+668011708+672049776+675751513
546+679654601+684193470+689101821+693967529+698528363+702663242+706574804
532+710476537+714521113+718927713+723614850+728161311+732130635+735801051
519+739959522+744640896+749224035+753303390+756954755+760575952+764374568
505+768116304+771568895+774666309+777195262+779025250+780408876+781705521
492+782901152+783602084+783552865+783182162+783513205+785336481+788850968
478+793492479+797743083+800104447+800380102+799728932+799445820+800597384
465+804549352+812237769+823200476+835988357+848712240+859265465+866806970
451+871990975+875594274+877567377+878041534+878279155+878736635+878667552
438+877971706+877599579+879373297+885195591+895822510+910039847+925699723
424+941488885+956382204+970411546+984335601+996332113+1005141247+1013071420
411+1021669305+1028991968+1034154007+1040871668+1051877018+1064073389
399+1073741823
##END=
