##TITLE=12
##JCAMP-DX=4.24
##DATA TYPE=INFRARED SPECTRUM
##DATE=16/11/2015
##SAMPLING PROCEDURE=Instrument type and / or accessory
##ORIGIN=Default
##XUNITS=1/CM
##YUNITS=TRANSMITTANCE
##RESOLUTION=4
##FIRSTX=3996.3359
##LASTX=399.24785
##DELTAX=-1.9287336
##MAXY=0.44781327
##MINY=0.011639217
##XFACTOR=1
##YFACTOR=4.1705861e-010
##NPOINTS=1866
##FIRSTY=0.056827556
##XYDATA=(X++(Y..Y))
3996+136257962+136270762+136253425+136284018+136475508+136733919+136895746
3983+137018672+137212950+137432425+137569821+137657099+137861077+138205551
3969+138478468+138550364+138510580+138455717+138440282+138512679+138681758
3956+138890729+139034512+139096895+139168979+139307180+139470453+139593343
3942+139672975+139748962+139834051+139866511+139792962+139709642+139775893
3929+140003497+140284980+140538389+140674875+140614992+140453720+140392820
3915+140465662+140555852+140623344+140690336+140759428+140841256+140976304
3902+141181729+141352443+141334676+141153753+140986138+140907355+140844767
3888+140755730+140729621+140806965+140862551+140878969+140881068+140792540
3875+140681395+140629231+140626515+140697634+140745976+140696634+140654143
3861+140634125+140517363+140325184+140337216+140726316+141050102+140839086
3848+140395204+140258710+140465930+140612616+140555369+140486323+140391792
3834+140225035+140187841+140333643+140489235+140571644+140536147+140370775
3821+140212191+140119500+140153997+140350588+140384236+140128227+139922302
3807+139974574+140052964+139976994+139971465+140068613+140003461+139819116
3794+139707686+139691706+139752499+139879159+139939711+139781216+139485656
3780+139298328+139296103+139307510+139218571+139115796+139091911+139098235
3767+139043811+138926244+138746392+138519512+138386966+138406831+138425160
3753+138406706+138532026+138785096+138845943+138619134+138286397+137920030
3740+137590884+137434988+137411738+137382100+137279218+137059118+136732106
3726+136439466+136285536+136149953+135893578+135557340+135247282+135004600
3713+134815218+134593161+134194173+133588626+132849720+132021277+131106377
3699+130081638+128906371+127610277+126315675+125085529+123942436+122969423
3686+122155236+121459035+120953172+120620829+120319649+120069724+119949013
3672+119820781+119626637+119374532+118922853+118277834+117689116+117301382
3659+117011101+116679212+116238993+115671489+115042003+114432740+113823102
3645+113162747+112495451+111911306+111409382+110885280+110280483+109604585
3632+108868841+108123673+107412582+106679018+105904105+105132284+104367518
3618+103665806+103079187+102486636+101756091+100876706+99861890+98781467
3605+97785391+96875530+95920935+94898938+93891205+92961541+92122057+91304270
3589+90413283+89482573+88612943+87708271+86611770+85406142+84338456+83504716
3574+82738289+81882629+80980101+80107362+79260563+78380964+77433087+76494946
3559+75652505+74893345+74137450+73296412+72318442+71214580+70107949+69173108
3543+68446823+67775191+66972754+66034121+65104756+64277327+63553998+62884885
3528+62143817+61225693+60259214+59482408+58866598+58255067+57666192+57115087
3512+56528132+55858519+55081445+54209809+53309394+52497310+51854814+51328988
3497+50804734+50239869+49693601+49120987+48387681+47607932+47003707+46510162
3481+45976793+45441400+44941517+44399792+43760740+43101943+42550405+42107144
3466+41670864+41210784+40767371+40285903+39690579+39083661+38631803+38290549
3451+37868306+37400970+37068589+36808393+36431683+35895861+35292558+34763534
3435+34372918+34030499+33647462+33258659+32941594+32717324+32529786+32317419
3420+32074637+31765331+31354995+30979423+30714362+30400408+29994290+29650499
3404+29475163+29469278+29491692+29344742+29072097+28879066+28825159+28800634
3389+28736801+28695632+28652795+28498023+28270310+28041096+27907869+27993657
3373+28155128+28156968+28050169+28036938+28164094+28323944+28463017+28605865
3358+28724102+28755479+28732094+28779565+28933064+29090292+29206586+29342243
3342+29510054+29651068+29788190+30034646+30380296+30704286+30987454+31273285
3327+31547142+31815980+32154078+32567597+32920786+33119637+33278634+33531230
3312+33843316+34134178+34389293+34670297+35079356+35617558+36162917+36633278
3296+37024968+37362135+37731088+38226116+38794696+39301180+39745946+40244493
3281+40827798+41387215+41864521+42325775+42778790+43258981+43898337+44647841
3265+45316504+45878046+46462660+47130613+47863195+48658419+49449110+50132775
3250+50726420+51367075+52142376+52948850+53696854+54510296+55460223+56393023
3234+57219756+58058279+58993352+59965914+60932549+61910872+62880606+63879424
3219+64999302+66128996+67110472+68060091+69154359+70327911+71406173+72403200
3204+73499787+74740353+75950210+76996280+77950686+78971791+80167637+81483891
3188+82726516+83822491+84880441+86009831+87224454+88445927+89627464+90815191
3173+92017183+93167082+94248756+95357218+96566517+97818298+99021808+100138238
3157+101169025+102161554+103207097+104349136+105492773+106576332+107685392
3144+108795909+109774781+110674879+111625151+112601173+113518377+114373358
3130+115255056+116235760+117252969+118182866+119026673+119864442+120687856
3117+121482438+122310756+123198894+124083004+124895753+125620609+126267950
3103+126886949+127534692+128205365+128868025+129528577+130172801+130759921
3090+131334222+131904487+132382552+132808828+133287313+133812220+134330686
3076+134783848+135140648+135432547+135692780+135940866+136199286+136470220
3063+136761467+137047175+137242498+137311232+137301620+137296368+137286650
3049+137165492+136943936+136726613+136502948+136193757+135800486+135371405
3036+134900593+134377116+133814408+133127532+132199154+131080474+129913800
3022+128730995+127446834+125984028+124333447+122530598+120587011+118447610
3009+116055676+113386483+110447562+107243199+103702572+99769718+95466844
2995+90799729+85643312+79816276+73413661+66780937+60118808+53502791+47173814
2980+41577200+37215150+34409637+33169287+33305395+34493008+36352797+38665674
2964+41512512+45188893+49778730+54847079+59640032+63455828+65850268+66706308
2949+66162237+64452873+61929464+59108976+56656900+55197707+54995788+55848340
2934+57202940+58722672+60523378+62632212+64964247+67540129+70239754+72784931
2918+75013141+76849245+78114639+78700624+78719185+78324137+77658386+76861241
2903+76007662+75228293+74652999+74132778+73399584+72366734+71055571+69389841
2887+67248462+64769411+62414836+60844695+60757998+62509237+65864752+70248043
2872+75138255+80234897+85408384+90594510+95713956+100637705+105242928+109482114
2856+113440997+117357897+121335912+125258449+129034353+132511579+135542280
2843+138229150+140730585+143120555+145452143+147669415+149740528+151813044
2829+153910704+155906428+157823728+159714516+161482574+163058159+164514284
2816+165960369+167449150+168945399+170390769+171822419+173330423+174931912
2802+176558840+178120616+179554821+180878480+182123427+183225958+184120402
2789+184855155+185540351+186198340+186757805+187234039+187711774+188180470
2775+188565862+188834331+188991451+189091528+189221046+189401228+189561277
2762+189623428+189627233+189664088+189720719+189763183+189809363+189866797
2748+189939346+190028025+190133194+190305713+190576308+190941406+191428609
2735+191966190+192482048+193065488+193687962+194218701+194711406+195302760
2721+196062916+196992589+198028467+199078762+200078822+200998544+201791732
2708+202455455+203069890+203682949+204324377+205068884+205888404+206620977
2694+207235340+207837913+208412456+208888797+209301630+209696080+210049013
2681+210327004+210551580+210786106+211144791+211721996+212447852+213202184
2667+213953158+214696343+215385666+215955814+216425171+216837628+217231328
2654+217725820+218313654+218828083+219278521+219781445+220251730+220560609
2640+220806711+221098779+221410641+221761806+222117418+222364235+222567516
2627+222840255+223116317+223352754+223635908+223950146+224175544+224294879
2613+224402442+224582589+224800590+224957888+225047604+225116490+225166921
2600+225171495+225140285+225158489+225268732+225368988+225378938+225341298
2586+225290151+225275574+225353642+225453058+225522855+225613590+225729227
2573+225825267+225922611+226092593+226295749+226433789+226498834+226481344
2559+226398256+226331300+226247622+226100025+225979439+225938171+225922325
2546+225886900+225877557+225972043+226160032+226403240+226689234+227028322
2532+227445246+227888181+228291581+228653571+228984370+229326083+229701490
2519+230061854+230371162+230628734+230850129+231070203+231343246+231691855
2505+232062438+232421141+232769697+233132634+233576837+234066881+234536201
2492+235000288+235405975+235718766+236008958+236301134+236603581+236952816
2478+237355662+237800598+238239352+238631784+239023518+239468954+239943902
2465+240367936+240746629+241171199+241616277+242025716+242453823+242888772
2451+243259677+243601748+243934940+244196960+244409174+244644182+244870955
2438+245059784+245265459+245477941+245653675+245814956+245926985+245942295
2424+245941134+245951531+245885628+245809061+245848381+245943224+246060201
2411+246273290+246595639+246981174+247350953+247665370+247964691+248286790
2397+248617731+248956265+249301516+249637299+249947411+250222507+250432666
2384+250541212+250571635+250584908+250592251+250509734+250221882+249734161
2370+249241777+248893043+248505113+247981216+247437275+247106191+247548697
2357+248985813+250431541+250695437+250125556+250130058+251234912+252455617
2343+252827236+252641927+252491918+252570808+253000433+253657028+254269873
2330+254745893+255201815+255723729+256332626+257019162+257607318+257953301
2316+258219859+258615720+259103137+259563687+259972589+260350890+260732245
2303+261162299+261612719+262004954+262328250+262618567+262890430+263141267
2289+263369559+263591812+263791949+263919520+263964878+263977991+264005734
2276+264045626+264046859+263951926+263774281+263583755+263414327+263258048
2262+263132799+263079991+263121527+263280200+263559924+263893670+264255124
2249+264717656+265185958+265620086+265953421+266204204+266405699+266577110
2235+266735247+266903960+267110761+267369601+267659954+267904681+268031162
2222+268079915+268166058+268330608+268490943+268602936+268735885+268890181
2208+268975842+268973359+268970071+269041530+269180177+269374687+269626041
2195+269908087+270191991+270473412+270767338+271069982+271334164+271518902
2181+271672680+271841572+271992224+272161759+272426387+272734194+272976777
2168+273126214+273222540+273314632+273447241+273625565+273801496+273937070
2154+274050332+274179886+274320837+274423720+274441673+274401764+274406980
2141+274486031+274553148+274605778+274744478+274991778+275338369+275757257
2127+276123767+276404938+276708404+277087151+277513382+277938613+278320111
2114+278653661+278961790+279240692+279476397+279693523+279921690+280134117
2100+280325876+280582429+280894238+281174801+281423083+281678243+281939638
2087+282174879+282360135+282517754+282674784+282827258+282968299+283090493
2073+283180012+283264494+283365822+283450107+283556097+283783817+284116384
2060+284467567+284848493+285306863+285803373+286254811+286638489+287023025
2046+287432767+287786110+288037948+288209358+288337823+288503856+288788171
2033+289166150+289538966+289854169+290157009+290566394+291133952+291756676
2019+292315695+292783640+293186629+293579204+294017994+294497568+294951740
2006+295330934+295640259+295921448+296231434+296582223+296897694+297141492
1992+297382771+297633661+297842784+298018679+298189429+298363930+298531214
1979+298684153+298860083+299074297+299316774+299599106+299894818+300153640
1965+300384951+300639450+300928285+301201577+301411557+301534859+301541647
1952+301437032+301241165+300923711+300501499+300011760+299427355+298811652
1938+298228284+297578728+296837061+296162262+295729403+295623859+295866425
1925+296510586+297612581+299085534+300759357+302460066+304019144+305414976
1911+306719770+307907944+308919758+309809165+310625076+311362098+312092223
1898+312828530+313434426+313875574+314252695+314600090+314945663+315351046
1884+315780332+316152737+316455899+316746806+317084197+317454637+317805069
1871+318107766+318354333+318573568+318824494+319116615+319422743+319733158
1857+320033855+320294571+320496869+320671621+320873348+321104480+321268798
1844+321273229+321241251+321357978+321607368+321887949+322188360+322507565
1830+322754274+322889009+322974795+323069299+323234618+323450136+323590409
1817+323636785+323709994+323863237+324026269+324139173+324218349+324298347
1803+324364767+324384990+324389385+324462915+324612656+324657568+324479422
1790+324305135+324293809+324281089+324171472+324048242+323938339+323865988
1776+323903468+323967602+323843228+323499549+323124179+322910054+322892118
1763+322876683+322751702+322659056+322696143+322876254+323168840+323404438
1749+323469608+323465571+323498585+323558788+323571151+323550857+323662832
1736+323789242+323526275+322968292+322522321+322227376+321979023+321769078
1722+321679362+321683400+321449624+320733039+319821088+319092927+318615014
1709+318250755+317794136+317253589+316794040+316216192+315314888+314219682
1695+312955619+311734967+310780677+310018073+309334896+308322938+306667891
1682+305003876+303887732+303035270+301977686+300817738+299978746+299317792
1668+298572660+298035865+297846482+297717786+297592662+297800213+298497700
1655+299229237+299442683+299521573+299984105+300556201+301002994+301624432
1641+302644536+303977663+305398684+306751069+308142148+309734276+311462282
1628+313187001+314901501+316601603+318257436+319935743+321646956+323265416
1614+324785192+326304397+327770758+329096704+330317284+331494846+332629248
1601+333681615+334637192+335517166+336332648+337072099+337739913+338304684
1587+338726217+339079436+339479996+339982098+340545440+340920703+340899087
1574+340800653+340892049+340888940+340648983+340473338+340673029+341222794
1560+341472683+340814516+339809419+339093335+338605095+338208823+337887475
1547+337651912+337477197+337200296+336385599+334946035+333681115+332836477
1533+331911091+330850578+329909864+328975082+327922036+326741829+325252137
1520+323508410+321727418+319892367+318083864+316460687+314937731+312877729
1506+309710266+306250181+303326748+300415142+296647482+291781186+286370538
1493+280680470+274006974+266251206+258653057+252146452+246599069+241614688
1479+237213478+233451053+229711780+224829245+218577068+212486154+207719739
1466+203814361+199801027+195510971+191800925+190410042+193065577+199095590
1452+206179329+212809717+218438992+222845918+225923451+227851183+229056864
1439+229986555+230795106+231344425+231559854+231510422+231364165+231349230
1425+231556960+231948319+232522398+233280642+234180285+235163910+236200610
1412+237337833+238613222+240012752+241531242+243124853+244659064+245852668
1398+246059326+244556789+241600717+238248695+234530485+229448938+223267683
1385+218172774+216272893+218492640+224567296+233137690+242682097+252284671
1371+261583368+270457334+278291474+284106595+287569306+289063947+289314998
1358+289020536+288538763+287871092+286891934+285601128+284348410+283793250
1344+284284240+285425752+286547987+287408757+288273778+289490410+291193477
1331+293330189+295779049+298483784+301453932+304635866+308002197+311567898
1317+315204092+318751356+322194756+325548010+328755669+331735446+334419708
1304+336805560+338939199+340853282+342584433+344202000+345778728+347255237
1290+348448127+349236312+349535008+349157994+347894646+345784802+343310235
1277+341315475+340739342+342266836+345932114+351020949+356590913+361994487
1263+366857192+370914991+374085777+376491994+378226574+379187975+379274261
1250+378661255+377527818+375625597+372672366+369241472+366453810+364707868
1236+364040197+365087776+368388223+373655776+380053050+386661733+392819621
1223+398225445+402861413+406815669+410200972+413153346+415747141+417964994
1209+419838632+421513009+423086915+424534304+425795722+426895931+427962304
1196+428999343+429880603+430559065+431095789+431548727+431939462+432266312
1182+432506627+432614886+432574190+432365675+431960256+431398307+430628915
1169+429487761+427956873+426114355+423977393+421655640+419438894+417488724
1155+415683901+413863999+411929264+409770757+407285114+404332598+400782618
1142+396789382+392698284+388728237+384994002+381483324+378112205+374917480
1128+371945420+369087158+366111489+362756698+358698292+353544394+346813517
1115+337869003+326135327+311254660+293024419+271561276+247866079+223985929
1101+202015826+183090830+167507710+155502778+147661144+144690236+147022065
1088+154307709+165054706+176900536+187188288+193322184+193001836+184877557
1074+170075102+153508751+141920474+138661044+140491530+139878811+130790460
1061+113087590+91782809+72726036+59289569+52302094+51896774+58709546+73918827
1045+98678210+133082514+175161633+220769678+265090311+304399338+336536126
1032+360500293+375880203+382786475+380327200+364835814+334617255+297559684
1018+270092754+265805377+285082752+317402794+352137093+384511015+413604462
1005+439093622+460463815+477270356+489383154+497180404+501402914+502690486
991+501358396+497546235+491158287+481790954+468780889+450916193+426063405
978+391497784+345982885+293463173+245168115+215887679+215523366+243683353
964+291550715+347477508+401708433+448389497+485311350+512838752+532701745
951+546813627+556726044+563677799+568644869+572274596+574929060+576832746
937+578109243+578802639+578990288+578754690+578100275+576978235+575312005
924+573103835+570362371+566909110+562580413+557321614+551016808+543696792
910+535764629+527977669+521497647+517281318+514794960+511838657+505771735
897+494497250+476548197+451307999+419897514+385549448+352594176+324920427
883+306545233+304120972+324536374+366613734+418711770+467097973+504139483
870+528805621+543136559+549342574+549115444+544607815+539792058+539803598
856+546896197+558032625+568366325+575643143+580208010+582879302+584189277
843+584543103+584278171+583623755+582571602+581152404+579669357+578158334
829+576430900+574603674+572654969+570342720+567717947+564846965+561604864
816+557853729+553371825+547958676+541703533+535194034+529767844+527097231
802+527923754+531268076+535146693+538169917+540007040+540644556+540233635
789+539223178+538063373+536830180+535264814+533305354+531045341+528468159
775+525732948+522988733+520269206+517950597+516352324+515081580+513326884
762+510504493+506606297+502396400+499419623+498998198+500934040+503756752
748+505989254+507062702+507371938+507291154+506739960+505863988+505009096
735+504192613+503203557+501979440+500727383+499626352+498696608+497875087
721+496945378+495833164+494776116+493963885+493207355+492283899+491228745
708+490200281+489312696+488594111+488035092+487567255+487080730+486485411
694+485758286+484956774+484264021+483856315+483654124+483448431+483221693
681+483068665+482987596+482781153+482050527+481345161+483013178+486690639
667+487236259+484757834+484283922+486095927+487793849+488801448+489588668
654+490568077+491946687+493473788+494751499+495856388+497195089+498972973
640+501097501+503385097+505644968+507728622+509652781+511623710+513794793
627+515992817+518267801+520727969+523416339+526362139+529365819+532119503
613+534830561+537976229+541428704+544743479+547997621+551433803+555112443
600+558996312+562871106+566609628+570313851+574120401+578006235+581895499
586+585855257+590131718+594899241+599730254+604087070+608201214+612499148
573+616699541+620567582+624674580+629385543+634252858+638847844+643423823
559+648239973+652817881+656788465+660703239+665168886+669866058+674157990
546+678042609+682056354+686454472+690986504+695564627+700279949+704959685
532+709350944+713598500+717987687+722470127+726907976+731298521+735825336
519+740367944+744645226+748955023+753359359+757608630+761815169+765840775
505+769390826+772550214+775267633+777484843+779550346+781622210+783439253
492+784630964+785084725+784961030+784476900+784513129+786362400+790299041
478+795301340+799734902+802234158+802417735+801076819+799766987+800426833
465+804884263+813512931+824977495+837622765+849990134+860458783+867990994
451+872529314+875158625+877197403+878315155+877379693+875045292+873366663
438+872887750+872908258+874647769+880609754+891267839+905408233+922224313
424+940474063+957351883+971859501+985078725+996500343+1006341873+1015861913
411+1025066964+1033806892+1041878328+1049707591+1058410862+1066972430
399+1073741823
##END=
