##TITLE=12
##JCAMP-DX=4.24
##DATA TYPE=INFRARED SPECTRUM
##DATE=16/11/2015
##SAMPLING PROCEDURE=Instrument type and / or accessory
##ORIGIN=Default
##XUNITS=1/CM
##YUNITS=TRANSMITTANCE
##RESOLUTION=4
##FIRSTX=3996.3359
##LASTX=399.24785
##DELTAX=-1.9287336
##MAXY=0.44153839
##MINY=0.010456186
##XFACTOR=1
##YFACTOR=4.1121467e-010
##NPOINTS=1866
##FIRSTY=0.056866087
##XYDATA=(X++(Y..Y))
3996+138288078+138399552+138492464+138530449+138623433+138817165+138969704
3983+138967793+138964568+139147166+139451891+139737239+139967235+140192384
3969+140423141+140566829+140628704+140689084+140735865+140781886+140854433
3956+140946212+141062306+141191337+141346059+141504478+141605769+141706381
3942+141817384+141812193+141762304+141912261+142243467+142495178+142539704
3929+142440270+142297007+142203833+142230395+142376737+142547622+142659232
3915+142763395+142914439+143073293+143144209+143047909+142959654+143141935
3902+143416466+143464752+143351366+143200331+143042809+143024663+143148965
3888+143156122+143022371+142976894+143133156+143457676+143675116+143520575
3875+143237057+143161865+143272198+143370626+143274453+143062576+142965316
3861+142928590+142745204+142435170+142299589+142544469+142783887+142606398
3848+142262709+142148970+142313885+142505669+142537947+142522002+142537086
3834+142468761+142371528+142350375+142327582+142254800+142156317+142100277
3821+142183794+142308956+142391314+142456966+142354117+142083544+141910359
3807+141948897+142045541+142062527+142063886+142057055+141972668+141876722
3794+141811179+141762385+141707251+141574923+141399056+141314135+141341638
3780+141378473+141328086+141189733+141069245+141063964+141114206+141051788
3767+140877932+140765516+140737152+140695670+140602686+140397059+140132403
3753+140108296+140413909+140602360+140382084+140174999+140302173+140302707
3740+139886988+139428772+139224921+139113628+138872707+138546584+138323581
3726+138287408+138268800+138088965+137784992+137415828+137010174+136641689
3713+136365781+136094158+135623857+134914519+134069464+133144788+132136514
3699+130999489+129708775+128305544+126856737+125467966+124259083+123241342
3686+122381394+121720296+121253401+120858808+120444828+120141154+120016942
3672+119769915+119288562+118791536+118326788+117834527+117412557+117150510
3659+116924799+116540162+115984994+115422905+114995064+114647634+114142726
3645+113404091+112575624+111757846+111001926+110309248+109578484+108807770
3632+108126923+107534458+106877002+106055801+105148709+104286079+103502211
3618+102779130+102037804+101146547+100123524+99134790+98231729+97279096
3605+96247059+95306013+94507768+93691014+92750747+91722207+90677279+89650333
3589+88618296+87589656+86573844+85537386+84510866+83545115+82638458+81741820
3574+80797902+79821815+78893225+78009742+77056502+76045274+75112576+74266520
3559+73394718+72498905+71674519+70864279+69942167+68889851+67769015+66713813
3543+65806006+64974757+64124625+63250753+62409100+61614248+60836925+60026182
3528+59120997+58192344+57396961+56714244+56011523+55292465+54608080+53932728
3512+53295574+52663076+51881826+51039607+50347142+49823038+49373355+48845460
3497+48153643+47386760+46677146+46093976+45570248+44972569+44286898+43576727
3481+42913337+42362314+41900202+41449963+40986823+40527126+40034385+39515784
3466+39081738+38684215+38163730+37548033+36968402+36447249+35947735+35518001
3451+35204053+34868463+34343743+33719127+33186813+32762027+32346632+31924236
3435+31616417+31434546+31181771+30835964+30577520+30389647+30149240+29900498
3420+29699628+29470296+29150179+28795577+28499087+28278907+28019656+27669698
3404+27380344+27192197+27001009+26768859+26543531+26437964+26426698+26353627
3389+26238978+26201846+26201040+26108660+25955086+25869329+25873048+25902583
3373+25836152+25602892+25427560+25512592+25668814+25748746+25833359+25933781
3358+26041122+26190094+26337427+26397512+26413687+26535677+26801739+27078205
3342+27221146+27253990+27300724+27433068+27676223+28006797+28340865+28586873
3327+28772626+29045997+29380931+29606574+29770734+30038570+30402020+30741811
3312+31021828+31297387+31598081+31946778+32364361+32818423+33286227+33723563
3296+34048457+34312724+34693212+35240802+35821080+36349369+36860890+37340375
3281+37752144+38161805+38640902+39170754+39699750+40245968+40884431+41590970
3265+42257933+42877599+43494184+44120757+44821343+45599749+46307438+46875054
3250+47411211+48061207+48843834+49610771+50304029+51058640+51944633+52894906
3234+53847344+54793758+55732725+56648859+57570069+58544259+59537482+60516794
3219+61525395+62560489+63590225+64632400+65714140+66832122+67898503+68880261
3204+69922984+71083309+72246755+73361847+74463305+75580567+76716663+77902824
3188+79207101+80561130+81811975+82951165+84031723+85088030+86214274+87427505
3173+88598683+89748879+91014174+92279975+93408919+94519590+95683367+96827539
3157+97924685+99015507+100184864+101430056+102572271+103572411+104645985
3144+105842293+106978113+107997141+108964377+109897351+110820542+111776119
3130+112772472+113777313+114726096+115622407+116538812+117459086+118312022
3117+119104677+119900894+120747769+121612373+122416181+123176450+123980086
3103+124814369+125610495+126367366+127070300+127683882+128241749+128794797
3090+129390415+130069414+130771242+131354058+131785604+132163075+132541778
3076+132954236+133419138+133873486+134269429+134570232+134747911+134903892
3063+135123479+135307617+135393209+135458408+135522194+135576006+135624609
3049+135576975+135406254+135192583+134932927+134604938+134228481+133751929
3036+133114576+132424117+131820174+131210388+130437980+129462979+128281202
3022+126950591+125498033+123880416+122143598+120297154+118229302+115872207
3009+113256516+110468971+107510569+104208188+100445362+96304006+91864020
2995+87063468+81737408+75754925+69306209+62719225+56085569+49479484+43231325
2980+37814315+33675316+31034071+29859526+30025801+31200272+32925945+35032768
2964+37728576+41340129+45860786+50751097+55312884+59003711+61414505+62362944
2949+61940752+60336194+57860010+55029475+52543227+51092712+50934665+51798879
2934+53187107+54764927+56547227+58602591+60894618+63410155+66060176+68593727
2918+70796136+72568308+73778051+74306213+74236557+73825535+73266027+72539078
2903+71604659+70708732+70123424+69675169+69036751+68077745+66727108+64980089
2887+62908065+60589168+58274950+56624426+56518618+58356610+61761551+66115718
2872+71009612+76206057+81485245+86673450+91779842+96761615+101382685+105605131
2856+109657146+113718364+117811753+121873624+125808249+129480772+132757461
2843+135641278+138291928+140764583+143015223+145148872+147291028+149481243
2829+151710594+153918139+156053673+158065856+159927456+161685328+163357554
2816+164921685+166412020+167863327+169315360+170858347+172496293+174170349
2802+175853718+177526451+179147800+180623296+181890937+182993337+183999419
2789+184904183+185676646+186351070+186949215+187464685+187895325+188296142
2775+188757474+189166807+189352811+189404539+189485873+189621218+189775605
2762+189903141+189974202+190039591+190110942+190122266+190103532+190157180
2748+190307672+190452674+190489201+190515328+190688776+191013731+191479919
2735+192108811+192822081+193517160+194172143+194785761+195373252+196023144
2721+196826444+197804407+198889993+199957298+200974233+201957540+202824292
2708+203538268+204203796+204898712+205599335+206309633+207087749+207909911
2694+208670959+209312824+209874605+210399696+210887754+211340498+211695330
2681+211891209+212079496+212446359+212977502+213648302+214456693+215256551
2667+215945506+216579345+217205030+217845137+218492999+219060053+219510859
2654+219941734+220446333+221010742+221534184+221961798+222372127+222842900
2640+223326174+223731683+224058124+224362659+224636519+224878202+225143402
2627+225400593+225620262+225866003+226145552+226417511+226628736+226761653
2613+226914627+227117500+227288194+227412033+227507753+227579194+227646958
2600+227711876+227739072+227720301+227718362+227764057+227796870+227801943
2586+227826367+227880722+227957617+228056344+228154999+228206438+228213377
2573+228273168+228427411+228580059+228651119+228658548+228659381+228694187
2559+228747002+228757004+228654326+228432538+228220842+228144835+228168008
2546+228197505+228234485+228353813+228583882+228870009+229161191+229464168
2532+229816789+230228658+230634766+230980702+231327344+231737220+232141045
2519+232445181+232661715+232896657+233227428+233588837+233909480+234215519
2505+234537520+234928426+235402025+235883215+236362268+236852825+237298558
2492+237691348+238064244+238403295+238725913+239085329+239491871+239938292
2478+240402197+240859707+241308410+241734756+242119520+242472305+242851253
2465+243297909+243801838+244339304+244861152+245353504+245824693+246234170
2451+246599457+246960920+247290296+247585790+247887716+248219175+248534328
2438+248764396+248919454+249048204+249172243+249252200+249253414+249223391
2424+249205853+249203624+249199566+249180251+249200327+249308603+249472883
2411+249685322+249974402+250322621+250699159+251084883+251463650+251843685
2397+252221056+252600276+252977538+253344709+253673143+253933016+254146071
2384+254348962+254507734+254519330+254353999+254102659+253797417+253317223
2370+252521497+251463523+250406238+249760133+249733626+250115436+250748930
2357+251822105+253107810+253915242+254190679+254551091+255262640+255863557
2343+255928494+255732452+255725168+255972612+256376292+256886870+257569773
2330+258413405+259144431+259554017+259815304+260239530+260920984+261697559
2316+262344769+262776333+263116217+263525731+264027812+264591133+265155451
2303+265601818+265885372+266105330+266353933+266634281+266922219+267203835
2289+267433269+267582384+267683811+267786525+267897645+267969576+267968162
2276+267928519+267884564+267825878+267743077+267628133+267485015+267337929
2262+267187872+267035514+266946262+267018573+267301203+267745957+268250430
2249+268721746+269005010+269250280+269503811+269753901+270030443+270309322
2235+270525747+270742209+270997099+271203904+271355591+271546995+271781394
2222+271972489+272106385+272223412+272337250+272444113+272533310+272601327
2208+272631802+272616764+272605168+272635987+272715165+272858102+273085271
2195+273389154+273730868+274078580+274377517+274597149+274809225+275037101
2181+275232763+275434258+275689131+275954729+276163817+276283688+276400462
2168+276614079+276849854+277011870+277110054+277224580+277425496+277623042
2154+277699900+277704847+277750179+277860140+277961422+277984089+277928392
2141+277872914+277906759+278042249+278241226+278497693+278846165+279251294
2127+279642400+280040933+280463166+280854290+281182850+281488744+281823990
2114+282171539+282493812+282793510+283078821+283344456+283598694+283865761
2100+284127989+284343599+284555857+284829935+285152353+285465948+285760771
2087+286041553+286289070+286500494+286678544+286811588+286910968+286998299
2073+287080448+287184231+287332748+287481863+287598020+287741718+287974250
2060+288291088+288676341+289136605+289659268+290185338+290673178+291113058
2046+291493383+291836565+292153112+292370462+292451723+292517765+292718807
2033+293057840+293446825+293847117+294290131+294826837+295436487+296011259
2019+296528379+297060137+297582511+298050475+298514942+298990117+299405718
2006+299722357+299990836+300273484+300588565+300936530+301276450+301557613
1992+301802864+302046304+302263907+302434329+302590909+302789832+303037837
1979+303262053+303411495+303546821+303757394+304057418+304367497+304593906
1965+304772663+304978525+305153368+305268855+305408983+305543386+305557156
1952+305452250+305254179+304953086+304559517+304022268+303317043+302574349
1938+301856604+301086170+300277253+299538980+298942936+298620935+298802156
1925+299591161+300887356+302517855+304302054+306048710+307659660+309169109
1911+310580248+311836800+312927605+313894080+314752968+315505899+316208280
1898+316903594+317540567+318081222+318566689+319015555+319447500+319889699
1884+320277797+320555915+320801783+321101825+321400743+321653858+321965677
1871+322364537+322716470+322988320+323266148+323552384+323811442+324065499
1857+324349705+324627425+324817089+324950405+325156050+325461998+325697104
1844+325693516+325576435+325547554+325629196+325821469+326168546+326590924
1830+326881363+326994640+327061605+327130963+327221519+327370380+327564792
1817+327771741+327947816+328042648+328061238+328078849+328159621+328315150
1803+328490174+328562213+328510467+328491588+328591783+328647515+328469737
1790+328181037+328012318+327967457+327949737+327907955+327810442+327695100
1776+327646506+327595122+327349943+326937313+326561826+326329366+326257979
1763+326250115+326190723+326097703+326036064+326146442+326495077+326825087
1749+326894807+326820557+326786495+326796242+326756019+326685285+326760223
1736+326864658+326591214+326025338+325560490+325239975+324963922+324680839
1722+324471280+324360504+324010129+323176281+322200275+321457672+320967422
1709+320569685+320086321+319535048+318998053+318230084+317133699+315944946
1695+314625197+313293054+312172681+311247153+310479075+309458787+307733076
1682+305832919+304415004+303372304+302321922+301241989+300340106+299467231
1668+298577052+298055331+297893424+297718798+297558722+297780165+298486913
1655+299238865+299546082+299744008+300260330+300831370+301289713+301929965
1641+302969929+304404568+306023055+307524206+308902695+310441678+312269216
1628+314254891+316216832+318038354+319720871+321398134+323121164+324761502
1614+326298564+327870523+329450345+330884748+332157570+333364514+334526669
1601+335591636+336548110+337425769+338231823+338950221+339597920+340184233
1587+340671077+341036888+341337546+341706547+342186614+342524197+342486982
1574+342388236+342476401+342434620+342125664+341892769+342046160+342555796
1560+342806846+342155595+341086424+340262976+339669995+339180470+338788241
1547+338540852+338376119+338021975+337049992+335484194+334145746+333234858
1533+332224536+331038537+329931861+328829280+327641360+326362051+324766249
1520+322879790+320965501+319032514+317145766+315465785+313865417+311587345
1506+308033263+304199032+301034551+297923483+293879386+288661321+282928112
1493+276989982+270058019+261955240+253961571+247059575+241115920+235774504
1479+231120232+227187274+223270332+218172520+211730969+205524342+200680623
1466+196680409+192541643+188123600+184328505+182943565+185679201+191788151
1452+198923856+205597251+211305855+215839314+219016188+220987659+222245389
1439+223246633+224083036+224620557+224851332+224837562+224677830+224580715
1425+224714773+225123000+225797859+226630457+227448905+228255702+229191539
1412+230329995+231636029+233060937+234577019+236149049+237690877+238920994
1398+239152892+237632988+234600971+231107821+227197964+221933208+215601889
1385+210360325+208379559+210688396+216973784+225764702+235552934+245455239
1371+255070584+264273643+272450817+278564296+282197702+283696389+283867337
1358+283514135+283002397+282301321+281275363+279945087+278675073+278096767
1344+278559278+279703495+280839125+281698556+282602378+283928903+285723230
1331+287866699+290327224+293118011+296206051+299531171+303042566+306672457
1317+310355905+314081643+317803357+321410745+324831874+327982821+330729653
1304+333069799+335132369+337029047+338828537+340537942+342149290+343647180
1290+344951601+345886116+346186339+345674673+344312418+342146391+339525265
1277+337280314+336503792+338026613+341859866+347197639+353065704+358748743
1263+363772234+367885743+371123115+373668470+375545108+376562932+376616852
1250+375922516+374696729+372680904+369518036+365788421+362705709+360693870
1236+359819291+360787869+364139749+369570471+376238720+383192987+389713969
1223+395438934+400347916+404578543+408199120+411278391+413953111+416277313
1209+418270707+420042367+421695786+423248756+424660330+425931630+427094256
1196+428076567+428891536+429614535+430255060+430806912+431220339+431435804
1182+431546580+431614815+431551907+431313033+430845287+430113337+429156718
1169+427938360+426367778+424383117+422052212+419580889+417153051+414927740
1155+412989644+411173702+409187700+406863572+404111883+400817765+396975091
1142+392774650+388450967+384171167+380066536+376223826+372656155+369295976
1128+366078244+362987161+359899629+356454184+352178950+346679197+339493666
1115+330038941+317838145+302518018+283840920+261966564+237888658+213651128
1101+191463721+172509120+157019913+145177445+137460227+134498401+136726792
1088+143757528+154128060+165625334+175664126+181666992+181329916+173191027
1074+158442231+142164670+130872306+127583750+129163164+128487581+119795761
1061+102968051+82899690+65139124+52717866+46316466+45974797+52204724+66274979
1045+89670680+122790672+163869672+208932245+253286168+293140333+326043819
1032+350747120+366711340+373902162+371353473+355471330+324643080+286958094
1018+259188822+255002187+274624091+307492028+342993828+376300504+406502434
1005+433218915+455610880+473071069+485730371+494093639+498621989+499819873
991+498186312+493920318+486880061+476724296+462860840+444083511+418250015
978+382644867+336040141+282570199+233813887+204526848+204226480+232506422
964+280861338+337705264+393178619+441363312+479922097+509015431+530134754
951+545120649+555733217+563295467+568630741+572481604+575421761+577561769
937+578866335+579479791+579685109+579544510+578867024+577600289+575743218
924+573316105+570366273+566634919+561790511+555853886+548977709+541199559
910+532836617+524695843+517767413+512895791+509871239+506666553+500330053
897+488502207+469772022+443520968+410805245+375176977+341347584+313076394
883+294195426+291544151+312326651+355534563+409260718+459332667+497905367
870+523764554+538837853+545360755+545015019+540097122+534986120+535075842
856+542495899+554103460+565060822+572831653+577468169+580008596+581296711
843+581693469+581386542+580587771+579452069+578025131+576375662+574657415
829+572841763+570743789+568329141+565695947+562902478+559887057+556405158
816+552169024+547107919+541220214+534583563+527795950+522177630+519365969
802+520107087+523480348+527629115+530909319+532605896+532975332+532553316
789+531566585+530097104+528402882+526637346+524610614+522251408+519640464
775+516753938+513761673+510897759+508375052+506527620+505168844+503493828
762+500748698+496620224+491896811+488490213+487913828+489986690+493036427
748+495397118+496590256+496888377+496546337+495730969+494655203+493510152
735+492423080+491453778+490431716+489198065+487845920+486596760+485642171
721+484593691+483378884+482177702+481123207+480182496+479235009+478239218
708+477265676+476382364+475622910+475009455+474450283+473825341+473196449
694+472705474+472269073+471705987+471088510+470614096+470256800+469930486
681+469745569+469765825+469740604+469326054+468908604+469733031+471532557
667+471980446+471240741+471439936+472699169+473982102+475008151+475967814
654+476985637+478062562+479142858+480288706+481653172+483229479+484968272
640+486953912+489157299+491368658+493493701+495564859+497608224+499764865
627+502136283+504688813+507224747+509897112+512937500+516085186+518967218
613+521721262+524682400+527937056+531400692+534927090+538392863+541956549
600+545737692+549549999+553351435+557239152+561230759+565264764+569349790
586+573604840+578021254+582492566+586928801+591342315+595831021+600307370
573+604565065+608748330+613145465+617731975+622302250+626609373+630664866
559+634771018+639169168+643835254+648581206+653354046+658010782+662509091
546+667091035+671603331+675809352+680183296+685127754+690081633+694504859
532+698752263+703310870+708035877+712574989+716944294+721375927+726145650
519+731108661+735803881+740127673+744161134+748065737+751981283+755813629
505+759369633+762577327+765506721+768104909+770350585+772327890+773725766
492+774052188+773608358+773324116+773669454+774580885+776357510+779687685
478+784328477+788880054+791688924+791985052+790786552+789456584+789336132
465+792932068+801616686+813918474+827684235+840978409+851851013+859729286
451+864692442+867123361+868044431+867736490+866120974+863825002+861991485
438+861677746+862957490+865656272+871039197+880742724+894575306+911168056
424+929028591+946088217+961567333+975751414+987458554+996944008+1006625431
411+1017435127+1027365498+1034884301+1043372876+1055584145+1066937903
399+1073741823
##END=
