##TITLE=12
##JCAMP-DX=4.24
##DATA TYPE=INFRARED SPECTRUM
##DATE=16/11/2015
##SAMPLING PROCEDURE=Instrument type and / or accessory
##ORIGIN=Default
##XUNITS=1/CM
##YUNITS=TRANSMITTANCE
##RESOLUTION=4
##FIRSTX=3996.3359
##LASTX=399.24785
##DELTAX=-1.9287336
##MAXY=0.45885092
##MINY=0.012251249
##XFACTOR=1
##YFACTOR=4.2733822e-010
##NPOINTS=1866
##FIRSTY=0.056730289
##XYDATA=(X++(Y..Y))
3996+132752668+132814405+132980141+133099604+133141169+133243547+133451501
3983+133687830+133879849+133940139+133862501+133873974+134104279+134381180
3969+134546636+134561378+134447118+134352002+134445506+134707290+134934300
3956+134993073+134996944+135100620+135261509+135379691+135453850+135527582
3942+135603241+135639680+135676171+135807089+135995002+136078829+136010763
3929+135934233+135958624+136085576+136234749+136309797+136371970+136469570
3915+136511832+136509435+136551183+136642899+136755458+136904178+137056733
3902+137079363+136965740+136865516+136836426+136827491+136835136+136878549
3888+136917672+136989983+137106344+137097513+136944888+136821493+136831387
3875+136952132+136989007+136814528+136607044+136548681+136659976+136825032
3861+136786815+136486238+136207376+136241679+136552979+136715506+136474452
3848+136122172+136016221+136146084+136267012+136327991+136492262+136704601
3834+136724119+136565105+136396388+136299877+136297201+136310538+136293278
3821+136392482+136585765+136614341+136423630+136147243+135869942+135675561
3807+135705348+135903260+136026769+136067374+136078724+135981150+135850703
3794+135811849+135824524+135826878+135818989+135769186+135638346+135504455
3780+135448402+135382586+135220154+135072864+135088032+135208952+135209205
3767+135021091+134839472+134765871+134726015+134701972+134701807+134721979
3753+134806520+134927335+134904417+134638326+134360659+134309601+134286412
3740+134113005+133957896+133917500+133829785+133583718+133252151+132910576
3726+132653019+132570701+132536345+132341615+132000023+131654961+131374600
3713+131159122+130930595+130563373+130066140+129498932+128838185+128042685
3699+127095694+126027861+124905169+123747286+122549232+121385089+120378671
3686+119558291+118904606+118464620+118225597+118031329+117821143+117657334
3672+117498947+117326263+117096629+116679674+116117339+115565596+115087061
3659+114648915+114233887+113884091+113597183+113311635+112948040+112434165
3645+111795657+111095386+110353785+109630396+108975900+108312233+107581251
3632+106859657+106270952+105857998+105386464+104615756+103658888+102785419
3618+102114743+101511410+100804714+100031409+99256891+98373833+97315459
3605+96234036+95292031+94474972+93631247+92711707+91883159+91240702+90588978
3589+89687927+88604412+87599720+86711109+85808306+84876151+84000799+83173219
3574+82278959+81324793+80454357+79690641+78886484+77942465+76934164+76012741
3559+75183600+74327243+73423481+72562596+71759207+70921436+70072371+69304884
3543+68560590+67736471+66815300+65867951+65003200+64264358+63620681+62960179
3528+62146102+61260202+60503669+59849347+59163451+58465804+57800037+57071225
3512+56248177+55476114+54844663+54297008+53712251+53048071+52357624+51645380
3497+50947366+50349992+49821506+49241601+48592013+47984762+47463507+46950469
3481+46431451+45978581+45516457+44897153+44214426+43575360+42900509+42271215
3466+41852922+41537936+41130731+40615021+40099259+39663039+39235310+38710595
3451+38213422+37908478+37648533+37190951+36570174+36013250+35602125+35266201
3435+34997380+34782997+34571937+34324839+33978777+33530374+33067470+32691651
3420+32427552+32200622+31979474+31762127+31484738+31149708+30812347+30498566
3404+30236319+30036708+29930131+29883978+29784499+29608085+29418925+29300763
3389+29282598+29309816+29306072+29198571+29019739+28870481+28783466+28796980
3373+28870085+28813143+28668741+28727204+28992138+29134371+29015897+28896034
3358+28998665+29190346+29261630+29271195+29403334+29652947+29882806+30050124
3342+30194179+30314868+30472407+30795392+31205174+31520366+31731463+31914747
3327+32092752+32243248+32429032+32749959+33150549+33505516+33781915+34027056
3312+34302771+34609899+34902125+35219844+35650583+36154972+36640493+37106352
3296+37567504+38019381+38484635+38966229+39456118+39929169+40335497+40729821
3281+41182103+41637598+42107040+42686317+43338080+43979949+44647852+45354543
3265+45984648+46492765+47016844+47647885+48323403+48999130+49689123+50404131
3250+51147771+51918466+52712070+53512186+54318657+55159218+56029723+56895996
3234+57711232+58475153+59310784+60280934+61264608+62161165+63008282+63938069
3219+65030816+66152401+67137366+68053707+69053251+70128411+71210915+72321568
3204+73452876+74532425+75602045+76744473+77888356+78961088+80017518+81097163
3188+82199587+83336217+84480510+85601502+86732954+87887377+89016729+90114889
3173+91225873+92401349+93639494+94815920+95848098+96826743+97848260+98940048
3157+100084472+101165633+102125039+103104398+104209358+105334735+106339828
3144+107237043+108156645+109191308+110301167+111369671+112312557+113141017
3130+113970054+114863651+115754590+116620596+117480048+118282966+119031384
3117+119822743+120696090+121558043+122326816+123058182+123796278+124492635
3103+125136364+125762773+126409911+127095650+127776368+128390310+128926476
3090+129437561+129957922+130449942+130859321+131188709+131559043+132047350
3076+132540198+132960561+133337573+133654364+133927926+134211539+134469609
3063+134671766+134813878+134842933+134790934+134795179+134870428+134875484
3049+134737783+134549783+134415021+134304815+134137039+133881183+133494574
3036+132933485+132272669+131643864+131022267+130258612+129347484+128371716
3022+127288532+126018063+124555731+122954610+121278423+119489999+117461567
3009+115180599+112717638+110010101+106944312+103489377+99684272+95594761
2995+91157851+86154980+80438832+74138441+67624574+61120557+54583144+48192167
2980+42549528+38219812+35414555+34144951+34310281+35563474+37416283+39632877
2964+42404779+46060232+50609924+55612986+60365149+64166871+66589968+67536872
2949+67099074+65476469+62989883+60154684+57695924+56247563+56022139+56822194
2934+58190612+59730424+61420276+63453154+65859351+68416252+70931997+73377087
2918+75654228+77529233+78770743+79337463+79363790+78930586+78168421+77300967
2903+76406943+75583677+74999462+74546251+73940896+73027706+71758819+70104817
2887+68044091+65661004+63312040+61703239+61607134+63334457+66597090+70834209
2872+75596597+80652348+85781744+90783508+95624069+100237262+104506605+108537500
2856+112494716+116403872+120274899+124054008+127590913+130827311+133790530
2843+136481104+138925305+141170138+143274308+145337662+147358205+149290196
2829+151231271+153204757+155101984+156940768+158721425+160305800+161686240
2816+162992825+164311598+165704137+167174384+168639330+170090486+171575343
2802+173067557+174541866+175960366+177207150+178263057+179268822+180264893
2789+181126942+181796144+182360702+182910162+183402661+183827270+184269976
2775+184644860+184808033+184833784+184885234+185032960+185212068+185297185
2762+185279035+185294448+185403764+185515330+185615859+185765869+185898792
2748+185958297+186032465+186175309+186343050+186495099+186665769+186964376
2735+187472567+188153590+188868576+189521599+190096182+190572519+191026732
2721+191643386+192497659+193476155+194463003+195456476+196399702+197169102
2708+197784936+198363965+198959644+199590071+200255856+200920037+201554805
2694+202137827+202664307+203173667+203655165+204037267+204327889+204618232
2681+204936174+205247264+205602412+206101886+206713570+207322779+207906969
2667+208520013+209194376+209873987+210456956+210936240+211406441+211907397
2654+212364015+212764581+213177526+213603930+214030997+214459162+214884154
2640+215269482+215548457+215766184+216015886+216313812+216641710+216950655
2627+217207331+217424796+217637990+217901954+218189890+218396964+218540592
2613+218694472+218820840+218910020+219009259+219118976+219241299+219363239
2600+219457596+219538110+219595209+219615277+219642475+219673021+219639947
2586+219584766+219629521+219752855+219828296+219856506+219915767+219998408
2573+220101919+220274384+220475478+220610302+220684156+220756057+220807089
2559+220789741+220718363+220627702+220550640+220506041+220482121+220488327
2546+220515003+220525272+220580000+220776247+221091695+221406621+221658346
2532+221909704+222232162+222616687+223013139+223393811+223760554+224079960
2519+224332678+224575651+224832902+225088200+225355634+225642856+225969672
2505+226367309+226798420+227200398+227564892+227896729+228212980+228557737
2492+228915814+229249970+229593908+230005283+230473671+230875091+231154624
2478+231435796+231787317+232175661+232592424+233022594+233443751+233854272
2465+234249712+234636278+235016549+235402888+235859281+236363130+236764725
2451+237047762+237324366+237612652+237887913+238131339+238309680+238451809
2438+238637246+238889092+239137591+239331589+239476612+239571109+239628261
2424+239636682+239588701+239557981+239570935+239603904+239677008+239788295
2411+239920103+240094225+240356794+240736612+241158762+241504687+241801550
2397+242125577+242505291+242898447+243263358+243596207+243880657+244061770
2384+244123385+244134596+244152658+244163189+244137350+244056191+243864443
2370+243483700+242954639+242396898+241966763+241848293+242186111+242831061
2357+243452753+243949002+244307044+244566701+245029370+245815438+246481502
2343+246638014+246506033+246389934+246375097+246601855+247123052+247798182
2330+248406763+248846662+249266197+249804028+250370713+250838420+251223765
2316+251584179+251909339+252221981+252604571+253071965+253549837+253980234
2303+254382979+254773415+255131928+255441885+255694376+255888200+256067116
2289+256294362+256567776+256785537+256892256+256955352+257014369+257023157
2276+256979517+256944229+256951220+256981958+256970311+256863105+256706487
2262+256603099+256574872+256567619+256600414+256776244+257132107+257627117
2249+258191588+258614837+258882636+259073914+259292129+259534177+259773418
2235+260029571+260267905+260450919+260644376+260896972+261163255+261372630
2222+261499172+261591420+261706281+261826337+261931958+262052851+262169246
2208+262242037+262283044+262311567+262364499+262499236+262727720+262986924
2195+263226025+263480313+263757893+263998302+264221120+264481021+264734140
2181+264960183+265207218+265448673+265652277+265866848+266087835+266274022
2168+266444308+266581224+266670403+266810597+267037128+267245841+267382791
2154+267462347+267504678+267582508+267728455+267853498+267895603+267914415
2141+267972491+268030793+268077065+268215376+268498936+268855775+269201160
2127+269507665+269802139+270123830+270485376+270853479+271184026+271497470
2114+271829935+272163290+272479035+272755552+272958389+273127001+273342252
2100+273602450+273851019+274080252+274300943+274524754+274775694+275037635
2087+275271750+275506859+275765627+275985882+276119520+276195240+276281071
2073+276411781+276540973+276628008+276703971+276804466+276959165+277221473
2060+277593777+277996086+278375939+278752497+279159880+279611582+280071601
2046+280464182+280750148+280958233+281131170+281300166+281505322+281759539
2033+282047058+282396644+282829133+283285787+283739947+284212850+284671073
2019+285109281+285576744+286056918+286499571+286895831+287275353+287667323
2006+288049582+288412646+288781445+289122035+289397314+289637811+289862337
1992+290064197+290254691+290450536+290654995+290881561+291161338+291472428
1979+291735660+291925159+292104494+292334006+292601004+292873894+293153445
1965+293438051+293688939+293849863+293935328+294043390+294198943+294304285
1952+294282177+294134051+293896449+293592629+293198740+292702614+292181504
1938+291697931+291193087+290620509+290049447+289593578+289402998+289632249
1925+290313899+291387625+292770924+294314606+295846607+297302836+298682596
1911+299923504+300977825+301909055+302784494+303576943+304248883+304822769
1898+305364156+305925140+306511195+307083860+307555299+307901032+308192682
1884+308472407+308755479+309048001+309332085+309613379+309956706+310407118
1871+310881381+311233007+311449967+311656988+311927159+312249529+312567332
1857+312837886+313075663+313281150+313461775+313682117+313962783+314161192
1844+314156345+314112758+314194213+314346524+314531543+314841709+315282497
1830+315630845+315772103+315870156+316024803+316197966+316362168+316521488
1817+316677774+316802572+316876287+316934240+317027098+317172087+317362754
1803+317549830+317649383+317663889+317723133+317892565+317998638+317864355
1790+317658171+317595300+317613258+317607086+317564580+317483857+317439677
1776+317526433+317600531+317418232+317072255+316826075+316748559+316769934
1763+316732345+316587775+316482957+316507575+316708982+317046765+317292562
1749+317346017+317355467+317416802+317500838+317545472+317567544+317677907
1736+317717135+317365509+316845079+316528810+316347453+316148242+315922217
1722+315807809+315810459+315562326+314867234+314080991+313483987+313047592
1709+312689620+312302601+311909759+311604265+311106953+310201526+309100550
1695+307898591+306807518+305994530+305325416+304707210+303779885+302218524
1682+300628779+299559743+298774652+297873932+296881540+296062625+295321992
1668+294601200+294202988+294083490+293910327+293740999+293959319+294696081
1655+295455473+295639237+295655103+296080653+296627375+297032491+297586536
1641+298551520+299908092+301406164+302729156+303893316+305237858+306890020
1628+308669212+310405166+312034174+313585562+315187895+316832630+318350299
1614+319744600+321154522+322579891+323948458+325220784+326380062+327437172
1601+328444245+329452816+330420067+331241423+331894672+332459074+332995963
1587+333510919+333976429+334386776+334838269+335370206+335733444+335724343
1574+335679117+335836415+335886627+335706385+335610982+335876584+336455422
1560+336711226+336049503+335088494+334497766+334129159+333758772+333403764
1547+333180702+333103396+332960953+332277298+330966859+329815496+329039645
1533+328133660+327061870+326117179+325232012+324289065+323233524+321842571
1520+320181901+318518511+316860770+315272768+313898413+312627587+310774540
1506+307737702+304353108+301518933+298763389+295208805+290553018+285358425
1493+279965493+273664884+266275260+258976384+252657957+247189723+242272082
1479+237997422+234392172+230798709+226065790+220006986+214134560+209554999
1466+205789558+201877507+197646521+193975507+192634383+195292536+201218173
1452+208162442+214684769+220222620+224522300+227469941+229287142+230467691
1439+231437888+232256577+232799568+233093920+233171244+233056941+232943841
1425+233052879+233476842+234176573+234957846+235693824+236518580+237548195
1412+238762254+240111328+241575124+243148567+244785247+246343156+247502504
1398+247662609+246220223+243414118+240182358+236522502+231529613+225535038
1385+220606605+218709466+220830713+226816239+235231643+244442949+253617501
1371+262566621+271212811+278898305+284618106+287992762+289390863+289607962
1358+289336867+288828763+288097005+287146300+285991397+284855517+284319029
1344+284787695+285922756+287033915+287887142+288759251+289941526+291539657
1331+293557654+295950100+298633952+301543656+304670946+308009686+311449792
1317+314865420+318239902+321589696+324908386+328109774+331013794+333530969
1304+335769186+337850838+339762779+341468048+343009219+344458335+345811977
1290+347000790+347915667+348351922+348049288+346840389+344843750+342523798
1277+340615413+340022454+341487331+345070717+350045718+355461542+360662430
1263+365320012+369265381+372411675+374768763+376396377+377308568+377439713
1250+376863701+375776324+373996643+371202533+367932137+365273461+363583675
1236+362920453+363944960+367165352+372274114+378488455+384967073+391017178
1223+396236302+400645508+404471936+407795856+410630834+413087230+415254557
1209+417151435+418775318+420155182+421422243+422665453+423832925+424871729
1196+425787303+426645830+427450972+428116426+428593897+428922892+429168828
1182+429378116+429538517+429606269+429562682+429303530+428720055+427866200
1169+426794306+425455204+423791326+421808285+419620803+417473875+415579334
1155+413905588+412292480+410584561+408602497+406199660+403311506+399940198
1142+396198050+392340239+388592826+385028060+381668956+378524929+375555459
1128+372714449+369960404+367143419+363966998+360089067+355110404+348523585
1115+339832379+328608516+314390948+296755695+275765174+252503571+228972791
1101+207236250+188516967+173092507+161142760+153319025+150434568+152937830
1088+160351985+171015109+182597764+192700932+198887708+198683441+190456769
1074+175400481+158722489+147186785+144016876+145993030+145544727+136433986
1061+118431860+96662977+77114022+63264665+56035586+55616229+62667421+78380185
1045+103819027+138806565+181086964+226453123+270230235+308837040+340290707
1032+363793486+378869546+385427807+382670310+367238544+337477279+300980649
1018+273867477+269467198+288140732+319719215+353798920+385489282+413863465
1005+438733486+459535885+475769899+487473325+495077050+499195198+500493467
991+499310268+495677750+489517283+480509320+467985375+450717753+426607508
978+392968905+348495376+296997935+249573765+220741325+220190924+247701680
964+294720873+349637882+402694487+448180110+484089568+510831291+530019152
951+543584621+553164831+559881575+564620683+568127390+570744746+572568815
937+573799367+574614412+574974302+574780148+574078081+572978778+571444616
924+569353479+566682041+563395640+559340467+554371079+548360133+541331864
910+533764125+526479005+520427994+516375366+513998332+511314411+505612131
897+494823128+477611961+453332040+422988625+389708029+357693518+330674477
883+312585778+310093500+330090583+371360563+422270030+469292849+505111646
870+528884562+542721491+548787950+548511468+543923625+539135665+539112511
856+545877514+556628858+566795262+574012421+578430832+580986225+582348026
843+582832088+582689471+582116736+581167826+579913179+578531711+577118999
829+575576816+573791557+571793836+569669747+567357153+564712983+561609613
816+557880018+553465722+548390086+542609211+536524516+531446962+528953917
802+529751353+533033360+537035845+540245637+541932634+542185474+541631778
789+540736673+539580637+538209106+536661937+534894984+532980567+530903623
775+528455490+525708314+523061598+520936359+519471413+518255053+516613073
762+514061516+510412436+506200697+503048440+502529370+504544281+507454403
748+509702593+510877179+511297220+511188914+510720649+510165070+509508473
735+508524171+507239396+505899284+504700672+503674596+502778200+502086106
721+501313045+500307158+499204682+498226726+497342430+496479579+495686154
708+494905142+494063840+493277319+492669714+492174041+491652669+491046634
694+490437355+489914519+489497896+489225389+489111958+489070497+488980568
681+488812252+488690313+488652898+488449572+488302980+489337948+491289676
667+491802888+490997014+491073762+492184677+493267486+494093131+494967559
654+496065153+497275236+498430923+499642123+501140126+502917540+504745480
640+506439415+508027731+509722957+511755547+514058169+516304266+518436061
627+520628146+523042350+525551157+528140198+531003629+534098769+537092125
613+539996458+542919028+545759480+548819995+552453036+556263947+559797260
600+563145101+566586393+570390121+574544045+578628579+582366751+586038672
586+590069471+594527913+599047027+603314592+607514440+611683253+615664747
573+619714237+624056283+628500149+632863815+637171340+641408150+645675017
559+650103750+654545802+658776335+662895564+667308117+671952345+676546918
546+681095462+685371535+689274154+693248115+697720644+702503583+707002892
532+711120029+715194137+719305624+723441800+727627212+731864091+736363958
519+741040823+745597667+750101509+754488328+758567596+762315533+765808850
505+769319254+773037412+776592100+779304266+781091827+782530831+783913066
492+784909782+785272078+785135459+784966410+785646370+787898814+791806941
478+796806212+801552887+804285766+804072991+801875641+799924471+800560285
465+805265116+813714118+824616273+836932953+849129054+859254451+867157602
451+873590436+878358033+880741866+880705392+879630289+878829890+878443882
438+878472336+879093923+880858749+885352409+894209735+907180431+922910298
424+940565462+957862025+972026312+983885083+995537076+1006549490+1015885855
411+1023029823+1027989133+1032882888+1041578279+1054373511+1066139737
399+1073741823
##END=
