##TITLE=павел 4-многокр
##JCAMP-DX=4.24
##DATA TYPE=INFRARED SPECTRUM
##DATE=3/2/2015
##SAMPLING PROCEDURE=Instrument type and / or accessory
##ORIGIN=Default
##XUNITS=1/CM
##YUNITS=TRANSMITTANCE
##RESOLUTION=4
##FIRSTX=3996.3347
##LASTX=399.24773
##DELTAX=-1.928733
##MAXY=0.61554575
##MINY=0.20145796
##XFACTOR=1
##YFACTOR=5.7327165e-010
##NPOINTS=1866
##FIRSTY=0.48459214
##XYDATA=(X++(Y..Y))
3996+845309789+845832356+845958787+846610280+847285895+846717372+845954576
3983+846541918+847434732+847143452+845603668+844340710+845163603+846933583
3969+847106022+846380604+846300805+846158154+846169591+846833042+846478131
3956+844897485+844280302+844944896+845506037+845199889+844147217+844774069
3942+847573016+848048639+845337133+842160765+839468494+839130167+841673653
3929+843392219+843078273+843453875+844811915+844597107+843055867+842326914
3915+841763641+840922033+841017117+839952851+836254956+834232841+837404583
3902+843091633+846972729+846678486+842392936+838090335+838393312+839860160
3888+837745561+837200536+837935779+835521740+836181915+838330148+836127173
3875+834586504+834423215+834405072+836355497+837754347+839578341+841356744
3861+838977067+833884636+827958292+826635290+838225188+846845986+841241750
3848+833352608+829501612+829077247+829112286+828488969+830258638+833766939
3834+834774643+833756802+832512040+831871775+832737920+831858883+829797206
3821+831264938+831260519+831337979+835223182+834638907+829554326+826493576
3807+827917015+828528063+827388781+831705263+835061452+831766867+829129181
3794+828267923+826635238+824978796+823668115+822732880+822071042+821398494
3780+822574062+825375868+826186544+825042531+824434031+825312133+825503859
3767+823932102+822605618+821154002+819997772+820415327+819248597+815071334
3753+812562419+817191599+821681508+816621153+813267927+819770488+820806629
3740+813012569+807166752+808658242+812684951+813317522+811369592+810244710
3726+811439409+812816321+812197319+809801734+806185405+801136591+795132683
3713+793358388+797550518+799420884+796361225+792119500+790211288+789871453
3699+786706885+781691759+776740523+770243992+763517265+760991767+760837315
3686+757773238+752877575+748509367+743860277+739180670+739621410+742144310
3672+739730010+738914656+740403130+736731435+729868816+724864243+721777395
3659+718153528+715360767+712293778+705420762+700731953+703743733+705533780
3645+700997344+695386297+691694276+688641011+685332598+682224955+677480470
3632+671105431+669515687+672349361+669047758+660748651+653160718+648586072
3618+646686073+644785035+642572078+639630688+635354756+632461818+630765762
3605+626787659+620927286+617335546+617113720+616566876+614659235+611893507
3591+606556377+599736906+595334075+593180487+590523723+587203092+583322776
3578+579058021+575409252+572123609+568461064+565024868+562885524+561745774
3564+559667618+555759282+551549580+547977595+543514304+539041187+536924925
3551+535068959+532079690+529860963+527453265+523923130+520951120+518206343
3537+514994884+512028124+508840943+504941756+501649458+500165870+499001739
3524+495731224+491377624+488177706+485251184+481530778+478009116+476006600
3510+475526194+474324789+471571382+469140446+467477922+466049024+464426373
3497+461876024+458922522+456292167+453771555+451448699+449193893+446555428
3483+444658913+443952366+442437586+440235963+438433751+436008222+433352731
3470+431376027+429148618+426380941+423516647+420855204+419370394+419086731
3456+418127998+415628908+412400891+409102849+406583329+405331990+404951372
3443+405337189+404764403+401704224+398673314+397046296+395434796+394018972
3429+393431942+393241750+392499670+390680459+388267640+386017981+384613959
3416+384076680+383837958+383500853+382679468+381372686+380440050+380338131
3402+380271068+378901695+376368294+375040666+375410029+375931738+376560410
3389+376767940+376000101+375337924+374939734+374576011+374938279+375693641
3375+375516575+374808599+375178794+376437228+377168937+377161762+377212891
3362+377837975+379076109+380060757+379804386+379556619+381008781+383073498
3348+384136178+384560907+384947582+384843843+384452203+385419306+388162056
3335+390721320+392027426+393485280+395658389+397146577+397960346+399337622
3321+401324178+403240578+404580293+405223157+405515632+406714048+409399743
3308+411858933+413168860+414258885+415479317+416656523+417746184+419119534
3294+421551847+425024902+428829500+432146569+434074536+435107064+436737955
3281+439026551+441166415+442698558+443952262+446100183+448699139+450393323
3267+452010620+454477062+457494040+460553283+462850717+464483090+465965222
3254+467420789+469555454+472622131+475636405+477958273+480515744+484098698
3240+487966121+491311445+493904058+496135470+498789635+501935851+505134937
3227+508370986+511725460+514578733+517076679+520365025+523754642+526531079
3213+530211247+534575037+537629289+539905097+543060151+546904960+550481884
3200+553612920+556610663+559691584+562822412+565783713+568874096+572572407
3186+576560803+580493729+584352627+587691556+589892088+591706777+595220745
3173+600489565+605078456+608005913+610560108+613845180+617808986+621402857
3159+623777232+626122805+629901384+633909898+636391313+638055553+640470477
3146+643607907+646780012+649967714+652942011+655300633+657847239+661499958
3132+665377571+668315529+670409905+672313647+674737668+677492531+679742345
3119+681651338+683838561+686349659+689016613+691891252+694975657+697499180
3105+698673708+699210728+700200861+701994287+705020415+708873958+712048246
3092+713681243+713922304+713812092+714268377+715135822+716410476+718290460
3078+720324323+722034779+723207332+724068903+725527225+727704103+729304036
3065+729550503+729248982+729488172+730508093+731914169+733111623+733776425
3051+734080909+734413674+734956828+735309296+735160459+734954333+734925948
3038+734526225+733359598+731834473+730485011+729093803+727509986+726127564
3024+724273729+721288775+718326123+716109787+713986351+711340660+707925206
3011+703457912+697562499+690513769+682926512+674713234+665248749+653944620
2997+640367076+624356204+605980472+584319615+558053233+527958781+495907458
2984+463082836+431120670+402107612+377666524+359861784+351417973+354696495
2970+371492127+401739003+441471835+484589917+526099904+562956433+593851527
2957+617543700+633042817+641660653+645006809+643638839+638489587+630749646
2943+621769933+613240579+606170274+600346447+595936078+594244752+595720750
2930+598723224+601181972+603327138+606761359+611434935+616156911+619640259
2916+621061567+621583718+622679435+623570482+623147365+622073794+621007917
2903+619294861+616515981+613591279+611846875+611095048+609717357+607248628
2889+605054698+604593631+606227147+609374819+613543919+618910318+625587762
2876+633103174+641214350+649956277+659116278+668251482+676611621+683996859
2862+690666661+696752551+703149009+710447845+717788115+724217428+729768794
2849+735085338+740194612+744588190+748226821+751503731+754746174+757736639
2835+760353686+763157624+766673463+770619802+773493349+774696210+775605400
2822+776959282+778892188+781230275+782843049+783677691+784671306+785956774
2808+787326251+789016849+791376667+794177849+796578269+798106253+799408044
2795+800756207+801408896+801466289+801642887+802098495+802901321+804168853
2781+805780743+807155939+807623557+807614615+807923726+808065545+807739434
2768+807995311+809439285+811396729+812756225+813086286+812910624+812749778
2754+813011842+813842168+814494597+814330372+813309724+811854937+811179010
2741+811432131+811139968+810111313+809562077+809657316+809487217+808767309
2727+807943117+807108475+806604103+807188326+808349910+808955240+809260192
2714+810118851+811197465+811764480+812244159+813143263+814195260+815348318
2700+816472316+817310440+818543297+820621661+822620382+823715423+824136305
2687+824620350+825294665+825512436+825350655+825381951+825301632+824402735
2673+822612168+820527878+818649245+817056643+815653374+814551938+814028851
2660+813943906+814284780+815200832+816436549+818165460+820497985+822776185
2646+824740958+826420483+827527897+828221135+829209552+830434144+830855649
2633+830429205+830165114+830296640+830486962+830390267+829880749+829686060
2619+830415117+831312350+831330285+830778138+830585268+830635123+830198489
2606+829153459+828040119+827500448+827727888+828137385+827976695+827507882
2592+827490830+827868408+828429185+829097054+829132561+828542203+828604899
2579+829337855+829405801+828647579+828072766+828197065+829024949+830243925
2565+831112722+831598119+832157700+832523841+832720765+833182352+833377665
2552+832669610+831722158+831597183+831976164+831637421+830515294+829406685
2538+828711731+828613216+828655014+828039703+826953291+826123744+826150985
2525+826922411+827378592+827161029+826871724+826695387+826602695+826980584
2511+827985897+829001451+829463194+829488407+829363744+829437409+829950098
2498+830379766+830564941+831112514+831603370+831316353+830805171+830985459
2484+831766399+832101815+831703495+831232343+830910235+830913926+831598483
2471+832480796+832775611+832491505+832121882+832420284+833512986+834270479
2457+834408711+834845657+835733168+836403065+836194495+835303709+834893588
2444+835138184+834987371+834326157+833568195+832553525+831461395+830643129
2430+829976871+829326054+828593410+827610815+826821350+826696322+826462748
2417+825532243+824518405+824033372+824080835+824086450+823768657+823720830
2403+824289457+824918856+825035721+824687516+824358079+824622793+825317435
2390+825622180+825099041+823851471+822204127+820243512+818033259+816102016
2376+814982594+814528285+813771883+812605048+812580615+814307810+815464092
2363+814613074+815815571+820615839+824615411+828140244+833067254+832694148
2349+824415368+815266439+813347778+817920916+820644743+820433782+819551521
2336+819771216+821559755+823333063+824024534+823986636+823439583+823320170
2322+824262008+825007493+824614683+823300156+822296403+822744265+823900131
2309+824625861+824576162+823798601+823037936+822387795+821196734+820076740
2295+819927071+820485041+821004489+821132791+821192731+821091202+820422553
2282+819790399+819654350+819538681+819289406+818897948+818342214+818134632
2268+818153607+817641125+816867308+816583150+816524666+816089384+815606638
2255+815563022+815858876+816242588+816495345+816696377+816871259+816615330
2241+815781105+814788320+814089104+813545066+812940672+812538038+812394139
2228+812207404+811767339+811198141+810900570+810774088+810272731+809690327
2214+809525582+809175246+808332807+807542926+806919661+806542344+806596669
2201+806536937+805855707+804829548+804077045+804013414+804239451+804236123
2187+804323097+804697243+804927075+804688249+804209818+803874454+803676698
2174+803789197+804330895+804701090+804659501+804612193+804623006+804329179
2160+803607400+802886297+802533777+802544434+802628444+802293184+801696536
2147+801320259+800881962+800208582+799785621+799765710+799731555+799426603
2133+799000158+798717820+798788054+798988721+798875079+798653669+798719484
2120+798765752+798682626+798876847+798954410+798362078+797661197+797543812
2106+797867427+798082339+798006335+797570897+796573070+795530379+795266132
2093+795745759+796419658+796786890+796507619+795928751+795624994+795300443
2079+794799346+794688771+794921930+795049401+795091406+795130500+795169542
2066+795362047+795441118+794959309+794437209+794506455+794940334+795421935
2052+795905513+796381448+796567352+796293383+796089597+796289692+796579100
2039+796768435+796826764+796917532+797356245+797621168+797164675+796735839
2025+796954546+797281696+797042403+796471541+796280595+796451786+796524723
2012+796376665+796240409+796326031+796527634+796884416+797414262+797757112
1998+797826514+797592003+796933336+796393561+796421998+796664774+796741714
1985+796571406+796253146+795845728+795457442+795156337+794795863+794578612
1971+794695010+794953850+795308917+795553773+795392615+795321030+795829301
1958+796190294+795911439+795744511+795980425+795927607+795250120+794475367
1944+794364012+794869892+795025591+794465958+793612705+792950866+792807488
1931+792798494+792181364+790660762+789342179+789514566+790213731+790975436
1917+792250402+792575265+791557839+790654368+790536619+790699232+790494302
1904+790218358+790112930+789647547+789138965+789607154+790629258+791323745
1890+792299997+793205340+792937714+792502380+792670660+792919415+793100275
1877+793153873+792768342+791889876+791650479+793178723+794632418+794121080
1863+792972753+792538770+792596839+792642067+792619869+792636453+792447690
1850+791732825+790375981+789931601+791681879+792304156+790624164+789444852
1836+789120042+788228163+787319961+787866910+788589832+788335671+788406060
1823+788238664+787155008+786195287+785701989+785227041+784822639+784802312
1809+784607103+783895254+782789087+781566159+781283354+781725394+780884514
1796+778512531+777465837+779176137+779730884+777749163+776226170+775557625
1782+774221471+772682466+770944561+767864159+764927812+764883156+765578214
1769+764518887+762821636+760735890+759951675+760672934+760241187+759816199
1755+759280219+757523703+757429036+759198340+759587510+758729995+757594144
1742+756381198+755224865+752526095+750252055+752983368+755184575+753082714
1728+750883274+749003602+746935739+744288436+740774625+739552269+741634687
1715+741773231+738772005+735025762+731691043+729525238+726968704+722256189
1701+719629005+720103329+718597959+716761852+713813600+708734894+703972005
1688+698937539+695082021+695122206+693596926+688555286+683335489+680347519
1674+678681771+675489027+672627540+671512848+669043703+666010349+664961368
1661+664034970+661138809+656603932+654290434+660072308+663496755+660214595
1647+660333072+664373662+665106566+663523372+662163512+663298947+669715783
1634+675451389+676259361+677102165+680119403+683632331+688389761+693606127
1620+695584521+697491018+703759277+708823375+710159893+711742774+714614554
1607+717333650+719199546+720597928+722034312+723666788+725384990+726946973
1593+728256822+729428491+730370953+731108120+731921291+732713251+732930970
1580+732123466+732772308+736858438+738263734+735915613+735530394+736763615
1566+736318663+734350979+730782529+729941025+736523178+739719457+737812908
1553+736375380+735585551+734402445+732464548+730381298+728825241+730536061
1539+735441549+734997221+731073133+729941441+729908066+728022000+726618159
1526+726038511+724824941+724641585+724817663+723424584+721729515+719438215
1512+715946498+711949108+710400486+713950272+714202614+708589280+702944390
1499+699720870+698275181+695491310+689637746+683170744+678166066+673293746
1485+667336106+660817793+653884576+645635532+635299339+623277850+610472303
1472+597778215+587327080+582357493+585692212+594400244+600775906+603945620
1458+609851586+620070758+627202459+631775701+637410974+643987408+649287264
1445+651314889+650699890+648210470+644633650+642168404+639927323+635577466
1431+630608607+626324461+621997322+617611646+613355936+609046057+605737331
1418+603531965+600815520+597889986+595949542+595469032+596180362+598031701
1404+600821602+603236526+605432795+607591166+608070428+605974961+600011291
1391+588853608+572194466+550536417+527597008+509625574+503091404+510614667
1377+527563529+546056542+559433836+566268850+571866276+581895646+598001289
1364+619070592+640327722+655721879+664392949+668291876+668264011+664493854
1350+657324463+647388305+636649737+628070943+624293612+626756883+633821678
1337+641178531+646029797+648128851+647835440+645207216+640401439+634137599
1323+627252002+620261340+613579010+607503933+602427098+598760602+596285842
1310+594810728+594724483+596284698+599531352+604473178+610678949+617386961
1296+624375647+631827428+639483203+646955051+654127872+660979782+667560479
1283+673599062+678661081+682950945+687014305+691220472+695698735+700371272
1269+704988651+709090741+712484204+715409166+718063279+720386343+722282131
1256+724049044+725960116+727729940+729086473+730078477+730814345+731568667
1242+732617025+733733640+734622763+735435622+736180068+736575736+736748071
1229+736940057+736960175+736849184+736902055+736905590+736624811+736308162
1215+736130005+735882394+735417999+734870634+734321086+733711442+732973339
1202+731967767+730426422+728259837+725816841+723351491+720655477+717544663
1188+714177921+710828958+707307920+702484051+695174557+684976179+671001458
1175+651639180+626268679+595846765+563225359+533793941+513685139+506238400
1161+510987981+525019939+543839895+562927737+579551008+592575782+601492539
1148+606003606+606022217+601336476+591194087+575047063+553653001+529492951
1134+507024695+491678469+487262745+494635974+511937200+534620733+556394347
1121+571908281+579025010+578764246+573680861+566929545+561761422+560046755
1107+561780033+566001588+571498784+577323183+582317516+585389183+587185261
1094+589683311+594785099+603722963+616457132+631517485+647043220+662046855
1080+676080320+688576652+699195652+707779592+713974446+717663244+719196895
1067+718326902+713822230+704355509+688607688+665204716+634707682+602235476
1053+576335078+564058025+567532847+584771637+611773627+643518179+674797296
1040+701771369+723106479+739427761+751877877+761120693+767789507+772963140
1026+777120492+780090162+782146224+783693027+784610378+784970540+785442317
1013+786281065+787055246+787583168+787975353+787879594+787073597+786104519
999+785282094+784432273+783449990+782294021+780947417+779411740+777564507
986+775140798+772246196+769081213+765316670+760813038+755815898+750057782
972+742651385+732871550+720050459+702506457+677139231+639984508+588880745
959+528119783+469925025+429358539+416378630+431702137+468738020+518060989
945+570782464+619890469+660831361+692131897+715083939+732440947+746680850
932+758638395+768026097+774739047+779108399+781950235+784301371+786534862
918+788668592+790814122+792667437+793933617+794571126+794476927+793890520
905+793130323+791980437+790210352+787908915+784805275+780442266+774688360
891+767143108+757065547+744398336+730623762+719018997+714255900+719557628
878+733076428+749286148+763391926+773197755+778896191+782014022+783726194
864+784293261+784033953+783497506+782851211+782069752+781074212+779632214
851+778026458+776912182+775947471+774330278+772298182+770336164+768199731
837+765536833+762273803+758617964+754631232+749331428+740927309+726999375
824+703724602+669216973+632357065+612427927+622120321+655080107+693328624
810+722660332+739747893+748032964+751846685+754047841+755506423+756261525
797+756661561+756881047+756583113+755783978+754932077+754051896+753104340
783+752304477+751450341+750133890+748549553+747373153+746867637+746593617
770+746061432+745092042+743863604+742807136+742138903+741645189+740919199
756+739916381+738847489+737711691+736797042+736486891+736218226+735307268
743+734315108+733835066+733398744+732700723+731989913+731334676+730688434
729+730272075+730177511+729848489+729054553+728616464+728917725+729154523
716+728956559+728435655+727424728+726439794+726318146+726645764+726566069
702+726294804+726203672+725860926+725267605+725089188+725311689+725457875
689+725728620+726319549+726537320+726254515+726470206+727408092+728129923
675+728374987+727554798+725083573+725596523+732353973+734223248+732710860
662+732349607+732895672+733600867+734214670+734674750+735248783+735882601
648+736859998+738319879+739822182+741057430+742462623+744190858+745604212
635+746727378+748121757+749951574+751814714+753384495+755134720+757288101
621+759020963+760366994+762556193+765025651+766546824+767849707+769636167
608+771709748+773978746+776273321+778319662+780217996+782378603+784921517
594+787330670+789285774+791579725+794571178+797115392+798609481+800115318
581+802639362+805442312+807544953+809426704+811495035+813651898+816276119
567+819466368+822602654+825259835+827781590+830372332+832485890+834304010
554+836828365+839934656+842623392+844710697+846950791+849917914+853026752
540+855235498+856799976+858807898+861346497+863666026+865628980+868201371
527+871631224+874583635+876818114+879258875+881888867+884221600+886173065
513+887863974+889176838+890386769+892047527+893646628+894507107+894830462
500+894825055+894412179+893787511+893234272+892627903+892079342+892924537
486+896785046+903572805+911288105+917956918+923668455+929194608+934392207
473+939235883+943471526+947197702+950840284+954414244+957832453+960109457
459+961957365+965038702+968523558+971931265+974464562+974789997+974676043
446+976359362+978402323+978900977+979058807+980024298+980991557+981028363
432+981423044+984479844+989184404+992889578+996184891+1001122870+1008795957
419+1019565353+1029836615+1036916122+1042566938+1049177631+1057676989
407+1065032232+1068484440+1068644142+1068351978+1073741823
##END=
