##TITLE=павел 4-многокр
##JCAMP-DX=4.24
##DATA TYPE=INFRARED SPECTRUM
##DATE=3/2/2015
##SAMPLING PROCEDURE=Instrument type and / or accessory
##ORIGIN=Default
##XUNITS=1/CM
##YUNITS=TRANSMITTANCE
##RESOLUTION=4
##FIRSTX=3996.3347
##LASTX=399.24773
##DELTAX=-1.928733
##MAXY=0.62397796
##MINY=0.16430877
##XFACTOR=1
##YFACTOR=5.8112476e-010
##NPOINTS=1866
##FIRSTY=0.56793934
##XYDATA=(X++(Y..Y))
3996+977310520+978676619+980715153+981526874+981045831+979947638+979340437
3983+979645987+979679013+978603283+977238517+977971056+982021558+986092778
3969+986585206+984889762+983724490+983961113+986283144+989808294+991262397
3956+989060576+984954995+981489847+981391279+984368410+985344342+984272612
3942+985736458+987738990+986245502+982617168+979994614+979906509+981380817
3929+982190897+981776831+981468205+981625851+981075986+981069934+983336168
3915+984759398+983742234+983040876+981793242+977836077+974102919+974481804
3902+978530152+983068261+984825862+982651631+979957075+980965623+981845244
3888+978841958+979341360+982417982+979385670+976998919+978271169+976432745
3875+972093720+967333347+966039250+969486141+970772648+971539649+975058748
3861+976080835+971234818+961120307+954931062+968941301+985244646+982271208
3848+973452845+968699036+967917675+967022054+964412833+964934288+967889059
3834+967939727+967251395+967059798+965364867+963554444+960263251+956935646
3821+959061875+960211454+961192822+966817226+967069337+959938419+954093289
3807+956091514+958268206+955191687+956240955+958005633+955450158+955091478
3794+954885830+951938957+949641747+948793820+948085077+947157044+946289116
3780+947013552+949499076+951698538+951612484+949216194+948780691+950735222
3767+950755633+949226963+946517637+943798464+944052422+943383065+936876271
3753+929720633+932189541+938324835+934922458+933005878+941304940+942358516
3740+932568426+923103682+921148946+926182560+930319321+927771744+922032670
3726+918975639+917125727+914158648+912420125+910662832+905328285+897604627
3713+893936703+894831914+892530397+886684960+879814973+873153200+867039855
3699+859488666+850035152+838181810+822912707+807867458+800222880+798013930
3686+792630561+784690947+777337508+769558464+761844140+760957698+763092389
3672+758484585+755006155+754549113+749512730+742753260+738014016+733458214
3659+727442976+722589061+717890280+709144945+701979256+703585672+705968679
3645+700927988+692795906+686684459+682419283+677997435+673502455+668294220
3632+661624446+659250773+662654585+660540818+652704336+645442490+641771796
3618+640236562+635146126+627580423+622121461+618717443+617006921+615749698
3605+611671348+605485797+600829222+598431650+596191571+592513749+586403276
3591+578758955+573453229+573145629+573756112+570936422+565398688+558966974
3578+553458420+549683518+546399094+541527948+535346242+531567442+531160300
3564+529550858+525112547+520296377+516473114+512904527+508855358+505054044
3551+501957217+498372218+494149608+490040642+485835673+481516854+478098682
3537+476862279+476701966+474578557+470260354+466063795+462888247+460099431
3524+457602471+455403111+452800455+449426746+445679998+441922686+438364048
3510+435509434+433749064+432602459+431147588+428723810+425339587+422356944
3497+420649883+418534168+415324516+413411833+413232827+412088684+408964214
3483+405070513+401525336+398759392+396819888+395737132+394750097+393143732
3470+391044607+388848760+387281756+385519463+382005595+378352697+376950699
3456+376781206+376083720+374520228+372044346+369786574+368306086+366628437
3443+365074844+363774439+361995504+360138285+358857547+357600631+355283780
3429+352483501+350975397+351234047+351845735+351226406+349631657+347987086
3416+346618756+345563744+344226466+342618666+341284772+339992676+339078951
3402+339388500+340725214+341592117+340630852+338958177+338427774+338639525
3389+338737041+338727041+338502905+338204843+337769084+336968030+336626249
3375+337152703+337654619+337608976+337726749+338972281+341064739+342804877
3362+343442438+343201968+342746568+342635923+343100119+344104128+345996247
3348+348465975+350442686+351180917+350127521+348764267+349352109+351802708
3335+355278574+358818033+361282145+362602243+363201444+363594022+364791962
3321+367405157+370808072+373793305+375390028+375918098+376537479+377577285
3308+379362681+382053264+384630201+387038799+390305658+393979941+396889377
3294+398921552+400732257+402999747+405290828+406967913+408643023+410452754
3281+411892420+413399320+415715017+418819537+422192271+425844246+429855465
3267+433374076+435963758+438201734+440344117+442579119+445535788+449068220
3254+452018684+454364202+457544110+461536815+465164225+468632040+472405250
3240+476222974+480174704+484188025+487524297+490270548+493603435+497899740
3227+502313486+506259984+510080632+514226419+518331898+521854945+525399635
3213+529701940+534255640+538589793+543039129+547501133+551408553+555092837
3200+559285037+563854993+568668547+573902476+578636130+582121023+585686277
3186+589896579+593760562+597824654+602736776+607616897+611921665+615998937
3173+620294217+624958074+630333238+636300116+641447169+644876008+647584309
3159+651395162+656532215+661312076+665070106+668961064+673526661+677970972
3146+682142350+686508094+690715576+694316216+697029440+699384498+702968522
3132+707388370+710472223+712435369+715464861+719413821+722543829+725166690
3119+728212542+731300753+734115263+737140447+740337329+743086144+745691415
3105+748509515+751532801+754883227+757978567+760129259+761424689+762631552
3092+764393204+766524254+768513350+770387570+772733550+775176508+776836977
3078+778225949+780072117+782127728+783827480+784939776+785940068+787123238
3065+788035732+788721602+789625121+790616951+791406774+792185314+792911391
3051+792672972+791854687+791694425+791543599+790734647+789372086+787330630
3038+785226145+783696142+782724313+781888386+780145709+777324533+773980722
3024+769512359+764002319+758768954+753704673+747658357+739990855+730696681
3011+720013278+708121165+694882903+679554823+661881481+642915939+623629822
2997+603421775+580887030+555268331+526595779+495182978+460702529+422594491
2984+382701953+346556395+318797978+299210415+286866927+282742679+289290859
2970+310780926+348603108+398597130+454202094+508322416+555389207+593194080
2957+621689856+641574764+653590060+658835989+658815475+653907404+644202856
2943+631389942+618519795+608544982+602011007+597593108+595423851+597048114
2930+602311787+609201620+615885241+621404256+625911544+629564186+632122532
2916+634237069+636353092+637429079+636234113+633073233+629209147+625633329
2903+622962465+620735412+618157834+615289835+612322089+609461937+606964413
2889+605141784+604541250+605845450+610556796+619596244+631047212+642627006
2876+654289520+666633495+679507950+692504460+705447276+718492198+731978572
2862+745359609+757556245+768945878+780175249+790640952+799839072+807911818
2849+815650092+823549653+830447845+835796752+840780005+845721205+849920738
2835+853215829+856126239+859509333+863787330+868217846+871759714+874288111
2822+876358031+878567852+880814598+882803387+885195061+888393328+891735907
2808+894587495+897535804+901308348+904700775+906921572+909308323+912352020
2795+914801235+915937890+916524167+917383787+918530700+919833925+921404032
2781+923217532+924823025+926029221+926991306+927653073+928367868+929729865
2768+931469926+932763305+933367429+933950424+934924407+935620842+935512838
2754+935264932+935525762+935870594+935764334+935010051+933846728+933405687
2741+934156893+934736606+933801188+931799476+929848843+928078729+926371284
2727+925415969+925869215+926947818+927517992+928145706+929855715+932632326
2714+935788950+938146675+939140761+939599752+940436089+941822189+943563481
2700+945742328+948676585+951908802+954787365+957510846+960207249+962491535
2687+963958458+964569044+965089267+966332593+967422581+966520908+963726142
2673+960460488+957088267+953723225+950533779+947368231+944872348+943793541
2660+944052729+945171641+946727388+949626670+954647257+959959035+963947689
2646+967244728+970238885+972725434+975013208+977198618+979237357+981204093
2633+982740968+983412786+983110006+982445470+982123818+981569644+980614636
2619+980392782+980922852+981115372+980421604+979050273+977991159+977786229
2606+977724073+977511552+977361291+977097794+977054203+977537092+977825615
2592+977854846+978461945+979197458+979089967+978660926+978761443+979208946
2579+979544650+979728246+979902816+980487760+981972325+984134248+986555154
2565+988802310+990202154+991197061+992750860+994360763+994936988+994361173
2552+993195286+991959447+991127315+990534474+989269711+987445339+986215962
2538+985910310+985876976+985741587+985394702+984457541+983211036+982374288
2525+982319209+983066620+983640589+983322424+982875742+983113596+984081733
2511+985456653+987168201+989223966+991102186+992451054+993697765+995081506
2498+996124312+996696332+997162195+997753190+998592399+999633052+1000827760
2484+1001771076+1001784512+1001406242+1001490348+1001594967+1001602967
2473+1002148730+1002982913+1003643552+1004278549+1005267712+1007077007
2461+1009487143+1011600859+1013066039+1014407727+1015962141+1017147824
2449+1017544043+1017470297+1017189159+1016708834+1016122147+1015452380
2438+1014260953+1012319756+1010028906+1007754056+1005699933+1003732581
2426+1001648097+999558177+997530516+995715785+994048854+992621419+991912676
2413+991502713+991146188+991396350+991976268+992487568+993210466+994255118
2399+995530445+996851107+998072586+999210062+999832238+999853367+999774390
2386+998986567+997051935+994985913+993082974+991021158+989486232+987851302
2372+984499491+982072944+984094554+988496248+990484318+988202391+987795505
2359+994623028+1003142817+1009972083+1016681756+1016762580+1007450456+996457452
2345+993756126+1000280254+1005054679+1005356536+1004970881+1005328022
2334+1006579246+1007559485+1006969824+1006050919+1005375921+1004467171
2322+1004603484+1006074920+1006090408+1003809917+1002095087+1002529769
2311+1003408364+1003057480+1001997135+1001421115+1001251878+1000400258
2299+998837639+997818731+997651648+997733395+997755242+997618929+997609493
2286+997671239+997204966+996498582+996167083+996080926+995991179+995654347
2272+995008991+994406098+993958800+993598890+993267391+992635471+991482815
2259+990282875+989656289+989660802+990036713+990298260+990302158+990521243
2245+990772021+990321953+989406126+988787438+988343525+987780018+987281231
2232+986513819+985147514+983841827+983007541+981951299+980208468+978379275
2218+977396779+977415959+977598837+977305699+976400846+974940179+973436126
2205+972463579+972063565+971376669+969879488+968774218+968963661+969650352
2191+969889539+969724200+969792716+970027698+969865744+969564195+969719380
2178+970508946+971609600+972641021+973586491+973961888+973488846+973137039
2164+973413459+973724239+973662083+973265248+972603994+971741502+971144968
2151+971230510+971347745+970918294+970346068+969665737+968749191+968120451
2137+967956548+967903521+967833467+967737566+967592228+967523199+967590176
2124+967856442+968312663+968452053+968003216+967474993+967382374+967532225
2110+967376528+967026772+967026361+967459095+968109271+968683548+968803347
2097+968326510+967410785+966501112+966133202+965905296+964972340+963894866
2083+963601317+963707065+963771887+964006562+964460219+965154193+965911143
2070+966191665+966161100+966431366+966847996+967103492+967490480+968071321
2056+968485387+968799860+969210746+969479063+969598657+969953131+970552948
2043+971280358+972290445+973210272+973286070+972831079+972884107+973532950
2029+974168050+974691863+975287166+975632204+975279166+974792790+975071261
2016+975860930+976393872+976264124+975636512+975233626+975343476+975758978
2002+976234892+976365563+976238584+976064322+975639384+975206753+974855458
1989+974192871+973212016+972138542+971417491+971344463+971574112+971635755
1975+971463646+971441287+971792786+972249315+972573737+972980110+973530591
1962+973783318+973719213+973615620+973198374+972361832+971669602+971383336
1948+970953987+969822665+968658624+968456361+968342716+967280114+965697494
1935+964076411+962578204+960969327+959051413+957373302+956782205+957174013
1921+957217194+957367456+958651501+959099004+957837216+956665175+956455219
1908+956478707+956110489+955784221+955825453+955897866+956241365+957549822
1894+959240240+960152067+961180822+962991450+964184312+964580839+965134807
1881+966206743+967286268+967708847+967360014+965813293+964237750+965245068
1867+967581253+968349690+968013678+967806799+967849775+967648537+966982155
1854+966228692+965710623+965286505+964145952+963216381+964424834+965157475
1840+963517622+961954182+961409137+960208890+958384928+958260513+959070593
1827+959003514+959264651+959160032+957832806+956650097+955941867+954931062
1813+953420240+952320816+952049217+951535250+950026376+948269699+947386796
1800+946952011+945399546+942280564+939968175+940814359+941404738+938958191
1786+935897262+933378301+930533483+927693382+924109256+918107710+911659278
1773+908928002+908660505+907687548+906315397+904120755+903017229+904065266
1759+904442202+905042018+905290130+903294367+902563674+904345173+904910014
1746+903811308+902320281+901055518+900125127+896836395+892651632+894017629
1732+896351865+893904804+890601406+887620787+884561397+880481971+874631406
1719+871211798+872732672+872978322+869438504+864285194+858560735+853689384
1705+848955165+841798707+836328001+835029391+832238472+829281753+825570493
1691+818986415+811659079+803182164+796163557+795594870+794389084+787623307
1678+779269422+773529117+770087046+765476627+761903219+760846053+757933694
1664+754192382+753325993+752879567+749434419+743396206+740077627+747474248
1651+752915773+749795407+750124495+755809465+758671874+758829469+758302322
1637+759665396+768213955+778176819+782199987+785061319+789886566+795033107
1624+801553286+809018729+812693115+816129596+825351819+833264611+835937629
1610+838235094+841697832+845171698+848365863+851312326+853798772+855716276
1597+857336025+859290351+861538635+863436856+864636386+865242356+865707193
1583+866270495+866285367+864526844+863760047+867764394+869637896+866515427
1570+865453235+866982110+866546197+863791536+858176260+854689727+861418734
1556+866395628+864501920+861786952+859826011+858200056+855390623+851310428
1543+847367981+847235464+852124867+852066301+847317005+845501915+845390937
1529+842476988+839105433+836527752+833358768+831675940+831135510+828944459
1516+826278775+822776959+817196556+809916043+804254817+805375729+805536504
1502+798639286+789780716+782894524+778220616+771918137+761862910+750966115
1489+742102417+734195471+725321670+715361267+704159692+690961534+674958712
1475+656060096+635710505+617651867+605721959+601496938+606810613+618886372
1462+629002063+634992788+643444266+657769182+669754990+678475400+687454025
1448+696818715+704673505+708555950+708108601+703811680+697325964+692105933
1435+687774242+681425351+674528030+668592692+662388678+655732853+649046874
1421+642318944+637033321+633240931+628591023+623692952+620489865+619324234
1408+619679272+621781398+625241058+627590834+628196342+627689914+625089668
1394+619633783+610168834+594461715+570639540+539648087+508013174+484480548
1381+477263268+489720528+515370614+542904150+563311897+575030823+585482834
1367+602746161+628964164+662458527+696311005+720971517+734468352+739759719
1354+738778966+732319302+721052340+705978936+689335066+675191746+668854804
1340+673373682+685589036+698141274+706217098+709129509+707685714+702787438
1327+695380254+686339319+676205730+665542123+655316018+646248877+638724458
1313+633248880+630133436+629352845+630736586+634263121+640015683+647824523
1300+657422862+668480278+680371006+692430509+704472883+716522129+728272492
1286+739369808+749628683+758724235+766155677+771924906+776935955+781941362
1273+787068826+792513941+798022187+802988106+807500368+811784519+815699222
1259+818940310+821209621+822553925+823452829+824730771+827110548+830427485
1246+833430258+835209244+836461698+837985906+839528114+840904368+842130309
1232+843110959+844189561+845595560+847140435+848648334+849529237+849479030
1219+849233175+849339794+849557546+849338205+848459045+847194590+845535557
1205+843458356+841248432+838544028+834826718+830226914+824819544+818460191
1192+811391377+804270151+797361138+790031700+781297955+770250078+755834492
1178+736879976+712234388+680628810+641328242+595738273+548701073+507878349
1165+480858318+471892257+479959619+499990122+526073915+552915581+576410564
1151+594524999+606804356+613040474+612686820+605121784+589891656+566720017
1138+536675982+503890311+474977392+456297501+452171561+464203422+489928177
1124+522558765+553256259+574624860+583751439+582394366+574654759+565266171
1111+558347414+555872916+558015094+564323163+573053728+581391151+587127199
1097+589459846+589764575+591104007+596506300+608296409+626826191+649562123
1084+673436607+696875896+718753592+737788572+753367687+765643197+774839009
1070+780341357+781339803+778231642+770644246+755478838+729192320+690580392
1057+642912452+595108610+558980462+543685255+551803849+580402141+624048606
1043+675856744+728157976+774630899+812594291+842286058+864718645+881085377
1030+892536551+900808843+907861400+913724068+917681439+920121012+921565679
1016+922635563+923879607+924932772+925366018+925308785+924911541+924054792
1003+922759157+921234385+919419347+917255475+914749233+911607789+907641495
989+903022255+897691297+891583902+885004080+877606895+868466470+857196687
976+844034992+829090720+811734876+791109430+766138650+734631332+692804522
962+635772302+561737739+478738858+404456183+356373408+343429694+365135974
949+414503436+481911688+557410406+631188089+694828029+744246339+781578324
935+812072991+838733727+861176777+878402103+890464170+898373680+903804539
922+908174129+912125961+915785167+918713681+920353944+920874988+920654467
908+919446219+917324606+914940624+912046060+908009097+903049332+896935886
895+888277324+876069200+860209819+840473071+817085527+792731282+773169873
881+766000440+776164799+800503864+829391192+854045807+870748704+880269553
868+885232601+887551759+887984595+886934097+884818945+882458451+880456022
854+878423950+875733393+872416763+869073466+865746476+861933931+857681474
841+853144031+848071493+842089692+835023443+827067315+818085357+807033480
827+791620935+767660499+729141908+674311099+618247888+590053405+607300938
814+659701404+720220413+766774211+793365869+805393575+810345597+813186723
800+815544755+817157940+817790218+817366921+815893946+813717459+811338144
787+809153606+806999376+804701089+802481370+800240727+797694739+794991259
773+792796720+791221536+789392856+786929590+784280830+781853565+779834621
760+778112612+776212596+773962670+771720386+769693340+767856198+766157626
746+764301868+762118919+760066436+758404429+756685291+754632347+752643610
733+751116428+749765559+748441513+747292446+745836856+743848838+741964156
719+740624672+739599252+738562343+737400764+735951789+734300398+732897579
706+731889133+731130645+730498930+729698902+728591940+727555698+726790697
692+726039337+725184845+724269531+723478990+723164004+723016512+722338078
679+721386352+721016031+721281220+720398830+717534370+717521754+723510683
665+725041301+723544684+723123080+723397961+723737768+724121474+724581080
652+725233154+725835740+726439761+727135734+727980123+729209910+730923253
638+732436947+733237899+734052799+735493722+737272144+738728759+739880082
625+741478959+743830837+746370414+748538901+750561946+752290828+753538923
611+755035745+757160333+759823453+762673041+765066972+766919396+768708946
598+770689683+773009406+775817915+778599039+781131795+783774555+786261413
584+788410976+790513870+792792720+795360760+798216809+801201581+803930088
571+806472485+809220634+812109351+815105252+818034637+820429132+822230170
557+823847304+826153283+829518479+833135478+836503444+839739250+842595710
544+845256317+848257756+850749383+852458417+854704856+857302127+859545539
530+861710539+863882000+866108335+868358569+871018970+874099592+876588808
517+878413078+879813332+880793162+882079156+883893784+885205215+885112289
503+883988146+882057719+879082640+876004172+873185714+869588869+865877455
490+864159138+865350770+869729386+877724951+888323171+898763027+907582416
476+915108015+922148469+928753933+933090804+936159425+940582248+944555516
463+946558254+948121591+950011196+952183478+954437506+955981458+956385575
449+956093565+954809622+951866852+948152567+945177692+943839389+943510659
436+941589258+937803791+936660263+939767347+943353423+946426352+951469914
422+958597961+968513593+983673308+999142162+1009595660+1017372037+1026281993
409+1037037757+1046785486+1053742553+1058391845+1063658492+1073741823
##END=
