##TITLE=павел 4-многокр
##JCAMP-DX=4.24
##DATA TYPE=INFRARED SPECTRUM
##DATE=3/2/2015
##SAMPLING PROCEDURE=Instrument type and / or accessory
##ORIGIN=Default
##XUNITS=1/CM
##YUNITS=TRANSMITTANCE
##RESOLUTION=4
##FIRSTX=3996.3347
##LASTX=399.24773
##DELTAX=-1.928733
##MAXY=0.62449235
##MINY=0.21732627
##XFACTOR=1
##YFACTOR=5.8160382e-010
##NPOINTS=1866
##FIRSTY=0.43828815
##XYDATA=(X++(Y..Y))
3996+753585407+753353180+754619207+756721035+758781768+759755308+760254248
3983+760143361+758633270+757156743+756362293+755879136+756265702+757031560
3969+756756443+755475813+753860369+752916243+754025521+756031374+757075217
3956+756743428+754960117+753956089+756308643+759318319+758300866+755419806
3942+755373432+756352044+755601611+754216345+753577003+754030235+754246680
3929+752961335+751442790+751611016+752947654+753260586+752902612+753563117
3915+754081682+754023676+754921840+754697965+751362135+748934871+750800937
3902+754399944+757436881+757951449+754006203+749805569+750534173+751680961
3888+748555786+747175541+748565931+747623086+747867611+749340705+748120898
3875+746531844+746435510+749395226+752194197+749442419+747744170+751088505
3861+752937969+750058549+743759211+740626042+750169230+759093164+755817287
3848+750917512+749513850+749069534+747705328+747707019+750904240+752960259
3834+751058580+747965072+744886783+741553618+739969125+739993772+741612700
3821+745536014+746506377+746824434+748984217+746188218+740121825+737891482
3807+741937930+744435754+741703551+741993117+744350386+744272447+744406752
3794+743548967+741341478+739866283+738409586+737131979+737351293+738269901
3780+740464016+743691367+743737382+740338526+738092144+739232578+740055774
3767+738739684+737850847+736080911+733881774+735316949+737107793+733921230
3753+728896630+729403871+732378447+730120383+731784608+741374887+741758175
3740+732911001+727014218+727971514+731890934+734517426+733181865+729952925
3726+728437352+726992953+725061861+724971625+725756646+724874983+721525933
3713+720005031+723251546+724977415+721884829+717614660+715970214+716047743
3699+714972079+712912524+709285335+702741524+696039376+695498162+699030554
3686+697820125+692438217+686789085+681834327+679339834+682038577+683202581
3672+678950961+677900252+678677075+674623658+669518506+666985479+665653453
3659+663563052+661225563+657919607+652879584+651101141+655301109+656592654
3645+650949568+644319825+640369557+637697767+634375466+631053215+627550441
3632+623755486+624628797+629208824+627578880+621774997+617753094+616336571
3618+614665479+610726484+606489776+602820978+599597522+597994940+596721176
3605+594030837+591385181+589948212+587966801+584562513+581881295+579559588
3591+574587665+569111114+567819774+567941883+565465171+562132877+559197091
3578+556248904+553307584+550573997+547549768+543888246+541794924+541741428
3564+539917277+536275176+532685701+528707148+525049675+523236336+522745698
3551+521447594+518778059+516479309+514562155+511677200+508380263+506050614
3537+504661300+502471131+498793827+495392511+493839889+492894789+490793319
3524+488407150+486690146+485014750+482809464+480132551+477041810+473858014
3510+471687368+470549036+469597479+468781815+467735461+465799552+462991716
3497+459901386+457188193+454925978+452591768+449804173+447271761+445904942
3483+445376180+444646038+443008099+440698639+438166279+435529026+433271269
3470+431562002+430196362+429118008+427788031+426056295+424049238+421907159
3456+420656709+420109321+419258735+418500974+417523361+415494628+413062112
3443+410781885+408335380+405722108+403721431+402604363+401347432+399729913
3429+398893752+399078299+399410652+399139635+398112471+397144902+396765765
3416+396168877+395081401+394276985+394231405+394500398+394014628+392669484
3402+391007923+389205909+388050154+388208670+388913063+388846065+388092864
3389+387600637+387121810+386339991+385317823+384151436+383798176+384972762
3375+387471329+389890241+390652050+390407833+390389821+390505422+389830980
3362+388070190+387382579+389190434+391173331+391642013+391911800+393130249
3348+394912509+396549807+397702718+397772970+396993816+397244387+398788938
3335+400313811+401628748+402630010+403340270+404638937+406405313+407318925
3321+407204170+407364172+409020634+412074763+414680732+416074171+417462332
3308+418775117+419947243+422082021+424508234+426090345+427358012+428674101
3294+429894036+431017406+432071498+433819042+436279408+437878096+438571139
3281+439846389+442146881+445020768+447484260+448563306+448953869+450344157
3267+452883077+455348004+457417602+459466242+460656687+460477598+461236383
3254+464546028+468425685+471380431+473864471+475661258+476262374+476392784
3240+477487305+480045850+483399307+486850789+489864821+492402818+495212191
3227+498102372+499807591+500746440+502574024+505058781+507217437+509903318
3213+513420850+516085260+517738161+519538587+521264559+523332824+526811669
3200+530521716+533161121+535576702+538540568+541570998+544131542+546425424
3186+548825069+551220256+553379834+555461423+558016176+561147142+564556964
3173+568065529+571242305+574199407+577094200+579239482+580812138+582609797
3159+585164653+588678957+591792295+593380991+594495598+596036690+597945440
3146+600149855+602397005+604758885+607173288+608817068+610149965+612382767
3132+614719692+615998068+617101813+619696842+623517674+626501832+628061012
3119+628898864+629350405+630175036+631854019+634123972+636529612+638245130
3105+638906916+639550613+641356060+643738642+645543833+646804428+648038839
3092+649440348+650781137+652063356+653485311+654513884+654479501+654042871
3078+654752209+656760573+658766631+659836351+660181258+660868613+662295026
3065+663639145+664137316+664147770+664689035+665668365+666141786+665834541
3051+665271345+665507671+666579697+667194494+667176867+667562563+668693209
3038+669250359+667607143+664804892+663703607+664978653+666153367+665073757
3024+662693020+660843556+659858436+659240821+657958807+655103470+651455271
3011+648304014+645436943+641997708+637674299+632528000+626294047+618237020
2997+607934994+595787041+582501472+567325600+548402326+525440904+499767828
2984+472779071+445736869+420507904+399102690+382865886+373667195+374433667
2970+387239819+411207011+442540622+476408105+508922194+537739611+561205813
2957+578512671+590390068+597850592+600916122+600031487+596809311+592040254
2943+585772532+578983632+572866152+567765202+563655265+561095541+561246960
2930+563809913+566686463+569285438+572166806+574510137+576151559+578536396
2916+581774559+584222422+585379970+585928256+585808606+584828149+583062056
2903+580843191+579087909+577926159+576517425+574796833+573535060+573252206
2889+573839537+574685742+575525745+576980085+579776084+583758839+588128878
2876+592881129+598406103+604071735+609489665+615104261+620795001+626538624
2862+632519648+638012442+642870660+647598315+651783064+655328472+659154837
2849+663649855+667845314+670766752+672872066+675232255+677996535+680380654
2835+682183847+683775001+685070492+686501158+688660378+690789928+692152084
2822+693317780+694747831+695909068+696595347+697613877+698977109+699520885
2808+699649707+701152367+703846754+705728295+706170664+706701527+708322402
2795+709879481+710128259+709705209+709868464+710680234+711293494+711419702
2781+711824255+712746655+713305957+713414385+713875098+714667088+715213734
2768+715539170+715868551+715999268+715926454+715975697+716179946+716335823
2754+716209513+715975748+716157092+716536998+716517885+716226115+716203466
2741+716484578+716462851+715931373+715243864+714532118+713813557+713163301
2727+712867227+713465011+714819993+715729020+715516880+714969465+714780076
2714+715028188+715832938+716932071+717861747+718414747+718522457+718523020
2700+718903541+719666067+720667431+721696824+722309879+722681944+723319851
2687+724118400+724790895+725092350+725096552+724958199+724245890+723217880
2673+722617995+721990541+720782776+719448957+718538495+717854317+716881495
2660+715974518+716212126+717893261+719956351+721346587+722161176+722956599
2646+723799268+724451727+725137596+725996201+726602031+726966358+727292460
2633+727395353+727357025+727239323+726701798+726173651+726349819+726746686
2619+727068124+727320182+726890828+725948444+725328164+725450580+726047596
2606+726236217+725883367+725631463+725422039+724919922+724410683+724136591
2592+724073513+724192598+724370356+724704605+725065499+724877904+724350935
2579+724308814+724695740+724886205+724831786+724737809+724668889+724814313
2565+725401952+726126508+726492220+726662752+726739102+726766875+726944888
2552+726754526+726150694+725982058+726060663+725381609+724215042+723790044
2538+724011613+723721842+722895673+722766595+723589997+723867675+722893623
2525+722112752+722513872+722950963+722696036+722568700+722650482+722372240
2511+722148980+722591503+723392409+724056654+724469559+724702709+724980694
2498+725139031+724984435+724940214+725181613+725468976+725523497+725306284
2484+725219737+725195346+724848184+724356930+723954837+723844975+724134388
2471+724461104+724591361+724569583+724609961+724845724+724825432+724417088
2457+724276891+724686875+725212512+725598207+725926359+725947983+725540150
2444+725231163+725126784+724782543+724357955+724007462+723507293+723193540
2430+723034077+722656067+722555070+722384435+721149615+719669962+718953758
2417+718808180+719095697+719255058+718734802+718199583+718214136+718539059
2403+718890833+719284573+719651515+719689638+719529355+719474219+719455157
2390+719076584+718006249+716828306+715952280+714630604+713014956+712007495
2376+710902879+709324586+708475563+707854925+707026912+707696383+708014491
2363+706530483+707326060+710864704+714963111+719137971+722121924+720953359
2349+714981558+707696127+704535800+707990818+713148441+715662098+715091267
2336+713103655+712452221+714608724+716644759+716095961+715127085+714912587
2322+715345835+717245106+719103178+718448566+716670328+716554984+717474873
2309+717466982+716748369+716304719+716091298+715599942+715125599+715160853
2295+715387084+715642268+715914002+715599225+714811231+714451669+714345445
2282+713996489+713672489+713275520+712729797+712405078+712302339+712315098
2268+712289682+712240900+712448685+712624905+712186328+711367794+711189730
2255+711804065+712185508+711859970+711105847+710300892+709944405+710077889
2241+710249138+710179347+709544925+708604385+708412690+708876734+708959899
2228+708405721+707458212+706463100+705844870+705653431+705690274+705755505
2214+705707440+705762525+705781433+705027054+703751650+703069060+703265572
2201+703588394+703330751+702715647+702467740+702800656+703151713+703040723
2187+702710420+702564023+702610704+702464204+702096802+702037874+702174176
2174+701956143+701488102+701060184+700747917+700744894+700986293+700998642
2160+700682584+700327172+700087361+700050365+700199683+700317641+700071630
2147+699299009+698496770+698336589+698526798+698219348+697547109+697222340
2133+697057752+696779151+696861138+697380420+697654819+697230334+696524532
2120+696201556+696253822+696233582+696057669+696075501+696363377+696711205
2106+696879021+696550767+695838509+695248359+695067988+695108982+695094993
2093+695196861+695440874+695548430+695433290+695096991+694679782+694195087
2079+693629380+693311733+693160519+692992703+693203511+693687642+693878978
2066+693848643+693833373+693814465+693751335+693636759+693672628+693795659
2052+693676778+693532482+693647929+693905880+694205285+694408099+694342356
2039+694178024+694223424+694496747+694824847+694956128+694703917+694356191
2025+694344867+694411173+694190783+694008670+693913105+693657973+693540271
2012+693735091+694007184+694117764+694009695+693900961+694061962+694324934
1998+694259703+694096294+694263239+694614705+694902273+694981339+694754697
1985+694193909+693546932+693379372+693799297+694107823+693865348+693553030
1971+693522900+693593972+693686822+693692920+693475809+693355237+693673192
1958+694154043+694369309+694295931+694325036+694581705+694423266+693571938
1944+692816278+692806593+693104410+693223956+693141918+692744437+692301146
1931+692072301+691603850+690662183+690125068+690692671+691491989+692070507
1917+692626889+692563042+692065896+691870460+692005072+692138864+691980886
1904+691721654+691679892+691570440+691188383+691229786+691689065+691851808
1890+692418899+693397050+693569530+693188548+692908410+692794449+692505754
1877+691868667+691349640+690835533+690602435+691747941+693288367+693609344
1863+693208840+692800188+692468860+692126771+691769617+691608718+691584737
1850+691376747+690650551+690545403+692184213+692765856+691259250+690133318
1836+689818694+689109152+688441473+689053401+689695817+689300180+689141639
1823+688933547+688177067+687826881+688150011+688259156+687729368+687268911
1809+686903149+686166550+685207666+684391438+684414343+685009156+684376783
1796+682216590+681176641+682804639+683703776+682157867+680579933+679868391
1782+679085522+678261096+676988305+674423201+672049330+672160729+673091482
1769+672906602+672300414+670999389+670187005+670437474+669931719+669470134
1755+669033505+667847210+667936011+669224943+669271368+668192476+666883099
1742+666040738+665713714+663763458+661513131+663291830+665347848+664259733
1728+662903059+661602906+660002886+657732575+654810470+654244455+656778302
1715+657539240+655290861+651975169+648737467+646618524+644760912+641664945
1701+640496329+641674886+640748335+639321563+636865655+632827046+629296140
1688+625264757+622361560+623510859+622710106+618063106+613646949+611646630
1674+610251423+607228577+605367123+605418416+603371928+600257001+599228479
1661+598765768+596510214+592843671+591649536+597170462+599173087+595282413
1647+594598082+597190088+597282015+595976379+594686012+594711377+599260915
1634+604097561+604700726+604862803+606929070+609614900+613034099+616745376
1620+618259976+620078900+625397729+629333905+630128304+631101331+632896991
1607+634884090+636927913+638682529+639897365+640745927+641562667+642608457
1593+643754732+644858169+646082229+647387660+648488997+649293439+649584440
1580+648994546+649765477+653461791+654427798+652257203+652480821+654307841
1566+654231696+652601752+649676265+649417802+655737380+658706217+657010222
1553+655561621+654690001+653894783+652593860+650918618+649639678+651220585
1539+655383198+655061554+652277751+652116135+652348772+650556647+649356466
1526+649214168+648797369+649559639+650560542+649661405+648202351+646672020
1512+644668575+641944673+640664760+643884834+644751330+640482288+636000133
1499+633687752+633001985+630987677+626488099+622082396+619409940+616887520
1485+613081447+608366756+603335905+597614010+590607794+582385410+573298426
1472+563873965+555634158+551384793+553693689+560158127+564596215+566518032
1458+570965497+579154113+584428208+587097179+590496549+594835535+598596465
1445+600479390+600604317+598848574+596192875+595125153+594160632+590930463
1431+587249931+584032521+580475737+577043830+573949246+570867267+568954008
1418+568021051+566091343+563634103+561901316+561285033+561718435+563229089
1404+565350031+566909979+568347153+570046325+570770164+569761166+565769546
1391+557650414+545514041+529968665+513296179+499832392+494645818+499901261
1377+512146420+525579923+535367072+540226059+544104589+551256330+562346247
1364+576748114+591844562+602998274+609141478+612052156+612429551+609998136
1350+605089496+598516221+591374164+585481121+582950810+584617649+589320092
1337+594748117+598719035+600251723+599703540+597542528+594009469+589738839
1323+585201188+580443609+575731532+571413708+567895663+565439652+563678836
1310+562524824+562460874+563575636+565744540+569039632+573259072+577961670
1296+582844945+587776080+592677904+597476733+602331569+607261782+611801482
1283+615661565+619024142+622224950+625446255+628628564+631717922+634932770
1269+638383175+641619237+644131307+646096679+648083522+650015075+651580199
1256+652983809+654293032+655359217+656246363+657149958+658031109+658784617
1242+659646091+660623781+661470498+662183576+662761735+663148199+663425314
1229+663604506+663570533+663514577+663785389+664358783+664834664+664983572
1215+665024668+665020568+664865204+664610225+664343718+664213718+664022125
1202+663342303+662282216+661218645+660174238+658827660+657044912+655109875
1188+653237558+651430419+649401661+646342741+641676423+635195537+625991619
1175+612901076+595570084+574156877+550132653+527842497+512467090+506658698
1161+510137748+520423120+533946860+547760627+559986212+569592888+576226936
1148+579834346+580430696+577636337+570620180+558947083+543203044+525347030
1134+508766369+497232187+493565798+498931154+511971327+528721905+544381857
1121+555248616+560190922+560389534+557313756+552824529+549432129+548353544
1107+549403331+552440422+557087114+561898293+565372936+567311304+568415356
1094+569947839+573586967+580218299+589463620+600312906+611677119+622566681
1080+632291213+640889096+648566320+654935141+659460186+661974920+662862527
1067+662463611+659991972+654096828+643795162+628063215+606976930+584103490
1053+565536806+556344316+558300055+569988320+588379040+610008077+631472628
1040+650276509+665460426+677270851+686274004+692901954+697637551+701065461
1026+703782856+706149296+708079517+709374444+710143376+710765244+711406789
1013+712019229+712581964+712970530+713024026+712767818+712657495+712873068
999+712772788+712170238+711538224+711078638+710669473+709988062+708861259
986+707474046+705981326+704330475+702335383+699748552+696654685+693232565
972+688858273+682665108+674293867+662851408+646034472+620720189+584669556
959+539869571+494985960+462287452+450893621+462238157+490643130+527787361
945+566672731+602450450+631807902+653558023+669432011+682005321+692395277
932+700813250+707346301+712004010+715075792+717337136+719629839+722076422
918+724160470+725530876+726242468+726722910+727479031+728308479+728518672
905+728154293+727544210+726566981+725473844+724324750+722257766+718689556
891+713651018+707032446+698736017+689593949+681910831+678887576+682539668
878+691739230+702908725+712652370+719674932+724347758+727121877+728354699
864+728784360+728888893+728644778+728190726+727767829+727594273+727672980
851+727546670+727084778+726499547+725564695+724147762+722728267+721522756
837+720237360+718714869+716837120+714469655+711224266+706025292+697178938
824+681692183+657526430+630745868+615741502+622256669+645463025+672195574
810+692819352+705308319+711783466+714854735+716638149+718163253+719489284
797+720406201+720756796+720734404+720464002+719988889+719619335+719517313
783+719562918+719438503+719047171+718643438+718445543+718734956+719274940
770+719188137+718418180+717802614+717691523+717754499+717733182+717702181
756+717676765+717446741+717079954+716850545+716798586+716721570+716306000
743+715818334+715819103+716060912+716066497+716018996+716275665+716600486
729+716638149+716434156+716076131+715887151+716157144+716562004+716854849
716+717234857+717721960+718061231+718114676+718001330+718029564+718231404
702+718300837+718258972+718181700+718043553+718223667+718914609+719778953
689+720527798+720931582+721236367+722186643+723562531+724731455+725708172
675+726142547+724798326+721926643+722885476+730287635+732439066+731310418
662+731464963+732214679+732667757+733413733+734792952+736495097+738058325
648+739267114+740268171+741742700+743655652+745261308+746386677+747531004
635+748834079+750043279+751502640+753227638+754743519+756369262+758625225
621+760960203+762677413+764332773+766327609+768166108+769777349+771565682
608+773669970+775594400+777121708+778836304+781041385+783407671+785688948
594+787956390+790264979+792427324+794366358+796503185+799068289+801793933
581+804414737+806678285+808884544+811521950+813927334+815566554+817178154
567+819257232+821842986+825040053+828095438+830280585+832156387+834244125
554+836514948+839023687+841699473+844471747+847160856+849385050+851256394
540+853270036+855790457+858440828+860673118+862874560+865053047+866905226
527+869157090+872369735+875949372+879004193+881348804+883511406+885814409
513+887581732+888245209+888984728+890948409+893343238+895079201+896295473
500+897364168+898236710+898993651+899216552+898783766+899204664+901930514
486+906761369+912483623+918040367+922725901+926992483+931928383+937531654
473+942788532+946421358+949401058+953059505+956293159+958496241+960452954
459+963653403+968239323+972057541+974967143+977967852+980747812+983014332
446+984729286+985219874+984885983+986207197+989235474+990929932+991016531
432+992788056+997342309+1001581631+1003698832+1007401346+1015057767+1023594518
419+1031605223+1039347730+1045239081+1050177031+1055838718+1059039270
407+1059180389+1062667689+1068613254+1070936549+1073741823
##END=
