##TITLE=павел 4-многокр
##JCAMP-DX=4.24
##DATA TYPE=INFRARED SPECTRUM
##DATE=3/2/2015
##SAMPLING PROCEDURE=Instrument type and / or accessory
##ORIGIN=Default
##XUNITS=1/CM
##YUNITS=TRANSMITTANCE
##RESOLUTION=4
##FIRSTX=3996.3347
##LASTX=399.24773
##DELTAX=-1.928733
##MAXY=0.61310762
##MINY=0.17479452
##XFACTOR=1
##YFACTOR=5.7100097e-010
##NPOINTS=1866
##FIRSTY=0.51957512
##XYDATA=(X++(Y..Y))
3996+909937368+909744149+908475856+908627738+910454602+911519863+911295120
3983+911596483+912138039+910931960+908576276+906925825+906498676+907484187
3969+909723898+912014028+912372803+910416918+909018456+909770872+911092819
3956+911470489+910619114+910270569+911853795+913095260+912239398+912204533
3942+914002690+913376477+909288712+905357943+904660226+906740748+907495774
3929+905820061+904774424+905811919+907313515+907401513+907286062+908611141
3915+909421804+908680453+907932839+905586549+901022574+899617327+902914575
3902+906036141+908388172+909583394+907149211+904298528+905393957+906252847
3888+903039421+901485423+901801609+899419723+899010425+900178298+899776724
3875+901476445+902753298+902512270+902983992+900452208+898798521+901975099
3861+903386401+898735054+889329123+883329315+893103938+905011381+903227838
3848+897519581+895094375+895793554+896333649+895795537+896982722+898032743
3834+897654552+899776724+902586698+901921235+898694657+892840781+889019200
3821+893325237+896087297+894466596+893748106+890561089+884987699+881812165
3807+885026113+888285678+887375639+890859843+894455844+892877107+892083250
3794+890077259+885533117+883228374+883591846+883799679+882685565+881267374
3780+882377834+885596375+887242338+886186366+883547691+882868137+884569319
3767+885491989+885725188+884210544+882031481+882169897+880294076+873915085
3753+869850598+874533626+878628489+872259728+869489839+878728283+879780392
3740+869941101+863185119+864597204+869436133+872295950+870989974+867610991
3726+865975938+865913932+865801508+865176130+862490742+857067407+849919194
3713+846040201+847649002+847672697+844060725+838944651+834113447+831294340
3699+828519753+823005863+813693776+802214629+793113976+790129887+789225380
3686+783571195+775346290+769030400+763678987+758430917+759702498+763718497
3672+760517493+758069636+758011127+752370356+744628603+739606215+735782652
3659+731341017+728310215+725712041+720285418+716019518+716698602+715889348
3645+709277263+701053349+695167792+691238276+687168361+682877199+678052520
3632+672334920+670821163+673392718+669344880+660296107+652924089+649344842
3618+647910471+644285554+638556628+633265759+629645123+628403761+626452417
3605+621207478+615527666+611769657+609142934+606247573+602234966+597536802
3591+592875435+588451598+584937905+581484651+576898181+572126581+568137253
3578+564541251+560808712+557346220+553457363+548517389+544728481+542655318
3564+539506351+534965445+530743439+526797587+522033086+517384245+513885009
3551+510103826+505810472+502818502+501164710+499215193+495853852+491285805
3537+487105189+484348139+481948091+478390295+473800536+469815539+467790028
3524+467334226+466985785+465180842+461176742+456525918+452905751+449978030
3510+447472029+445255074+442633101+439996096+437612436+434753114+432300142
3497+431272172+430293577+427779513+424383907+421598334+419320182+417541754
3483+416829501+415724442+412808412+409627711+407727412+405792508+402725067
3470+399388126+396357741+393900202+392242444+390507127+387686819+384808551
3456+383119112+381967158+380617861+378912138+377438491+376464594+374461657
3443+371388343+369206305+367985143+366283438+364205343+362692787+361574340
3429+360702454+360116091+359014242+357563899+356745798+356292370+355776807
3416+354946153+353348678+351466020+349768282+348012819+346604936+345700899
3402+344800463+344786971+346007768+346577874+345743880+344375063+343156223
3389+342919788+343998124+345378397+345966588+345749621+345506923+345332494
3375+344760587+344749183+345615459+346066381+346464171+347202156+347171831
3362+346699405+347092132+348045074+348308284+347731863+347090462+347002621
3348+347991498+350325575+352858585+353911816+353777836+354023849+355573880
3335+358293481+361500096+364218913+365186391+364624845+364038847+364619443
3321+367536073+372088566+375431953+376622113+376980601+377152656+377287966
3308+378070237+379913411+382511976+385159707+387347329+389185127+391202183
3294+393573029+396091060+399149838+402546436+404931087+406190794+407117848
3281+408155865+410343957+414095051+417905827+420644531+422800498+424699545
3267+426321707+428464495+431193387+433508595+435613518+438055347+440444748
3254+442799910+445621261+448912612+452228284+455073070+457646243+460481739
3240+463275845+466032738+469289067+472865809+476365932+479131959+481171457
3227+484066923+488249627+492528524+496744162+500834589+503806361+506468314
3213+510529670+515439581+519818166+523563597+527566861+531936261+535444317
3200+537964305+540712064+543909885+547470917+551620687+555419511+558616810
3186+562457754+566693017+570348414+574001411+578539080+583736158+588934541
3173+593790328+597874126+600984889+603830823+607136318+610926895+615010589
3159+619155297+623298387+627548212+631832589+635876981+639055333+641410444
3146+644003868+647247357+650899257+654470258+657383626+660391046+664414614
3132+668425498+671444192+674165489+677414198+681171476+684342312+686619029
3119+689620707+693208358+695782888+697900937+700791288+704360044+707365846
3105+709159880+710659128+712119857+713520198+715809754+718989619+721964784
3092+724328663+726573175+728779796+730492409+732242340+734776942+737159506
3078+738599358+739718483+740446942+740791208+741930270+743981721+745963859
3065+747346820+748365108+749771295+751746439+753533167+754145392+753342714
3051+752573231+753083366+753710780+753287702+752686542+752733985+752917392
3038+752718693+752071655+751234895+750552209+749097378+746355047+743573519
3024+740983905+737723244+733764030+729803877+725975773+721384657+715393148
3011+708184026+700189657+691246523+680636705+667941146+653099197+636490929
2997+618985669+600584254+578831153+551579194+520346726+487266622+452320823
2984+415742396+380476392+350349479+327336149+312297223+306119489+311125148
2970+330706050+364897633+409259306+457755118+504959098+546811874+580654050
2957+605772250+623335288+634588385+639518965+638333555+632509325+623626055
2943+613383782+603479981+595018484+588780362+584725531+582573765+583065216
2930+586310949+590614115+594852875+599270345+603825864+608139887+611610468
2916+613711502+614861265+615848863+616753839+616717304+614671073+610611283
2903+606298357+603153200+600761293+598881558+597372081+595588955+593645701
2889+592137111+591585168+592481377+595410559+600596572+607817751+617112406
2876+627499359+637397732+647527686+659117482+670807279+681214066+690871515
2862+700235587+709502737+718762632+727500021+735698412+743649094+751231189
2849+758622413+766139475+773126307+778131001+781036905+783732576+787502850
2835+791745994+795534380+798790813+801989938+805102684+807835724+810293081
2822+812480703+814706792+817167750+819198062+820971219+823252789+825717766
2808+828141458+831160099+834814087+837977251+839898062+841372831+843340825
2795+845497915+846934635+847523112+848485188+850506210+852524883+853922928
2781+855000612+855619935+856253716+857794666+859472466+860058282+860118460
2768+860826460+861911294+862397368+862269443+862316104+862932244+863747135
2754+864594438+865612256+866304389+865981888+864721685+863657571+863950270
2741+864834422+864591567+863294673+861844643+860232607+858814363+858395513
2727+858733725+858974857+859189057+859844760+860393361+860624942+861496515
2714+863491075+865796237+867248876+868013244+869107159+870561208+871635551
2700+872331128+873445869+875390950+877977537+880538236+882797780+885080603
2687+886712056+887297767+887809051+888438708+888646019+888249665+886904961
2673+884407312+881302239+878360634+876066955+874405231+872816055+871042950
2660+869808270+869913700+871753925+875301074+879389674+882928785+886057658
2646+888835898+890937506+892496723+894066588+895729148+897090136+898157589
2633+898844346+898745597+898268865+898301120+898513964+898023349+897460707
2619+897817499+898467408+898134520+896848690+896082078+896369140+896530208
2606+895962764+894990615+894017422+893737563+894272751+894804495+894723804
2592+894308973+894448746+895254712+895802218+895764430+895459518+895162017
2579+895220787+895266508+894788210+894760026+895985729+897660502+899215440
2565+900827894+902132513+902854031+903583899+904450201+904773172+904335063
2552+903528261+902770522+902303915+901986268+901351078+900293541+899521396
2538+899519308+899358449+898146942+896758709+896287927+896394088+896381040
2525+896251914+896160367+896054833+895941261+896020281+896458808+896993161
2511+897762070+899412938+901254416+902223329+902875952+903835157+904805323
2498+905448133+905546465+905402830+905675069+906225393+906538656+906718827
2484+907107666+907690350+908206748+908516254+908484729+908047559+907618949
2471+907651831+908221258+908999040+909509802+910030063+911083424+912356415
2457+913382323+914147683+914679948+914878699+914936425+915325786+915881538
2444+915781118+914851037+913775128+912832520+911762039+910519008+909111568
2430+907692020+906547216+905494794+904269299+902889000+901379262+899920464
2417+899039131+898945601+898884431+898449453+898295797+898407699+898360725
2403+898736202+899765242+900618182+901085101+901710584+902449430+902862068
2390+902838060+902294103+901131031+899634133+897911238+895582068+893273775
2376+892431586+891943998+889374218+886828133+887940577+889552614+886609444
2363+883282132+886255679+893170119+900278196+908191612+914968889+913926175
2349+904712941+894552715+891457141+895772573+898663758+898622317+899876309
2336+903056853+905894280+907501411+907590661+906137187+904038919+902406109
2322+902393270+903942466+905072969+904508448+903638493+903752901+904081509
2309+903904052+903302474+902446507+901404210+900233519+899671085+899939880
2295+899985079+899725784+899807205+899717537+898898836+897897668+897228865
2282+896492316+895726225+895907544+897072912+897934725+897720002+896900466
2268+895984059+895229764+894921198+894850007+894731529+894554072+894382878
2255+894362628+894329537+893765225+892842764+892708001+893407180+893631924
2241+893112080+892425010+891554116+890558689+890146467+890276950+889807108
2228+888452070+887002145+885996175+885588338+885480715+885145322+884518274
2214+883694980+882912396+882729199+882887970+882364055+881188249+880279671
2201+879629658+878806468+878275455+878436210+878850206+878872544+878394664
2187+877994552+878018247+878216477+878348421+878485063+878803650+879244368
2174+879593436+879548967+878967327+878288712+878251864+879053237+879720891
2160+879342596+878518780+878227855+878355937+878239859+877853630+877419801
2147+876895678+876468007+876229798+876019669+875804633+875588814+875270436
2133+874803673+874522718+874481746+874246512+873902611+873792118+873847339
2120+873958301+874279080+874670215+874441035+873561529+873032239+873327547
2106+873771189+873756209+873412518+872987561+872532020+872190468+872143546
2093+872092032+871591500+870941487+870636992+870573473+870519662+870268874
2079+869658423+869282320+869743133+870506405+870995454+871162838+871038514
2066+871043420+871280377+871287631+871246921+871401308+871370358+871283247
2052+871777516+872660728+873010631+872789071+872933072+873536737+873918791
2039+874012425+874010025+874101519+874478614+874766094+874780708+874879197
2025+875046371+875009210+874714423+874511914+874754612+874929981+874628931
2012+874501266+874755395+874814164+874679036+874855501+875318350+875427120
1998+875075704+874761397+874619223+874552833+874312432+873728704+873140644
1985+872912403+872920023+872746168+872447676+872276065+872212807+872331285
1971+872372987+872149340+872252056+872732911+872785731+872428469+872330189
1958+872380869+872207118+872105654+872299239+872364532+871973188+871330430
1944+870907352+870888093+870820660+870375139+869546573+868542639+867707966
1931+866884202+865791331+864325591+863211581+863458716+864013581+864188219
1917+864765370+864882335+864037903+863406679+863496869+863846093+863949227
1904+863778920+863494363+863169305+863166643+863894058+864813858+865365435
1890+866499643+868074519+868601878+868401561+868179949+868131566+868395611
1877+868632881+868543004+867777070+867266934+868908773+871049004+870939138
1863+869682850+869045989+869048025+869044736+868667798+867925820+867123038
1850+866462534+865429737+865225244+867408117+868577243+867198927+866116180
1836+865936010+865042411+863600785+863474739+863856845+863282303+862968883
1823+862596381+861618804+861268483+861290822+860270394+858665091+858048116
1809+858294624+857968417+856393020+854543191+853900589+854172724+853583621
1796+851408368+850015438+851522984+851954778+848836395+845659557+844335469
1782+843322036+841700813+838966572+834600095+830516140+829474731+829430210
1769+828219591+826944461+825310659+824744364+825593859+825443178+825399388
1755+824898647+822793072+822485550+824527815+825165980+824026030+822523703
1742+821634072+821300923+818587872+814878820+815935992+817821155+815919029
1728+813340272+810960787+808848793+805862824+801083135+798815813+801294204
1715+802045158+798741125+794175532+789934841+786883840+783538470+777711995
1701+773470834+772739295+770653293+768514158+765044620+758725338+752362684
1688+745671004+740647833+740927275+739553918+733307080+726495721+722462967
1674+719981289+715674626+712212291+711248023+708444260+704694863+703532366
1661+702855421+699722842+694455199+691805720+698656015+703038097+699502274
1647+698869380+702739187+704596427+704686669+704312757+705611270+712742625
1634+720205197+722509471+724380021+728392993+732849137+738405669+744524582
1620+747400945+750437854+758325017+764261880+765436277+766911516+770130735
1607+773418223+776201422+778719166+780734655+782114485+783318737+784862296
1593+786494949+787733753+788683772+789701224+790911635+792149760+792682861
1580+791511282+791438838+795539182+797242034+794772778+794494693+796190604
1566+796077188+794084246+789649553+787245329+793268729+797260198+795828227
1553+794024328+792477794+790647016+787920500+784925241+782812933+784359050
1539+789444330+789163687+785174359+784003145+783620778+780845774+778454860
1526+776726276+774331707+773988694+774587454+772792480+770317326+767321649
1512+762775055+757156413+753536350+755600693+755618438+749701826+743261038
1499+738932767+735616625+730181129+722094954+714232947+707973844+701603830
1485+693926274+685293115+676086092+665601746+652621735+637216257+620429279
1472+604228012+592007672+586782618+591129992+601824937+610016021+614435578
1458+621732228+634094064+643458502+649868652+657044841+664960188+671484485
1445+674370190+673787663+670576273+666082758+662789268+659583253+654038882
1431+648054263+643056249+637813920+632141415+626434567+620781948+616756553
1418+614211513+610656326+606874204+604690235+604163919+604673376+606505720
1404+609730002+612512365+614510162+616196052+616041664+612760961+605161121
1391+591734754+571170143+544082800+516054260+494865471+487853429+497909843
1377+519388982+542476766+558791135+566921884+574100525+587360396+607852407
1364+634002100+660757807+680852263+692548428+697835539+697850257+692887057
1350+683360038+670385611+656661795+645751137+640968472+644276107+653518047
1337+663154620+669742018+672796568+672382102+668686621+662341816+654335130
1323+645712201+637050126+628681324+621142968+614825095+609975310+606951867
1310+605891668+606600660+609003004+613238476+619260466+626759104+635318776
1296+644416872+653715024+663237920+672980340+682684659+691756502+699730880
1283+706820846+713228073+718828134+723750832+728412774+733234166+738503114
1269+743945134+748995653+753626383+757709034+760879087+763370682+765625530
1256+767815031+769815437+771482224+773052298+774831613+776664792+778139822
1242+779262705+780295554+781399804+782593565+783589723+784327682+785134953
1229+785967433+786470888+786691404+786899446+786968340+786705392+786375583
1215+786271354+786175266+785751040+784954886+783846827+782595235+781243381
1202+779579830+777512513+774865173+771420532+767223161+762347541+757182249
1188+752366963+747700481+742053916+734413469+724187219+710487099+691852589
1175+666858870+634758378+596597587+556408206+520847467+497026422+488920883
1161+495363080+512133460+534350714+557207491+577196830+592795005+603565734
1148+609070908+608771841+602519001+589946983+570337506+544510836+515853473
1134+489789063+472351029+467887421+477605884+499009082+526161249+551773039
1121+570016309+578367887+577819129+571718901+564071878+558021025+555512885
1107+557415011+563014132+570361828+577387857+582429712+584961757+586070026
1094+588040212+593594656+604299726+619741269+638466125+658526760+677858935
1080+695287575+710691174+723967434+734528660+742116861+746865756+748627326
1067+747098224+741246697+728882043+708043052+678034513+640378377+600981392
1053+569544379+554569755+559283264+581487574+615825794+656171284+696404143
1040+731683978+760173384+782103211+798395189+810391673+819208344+825774969
1026+831002685+834968788+837645616+839624518+841067136+842029682+842845512
1013+843498657+843869124+844050965+844181708+843999659+843313946+842477238
999+841442822+839819355+837822760+835909882+833840999+831216624+828164162
986+824704958+820626118+815823725+810321056+803987317+796400003+787150077
972+775828972+761820860+744010845+720374042+687459808+640888669+578662935
959+506516019+439476774+394324427+380629918+398759746+442004591+500402326
945+564054393+624224502+674624371+713143572+741893787+764579736+783598961
932+799369374+811636166+820683635+826910535+830911973+833962974+836920549
918+839701503+842045131+843867662+845148325+845772868+845640193+844869823
905+843571414+841630300+838973879+835661182+831569397+825962760+817840467
891+806775943+792561982+775513516+757576985+742569323+736191063+742859830
878+760715618+782477018+801284705+814241177+821818940+825763435+827473438
864+827903770+827692649+826971027+825823248+824321443+822481062+820399548
851+818281760+816441378+814664620+812293382+809262319+805986418+802522047
837+798559493+793895986+788725631+782755051+774638551+762923648+744988109
824+715686526+672419577+626279501+601714235+614612095+656212726+703838687
810+740497935+762071074+772322690+776674344+778913533+780611323+782044494
797+782840648+782679997+781632638+780305419+779153465+777799053+776068277
783+774314797+772840185+771736352+770620933+769155403+767709236+766432018
770+764945245+763226003+761428002+759770244+758609522+757702666+756467516
756+754865657+753272671+751953803+750688694+749248633+748002679+747118214
743+746322269+745469016+744201245+742393432+740858589+739967757+739190967
729+738615485+738285886+737433311+736183286+735428782+735054036+734348489
716+733417155+732657588+731904546+731062462+730442095+729938379+729207049
702+728582924+728394089+728180985+727587392+726833984+726204535+725873944
689+725804266+725560420+725026537+724860771+725399248+726053593+726351094
675+726550002+725744244+723231824+723473635+728995145+729595940+727307220
662+726559657+727141872+728229994+729367908+730208479+731224783+732386811
648+733358751+734177557+735095268+736357559+738086247+739915564+741163971
635+741816959+742788273+744790923+747064195+748757705+750394116+752415973
621+754377077+756380823+758832021+760795944+761914494+763122452+764830524
608+767127595+769627124+771884007+774164376+776523244+778655229+780349626
594+781850126+783834039+786523864+789181433+791161379+792922584+795398156
581+798657094+801555430+803877815+806404119+808945559+811531832+814224684
567+816772282+819518737+822030113+824180887+826875096+829874843+832400312
554+834601974+837001918+839333333+841526540+844362610+847238190+849217718
540+851081743+853438472+856063733+858911025+861771573+864244431+866627777
527+869023807+870666690+872121469+874607479+877812398+881099416+884130584
513+886139184+886733455+886947968+888119913+889769007+890189683+888878488
500+886938052+885170271+883272946+881303282+880238021+880256915+881466856
486+885680720+893558540+902811441+911090001+918210917+925053644+931462646
473+936326627+939250381+941693333+945151336+949207785+952506077+954415197
459+956201454+958980529+961461999+963374250+965435461+966475252+966158440
446+966225874+966371493+964672085+962296045+961810962+962540935+962583733
432+963242724+965502581+967924342+971931626+979726564+988388221+996357171
419+1006615416+1017119699+1025115894+1032222718+1037690260+1041243046
407+1046135003+1053052679+1060171194+1066875296+1073741823
##END=
