##TITLE=павел 4-многокр
##JCAMP-DX=4.24
##DATA TYPE=INFRARED SPECTRUM
##DATE=3/2/2015
##SAMPLING PROCEDURE=Instrument type and / or accessory
##ORIGIN=Default
##XUNITS=1/CM
##YUNITS=TRANSMITTANCE
##RESOLUTION=4
##FIRSTX=3996.3347
##LASTX=399.24773
##DELTAX=-1.928733
##MAXY=0.62440783
##MINY=0.2145741
##XFACTOR=1
##YFACTOR=5.8152511e-010
##NPOINTS=1866
##FIRSTY=0.46014163
##XYDATA=(X++(Y..Y))
3996+791267005+791272796+792111068+792872007+793661491+793460648+791960551
3983+790878028+790147121+789000230+788502196+788983010+789638889+790919283
3969+793153156+795211811+795813059+794365748+792023792+791285966+792370078
3956+792571075+791025931+790005009+791126020+792964664+793430411+793714636
3942+794808536+794481826+792082984+789198562+787300315+787756991+789673174
3929+790448565+790488026+790560646+789258625+787644859+788048390+789582772
3915+790074041+789604399+788841052+786437443+782890838+782205747+784947647
3902+787133193+788693404+790516316+789636532+786894529+787642348+789594918
3888+786700502+784959178+788108761+789455317+789815389+789838861+786922562
3875+783646037+782156651+784751058+788037269+786127287+785660566+788640260
3861+787982638+783538056+777133268+773589225+782087824+790474599+787293345
3848+782209130+780482976+781011297+782297482+784755670+787503003+786834876
3834+784553085+784561387+784764178+782863984+780704369+777940074+776442949
3821+779426179+780050284+778056510+778751338+778923943+777283426+776742856
3807+778748058+778740474+777245399+780715183+782977089+780561386+779204478
3794+778245617+776722664+775962392+775138315+774685534+775508586+775490444
3780+773898510+772523767+772056688+771647058+771061082+772606944+775661307
3767+776323950+774630596+771741202+769826505+771104387+771670120+767979609
3753+764865081+769387561+774351906+769748351+766329508+771901097+772109730
3740+764016712+757909473+758911843+763064360+765078787+764439666+763393734
3726+763882543+763926924+762090125+761287726+760359410+755040425+747844820
3713+746963806+753151915+756697701+754153312+748830432+745291002+744330706
3699+742370808+739436930+735128926+727530814+721047360+721746185+724428791
3686+721346241+715401665+710767463+706773509+703056656+704499047+707258423
3672+704070609+702475908+703172171+699524964+695277638+693382261+690544885
3659+685750480+682727635+680333302+675157301+672580933+676029090+676887606
3645+672094533+666622776+662575114+659854482+658360074+656960014+653170286
3632+646849545+644137626+646376111+643531816+635896499+630159223+628318221
3618+627171637+624063515+621453784+619815727+617344983+615783337+615326763
3605+612808460+607670536+601740002+596679156+593643396+593259391+593473046
3591+590649302+586068603+584241182+583650902+580755819+576663571+572919556
3578+570017402+567581609+564805885+561341329+557251489+554154436+552614468
3564+550338827+547039445+543536606+540170294+537684226+535274468+531716127
3551+528608875+527462189+526187279+522961746+519272721+516254232+513496137
3537+510373204+506606948+503219367+500926763+498652608+495767212+493415415
3524+492048821+490306370+487898098+485917598+483997161+481421818+479014161
3510+477088548+474677764+471943961+470199768+469489719+468699979+466532267
3497+462703488+459328975+457893093+457052258+454836834+451130539+447716719
3483+445550391+444392686+443704469+442608211+440734205+438550350+436772384
3470+435596691+434491414+432521112+430080450+428698302+427814675+426025793
3456+423411604+420624297+418571434+417421262+416145711+413864484+411050247
3443+409585153+409690751+408932682+406551956+404434571+403643037+403124632
3429+401305103+398051717+395187717+394613502+396002261+397390123+396917945
3416+394703495+393036661+392625801+392082336+391146640+390639638+390106730
3402+388361998+386435232+386115620+386940722+387771205+388505187+388810167
3389+387756215+385347097+382789358+381998644+383878416+386554846+387815125
3375+388191392+388911127+389201270+388447378+387391581+386990997+387743018
3362+388529760+388562406+389167395+391050651+392703443+392683405+391446444
3348+390602380+392042695+395596219+398199569+398404614+398069346+398948361
3335+400590288+401851208+403154151+404649481+404961995+404842791+406161288
3321+408165107+409854106+411335266+413042483+415473638+417564041+418235525
3308+418528385+419979334+422412462+424265174+425295449+426591525+428788320
3294+431767040+434503508+436308175+437409916+437883094+438605135+440883646
3281+443858727+445636232+446415774+448296391+452010989+455874413+458555891
3267+459930223+460724422+462559479+465578532+467775506+468221112+469016541
3254+471864936+475066638+476871869+477835752+479393195+481910627+484231623
3240+486636410+490277107+493830580+496014537+497833707+499963546+502265067
3227+505205505+508459788+510739119+512291386+514414204+517511410+521108444
3213+524445084+527254837+529960710+532832679+535707416+538636834+541668955
3200+544321683+546526140+548886136+551809046+554821897+557373409+560326710
3186+563931021+566841375+569271530+572410094+575682161+578528301+581757985
3173+585377260+588477798+590898831+593254881+595731878+597939050+600211411
3159+602923126+605845063+608803744+611260703+613170070+615675612+619284126
3146+622795677+625116878+626791834+628881699+631470622+633852860+636181236
3132+638890593+641280929+642926725+644135012+645631470+648178421+650953786
3119+652886523+654467951+655892302+657303944+659636624+662211505+664074595
3105+665860659+667658612+669370314+671327957+673210676+674628979+675684905
3092+676785160+678215815+679646726+680642485+681513505+682791952+684082596
3078+684631263+684856090+685868044+687720833+689501874+690815836+691726113
3065+691600041+690693147+691152180+693354484+695084687+695406067+695321353
3051+695733084+696895042+697924216+697781642+697214321+696974785+696710804
3038+696394088+695854543+694899731+694135564+693721270+692703167+690779398
3024+688880383+687368141+685878806+684414994+683036869+680981238+677392455
3011+672817189+668334990+664188726+659474217+653037962+645081726+635704522
2997+624182155+610770203+595453188+577188049+555571920+530769771+503146184
2984+473540969+443653426+416281981+393960801+377822194+368985098+370277843
2970+384421446+410945930+446346332+485002811+521434385+553214999+579017366
2957+597934592+611345929+620203217+624083348+623522535+619280692+612031327
2943+603562811+595855079+589665586+584782726+581107846+579157326+579596884
2930+582060249+584955792+587486600+590268781+593393406+596213050+598371178
2916+599910429+601309668+602947059+604331027+604650254+603804089+602223378
2903+600310731+598390499+596686279+595487012+594621834+593165914+590870081
2889+588887018+588550469+590010437+592674850+596479850+601537212+607448989
2876+613798378+620174723+626163219+632426305+639742754+647187683+653719978
2862+659759774+665804080+671516808+676731451+681229742+684587291+688059740
2849+693088556+698497328+702718570+705961066+708995954+712242909+715311826
2835+717426547+719000902+720994727+723739344+726730158+728798038+729825417
2822+730436608+731043237+732266745+733654146+734585640+735800435+737273370
2808+738220238+739480543+741858732+743774711+744406195+745165340+746468540
2795+747601645+748076002+748001589+748301547+749202702+749983627+750620493
2781+751760005+753207059+753882925+753729487+753734458+753947498+753904859
2768+754105190+754816827+755453898+755847948+756142576+756379191+756550925
2754+756559996+756733318+757652307+758872484+759048164+758230955+757778840
2741+757771409+757442393+756817263+756169892+755318961+753884616+752129250
2727+751064459+751154708+752182241+753582762+754250992+754082640+754273285
2714+755370824+756641430+757173133+757153505+757358551+758192775+759300871
2700+759831806+759946449+760625954+762072137+763681188+764951537+765670554
2687+765810258+765921211+766611068+767325114+767028743+766079415+765299771
2673+764209663+762485508+760837661+759589554+758608606+758002489+757593730
2660+757192762+757319909+758446045+760226881+761621969+762325253+763015213
2646+763914266+765246985+767078198+768646250+769695155+770499501+770642843
2633+769978405+769665584+769963492+769726672+768960455+768474055+768389239
2619+768487687+768698165+769034202+769050243+768466163+768008872+767875370
2606+767497770+767112484+766898623+766501703+766183296+766361590+766911128
2592+767379335+767462050+767447752+767568134+767516578+767252392+767028077
2579+766771886+766372403+766165308+766601177+767501768+768368483+769030256
2565+769330572+769100313+768747364+768764020+768811988+768701804+768817164
2552+768798561+768414504+768515413+769044862+768802712+767666327+766554182
2538+766006898+765829732+765516091+765037173+764662495+764436130+764407431
2525+764762532+765440858+765782122+765330827+764504598+763972894+763987859
2511+764394055+764917662+765197274+765427533+766088742+766787568+767258593
2498+767724955+767929386+767599345+767055956+766831488+766783673+766644892
2484+766844505+767373902+767764673+767809976+767552811+767596680+768035214
2471+768141298+767918470+767860610+768251790+768971320+769240324+768864262
2457+768601049+768660292+768797587+769118660+769601933+769908861+769778075
2444+769171651+768321181+767674065+767296107+766856343+766428213+765886208
2430+764950256+764159490+763683494+763180694+762834408+762467981+761581381
2417+760510644+759853535+759788399+760354900+761116864+761387815+761170162
2403+760867744+760657267+760672846+761208137+761987320+762368866+762402997
2390+762027192+760981260+759647824+758078183+755857942+753371720+751681133
2376+751137232+750936338+750723708+751178077+752456268+754907435+758849730
2363+762374503+764812346+767062157+766919225+765668863+767309995+766095353
2349+758354566+749685258+747310297+752036132+756644248+758142500+758365841
2336+758428826+758643506+760638663+763564290+764036596+762495860+761406520
2322+761073251+760862107+760147395+758718892+757905783+758505647+759528415
2309+760006871+759760263+759259770+759012547+758697009+757941503+757466634
2295+757803849+758141577+758017761+757716419+757269276+756841504+756555025
2282+756287968+755998055+755608310+755345507+755440420+755288007+754396845
2268+753511988+753242728+753091442+752863847+752640557+752339677+752567938
2255+753242010+753430708+753598137+754147726+754094838+753212286+752192850
2241+751466658+751143126+750895083+750578418+750697468+751159218+750816929
2228+749285417+747774199+747130876+746944332+747028328+747507707+747948906
2214+747879515+747185558+746340265+746104060+745980141+745185430+744372474
2201+744057552+743894991+743788753+743885869+743984830+743514932+742559915
2187+741969583+741968148+742241405+742486578+742327605+742094014+742358508
2174+742881346+743330591+743567154+743353243+742604296+741787138+741550780
2160+741681258+741494560+741007340+740893671+741153501+740989147+740238560
2147+739336842+738903228+739045904+738915989+738353023+738085813+738418314
2133+738860999+738784536+738327348+737940011+737732198+737587678+737394214
2120+737230424+737300019+737502964+737357981+736956859+736758527+736480042
2106+735960946+735765586+735883048+735619784+735119240+735188630+735602975
2093+735449178+734873451+734681987+734826200+734784023+734511483+734225413
2079+734014782+733722870+733298173+733094460+733245951+733574916+733895373
2066+733940779+733734965+733431573+733206797+733519465+734113230+734124095
2052+733703498+733578503+733754388+733963738+734168323+734405808+734821434
2039+735276419+735236906+734692339+734366911+734544743+734657849+734387513
2025+734258981+734611623+734909940+734885495+734818052+734678348+734446295
2012+734386231+734614902+734890415+734921061+734718835+734546844+734537620
1998+734401965+734086069+734046812+734452188+734841011+734729443+734162531
1985+733567228+733535967+734030823+734264824+734030259+733752338+733699193
1971+733729174+733556261+733281569+733088105+732826635+732398300+732054268
1958+732121814+732661666+733427166+733972809+734012424+733628778+733166926
1944+733152064+733569432+733680590+733284387+732672121+732051091+731552237
1931+731113806+730672146+730055472+729662037+729996895+730243811+730393354
1917+730835783+730582615+730057676+730284041+730766956+730903943+730419388
1904+729628008+729376121+729634209+729961687+730446499+730807186+730796116
1890+731212050+731848967+731761947+731574992+731783676+732166861+732389485
1877+732014243+731428933+730889901+730632787+731583653+732782305+732673402
1863+731902573+731233574+730865917+730737744+730540796+730454340+730423591
1850+730015396+729169282+729110756+730876269+731847480+730746251+729708929
1836+729562000+729197213+728165374+727789158+728017010+727754976+727831131
1823+727898113+727011359+726028976+725697961+725557438+725187320+725002672
1809+724914217+724239427+723025605+722079352+722014676+722175392+721273212
1796+719224807+718191688+719834665+720988116+719586622+717977981+717209816
1782+716307124+715174172+713521202+710809897+708605286+708939991+709588797
1769+708536152+706907575+705045510+704629064+705641018+705504339+705076413
1755+704041039+702050852+702221407+704146354+704358831+702978810+701286224
1742+700277806+700018949+698071812+695842602+697834787+699856594+698490410
1728+696833954+695208196+693450268+691093296+687855104+686900036+689252448
1715+689883573+687507895+684109501+680804225+678915767+677092907+673115097
1701+671191380+672393107+671217517+669380461+666665159+662210737+658205816
1688+653795211+650522171+651545656+651140228+646744332+641694607+638601244
1674+636842496+633915076+631786672+631517668+629436875+626268484+625100478
1661+624595936+622121758+617671077+615312772+620572463+623790309+621130970
1647+621157363+623913920+623927808+622415259+621100887+621866130+627294941
1634+632010987+632306538+632715911+635150064+638054576+641963252+646220726
1620+647931044+650037257+655958618+660337602+661416384+662837609+665103718
1607+667108356+668791769+670389904+671637601+672502369+673632810+675128704
1593+676436465+677574951+678776884+679882776+680735552+681378978+681462411
1580+680469521+680861624+684671237+686290486+684715310+684870081+686008055
1566+685450676+683767314+680782291+680595183+687678092+691090323+688975398
1553+686961586+685886801+685075126+683656413+681915038+680601281+681963314
1539+686169949+686104864+683190563+682692786+682866262+681126579+679723291
1526+679095804+678240209+678786621+679497131+678267268+676763943+674979314
1512+672092740+668649093+667320320+670506289+671122553+666564404+661647054
1499+658938004+657874032+655240318+650212476+645611944+642580694+639078112
1485+634070205+628306383+622305074+615730704+607942410+598485309+587551993
1472+576540933+567605286+563160652+565745322+573200040+578672207+581189382
1458+586171767+595006505+600864216+604275832+608694739+614066254+618471118
1445+620406674+620187535+617968575+614642083+612638930+610939784+607292424
1431+603338086+600087595+596530689+592588752+588408459+584274340+581860584
1418+580902441+579071484+576772833+575168907+574465008+574748054+576361461
1404+578836305+580713847+582268779+583932102+584553440+583307229+578782494
1391+569830960+556243071+538150485+518591115+503167657+497472507+503698694
1377+517943077+533516591+544733516+550324683+554912607+563247109+576210021
1364+592887070+610039911+622859481+630217390+633433186+633157827+629777934
1350+623956815+616352503+608182612+601437636+598314549+600130644+605704539
1337+611779594+616031892+617792536+617151212+614751242+611211504+606694251
1323+601271078+595378416+589753016+584823469+580671567+577422408+575171162
1310+574032726+574200565+575710655+578596871+582721099+587476504+592545089
1296+598042316+603897925+609905998+615982950+622176594+628239862+633570276
1283+637838512+641385988+644831992+648361993+651915209+655404211+658696162
1269+662035159+665737611+669450979+672502984+674773808+676577706+678105118
1256+679442039+680643766+681752939+682951796+684359287+685686880+686639489
1242+687412727+688303478+689185004+689740026+689911709+689840576+689773184
1229+689969774+690418147+690815477+690911773+690893734+691080689+691383926
1215+691577185+691621873+691590868+691481555+691011349+690101226+689098087
1202+688086235+687044147+686063096+684873310+683078021+680691632+678161952
1188+675806364+673428226+670536116+666473335+660699724+652858951+642110540
1175+627023888+606666526+581594194+554244736+529144987+511613675+504984162
1161+509143290+521179731+536964799+552976847+567061949+578031395+585445165
1148+589333188+589503640+585402013+576809014+563762259+546220237+525719328
1134+506429730+493094599+488883505+494943135+509828432+529171533+547328897
1121+559832674+565200089+564973775+561591883+557082574+553343530+551795619
1107+552814337+556061497+560765551+565714419+569719238+572191417+573698483
1094+575840980+580161849+587603856+598198983+610780453+623840635+636438914
1080+648037180+658190441+666843914+674157851+679763060+683063979+684036164
1067+682940624+679437068+672452812+660313003+641466346+616660968+590030322
1053+568206124+557419738+559829137+573617767+595204325+620525468+645884176
1040+668305010+686034909+699076898+708860607+716525084+722085092+725930373
1026+729068989+731714132+733558516+735060355+736645370+737765356+738215472
1013+738627408+739301122+739783217+739635467+739228093+739159420+739021356
999+738254626+737440902+736982637+736508844+735948800+735251973+733905469
986+731823137+729614376+727237007+724246090+720990781+717574552+713173275
972+707187034+699567193+689799372+676376811+656535676+626462306+583963569
959+532307484+481795164+446022851+434232301+447062018+478751307+521119975
945+566071673+607231849+640880267+666133352+684534505+698701400+710554986
932+720545072+728434993+734068080+737583885+739759899+741628062+743636750
918+745613150+747275807+748612523+749758082+750540238+750796532+750723605
905+750288095+749413948+748372116+747139640+745246774+742213782+737714108
891+731466960+723143118+712857635+701886190+692912876+689472970+693799988
878+704415204+717076724+728270536+736569112+741895119+744934312+746424927
864+746929623+746861975+746341648+745652970+745027738+744408245+743839181
851+743220765+742440045+741605974+740657671+739427706+737968813+736394919
837+734545102+732243068+729521718+726139160+721489276+714711911+704091877
824+686277469+658808089+628134239+610662478+617991893+644914246+676128205
810+700352987+715101912+722391917+725371149+726990347+728459336+729643485
797+730452085+730994294+731197854+730923674+730321093+729654452+729105734
783+728723983+728219749+727455684+726670300+725966709+725438490+725053972
770+724508482+723807043+723247819+722951653+722898406+723031499+723037546
756+722559858+721758997+721066527+720478654+719815959+719241565+718800777
743+718530697+718623457+718619972+718062387+717432030+717147857+717083745
729+717187831+717217862+716803723+716345971+716521395+717200694+717614988
716+717344088+716748784+716402703+716337002+716327368+716365189+716374772
702+716331980+716409365+716574744+716816023+717127511+717243487+717340141
689+717822442+718317400+718594655+719263449+720309534+720972178+721113880
675+721202899+720559115+718563650+719462959+725921097+727524767+726167654
662+726434915+727793002+729031526+729864828+730225361+730839370+732243376
648+734053116+735356674+736059138+736867789+738393356+740371653+742014220
635+743418175+745126955+746925472+748404967+749953852+751836980+753712318
621+755225996+756586081+758781877+761468941+763535334+765259079+767062670
608+768898086+770473313+771872347+773681934+776055664+778529842+780462630
594+781940690+783627895+785830301+788163802+790517648+793394896+796236013
581+798236603+800028560+802574230+805458704+807535756+809145935+811157697
567+813643303+816322783+818804186+821365282+824092525+826396301+828511329
554+830831403+833118933+835472216+838200330+841126162+843622633+845269454
540+846860978+849424225+852335246+854684429+857040940+859776690+862318362
527+864846249+867614696+870182351+872809249+875439325+877296060+879115589
513+881607909+883560069+884402698+885057962+886104457+887452909+888742938
500+889780619+890871906+891542544+890689256+889097168+888541736+890200960
486+894856788+901235389+907399668+913625342+920569419+927084648+931893813
473+935110172+937331900+940297039+944824644+949343536+953180311+956085489
459+957981583+960439874+964342656+968571687+971593097+972860372+973495854
446+974968840+976979731+978637006+980329234+982382558+983552255+982610410
432+982246340+985540904+990204318+993062655+995677254+1000630427+1007869183
419+1017727151+1028133785+1034716765+1038430030+1043296900+1049394761
407+1054116701+1057708200+1060706343+1064777015+1073741823
##END=
