##TITLE=27
##JCAMP-DX=4.24
##DATA TYPE=INFRARED SPECTRUM
##DATE=16/11/2015
##SAMPLING PROCEDURE=Instrument type and / or accessory
##ORIGIN=Default
##XUNITS=1/CM
##YUNITS=TRANSMITTANCE
##RESOLUTION=4
##FIRSTX=3996.3359
##LASTX=399.24785
##DELTAX=-1.9287336
##MAXY=1.1297719
##MINY=0.030833229
##XFACTOR=1
##YFACTOR=1.0521821e-009
##NPOINTS=1866
##FIRSTY=0.18125649
##XYDATA=(X++(Y..Y))
3996+172267219+172368167+172506460+172669396+172802761+172913665+173069562
3983+173291525+173547308+173816162+174045985+174201741+174352794+174562904
3969+174825045+175105781+175343550+175497946+175640785+175864844+176087530
3956+176174160+176190206+176295119+176498261+176695100+176870159+177035530
3942+177147794+177239097+177331788+177419933+177570335+177753013+177882441
3929+178033905+178256506+178443404+178589826+178798817+179002511+179072401
3915+179072699+179133285+179237985+179356069+179560854+179786783+179885082
3902+179940230+180027398+180092529+180243739+180521331+180660432+180619078
3888+180718780+180873827+180901741+181046775+181208082+181192844+181241491
3875+181404483+181578422+181640594+181552520+181661427+181940747+181978376
3861+181823456+181820793+182240857+182902456+183060024+182648132+182420036
3848+182520588+182684345+182777716+182880986+183074200+183143637+183040480
3834+183075432+183270431+183451933+183604190+183714542+183892050+184102641
3821+184071102+184129380+184421644+184406150+184216958+184325709+184594946
3807+184641710+184637503+184911923+185050684+184911824+184926496+185042513
3794+185136209+185264660+185375705+185463723+185541558+185599836+185695657
3780+185781054+185774058+185768464+185850010+185972059+186012691+185982596
3767+186013059+186065841+186151820+186284930+186274039+186211357+186434666
3753+186840213+186892401+186590875+186645271+186917496+186692361+186362892
3740+186475311+186683424+186694839+186690321+186736207+186765763+186787898
3726+186770068+186730797+186718079+186633602+186440770+186309968+186378329
3713+186411525+186129755+185756951+185545963+185434209+185154719+184513061
3699+183713395+182948341+182172015+181412414+180712733+179920771+179050549
3686+178426480+178048634+177707779+177554063+177693362+177627565+177238431
3672+177117784+177096187+176836679+176680783+176682567+176591363+176435947
3659+176304593+176015261+175615038+175475923+175395043+174885928+174162979
3645+173685134+173399441+173033023+172538878+172012499+171478048+171016418
3632+170723630+170231863+169234225+168288420+167725319+167271153+166633785
3618+165745790+164851677+164048739+163228383+162385848+161414240+160297398
3605+159252600+158245841+157114214+155974827+154905499+153719419+152453309
3591+151388641+150345060+148931310+147426723+146221099+145104343+143847976
3578+142527454+141188282+139804979+138474530+137234804+135845625+134232442
3564+132726609+131419485+130102759+128736282+127378797+125965967+124405100
3551+122806547+121260777+119611169+117899100+116394117+115069885+113672704
3537+112132938+110623430+109234236+107814842+106231209+104528954+102852531
3524+101313841+99900260+98505289+97032036+95485090+93978067+92580050+91196125
3508+89765380+88345178+86886647+85383001+83984702+82681791+81340989+79981911
3493+78689969+77427470+76124312+74828142+73608965+72358993+70974125+69623729
3478+68442216+67327188+66152359+64836936+63449152+62238869+61283164+60353023
3462+59288734+58178580+57127072+56128609+55173255+54264937+53359155+52394716
3447+51403039+50508586+49675781+48731212+47658910+46624029+45809273+45188167
3431+44569204+43896940+43240578+42608797+41970307+41346582+40757939+40147182
3416+39445692+38714472+38071269+37521626+37038951+36554283+35890298+35086564
3400+34519990+34322973+34121962+33604311+32957448+32563910+32444304+32325880
3385+32070501+31704799+31317467+31033332+30889611+30747009+30425684+29947159
3369+29556383+29438056+29510324+29571361+29546398+29522185+29534198+29506994
3354+29410240+29304080+29319152+29466681+29570447+29587352+29629891+29721935
3339+29877598+30169430+30532944+30820231+31026265+31202336+31357989+31567390
3323+31909158+32330613+32756090+33151682+33491697+33798453+34063020+34237575
3308+34411603+34804065+35499076+36281202+36872985+37261998+37650558+38163097
3292+38774420+39457988+40178105+40876012+41558111+42243771+42936180+43645198
3277+44347010+45003936+45625997+46337175+47250180+48265188+49267107+50290539
3261+51339080+52341349+53264279+54192395+55248573+56383687+57448716+58500652
3246+59736983+61140417+62520632+63820554+65104693+66390319+67709884+69172587
3231+70787652+72434101+74044366+75669282+77341088+78985045+80599495+82274197
3215+84012828+85796260+87633254+89496525+91368684+93273429+95202059+97129974
3200+99092260+101108129+103131773+105158327+107225810+109320356+111421764
3186+113536372+115645272+117743550+119867717+122041933+124241045+126423164
3173+128573318+130703688+132833109+134959740+137098706+139280187+141466086
3159+143596088+145667373+147687774+149691506+151774475+153948761+156096650
3146+158151677+160135227+162047514+163918079+165842744+167826805+169778264
3132+171676148+173559586+175422830+177229877+178954544+180616019+182287734
3119+183987616+185690034+187423142+189158572+190799837+192363126+193925934
3105+195464892+196932586+198363941+199808041+201250371+202631322+203926635
3092+205178555+206435828+207670555+208820239+209907283+210953852+211946732
3078+212969480+214077470+215136515+216013421+216755532+217475762+218221456
3065+218958313+219608228+220144676+220612197+221034144+221402219+221727835
3051+222006659+222198344+222290922+222310437+222258944+222132037+221949557
3038+221675534+221259507+220732901+220116494+219377853+218484915+217421125
3024+216197997+214807571+213200691+211346186+209231153+206840172+204187134
3011+201269023+197988233+194251238+190028807+185260865+179862805+173791846
2997+167021516+159429117+150825724+141097587+130250145+118372357+105584247
2984+92107913+78542456+65943836+55427321+47607335+42415328+39311211+37496562
2968+36251281+35429161+35585238+37562816+41821545+48025834+55108594+61671349
2953+66589446+69308409+69627786+67603633+63677814+58744893+54100394+51031308
2937+50178470+51315974+53729675+56807351+60310246+64223885+68561610+73275036
2922+78244386+83325029+88313922+92875629+96638406+99396831+101151281+102043688
2907+102330570+102302090+102143772+101881970+101409046+100486814+98829241
2893+96265962+92768938+88303676+82797489+76432933+69919180+64520165+61764380
2878+62623895+66802218+73133620+80599934+88674745+97063447+105540578+113872532
2862+121835293+129349347+136520536+143569321+150771299+158344438+166257398
2849+174219953+181874298+188970357+195438904+201324907+206691880+211636326
2835+216309524+220866649+225372294+229789256+234107225+238349412+242474223
2822+246407138+250155349+253776469+257239879+260519805+263697537+266856603
2808+270060732+273336409+276627013+279847430+282941633+285900191+288733641
2795+291403829+293825613+295951522+297833927+299564966+301154271+302588982
2781+303896205+305055009+306083691+307065355+307980909+308777360+309480426
2768+310104779+310641892+311124708+311608261+312153305+312771625+313392267
2754+313958215+314439529+314811597+315083907+315273340+315398364+315511208
2741+315736584+316232599+317076352+318271043+319748778+321301629+322713737
2727+323907522+324916207+325893253+327075311+328610942+330487370+332578695
2714+334697012+336673652+338440125+340009716+341444229+342811415+344112123
2700+345341256+346535437+347687641+348735499+349624513+350357943+350996571
2687+351540964+351901107+352059554+352115013+352202931+352495776+353164456
2673+354263921+355671213+357179539+358658039+360063944+361385301+362641909
2660+363867303+365064939+366206409+367280834+368335348+369406092+370488731
2646+371584740+372642936+373601062+374504692+375411042+376282382+377085886
2633+377885594+378707395+379475522+380163491+380795434+381378433+381925631
2619+382417709+382819687+383162213+383496695+383841798+384185711+384496344
2606+384777746+385067504+385376862+385681348+385961192+386204781+386394724
2592+386551414+386706772+386861678+387017150+387193752+387410122+387673084
2579+388027874+388494971+389008943+389527618+390074305+390660675+391226623
2565+391729266+392229586+392761007+393256569+393668206+394014895+394329918
2552+394645111+394959567+395248985+395528347+395860223+396311854+396872024
2538+397509887+398245781+399041325+399836360+400652723+401518597+402392288
2525+403227969+404064470+404921479+405768432+406646967+407573001+408477963
2511+409361681+410291454+411287818+412292113+413248143+414174631+415105367
2498+416044318+416971004+417846622+418646811+419390466+420118599+420846930
2484+421563761+422257253+422957543+423715048+424504872+425283591+426072282
2471+426879383+427688948+428515479+429372176+430250994+431140660+432034207
2457+432941151+433855318+434729661+435545910+436342418+437144619+437929287
2444+438653596+439324230+440008574+440732260+441461327+442163373+442824972
2430+443449580+444029378+444566435+445076867+445543170+445966222+446381825
2417+446800033+447195384+447568613+447986651+448493769+449068866+449691859
2403+450362182+451043665+451629864+452170972+452721936+453323516+453986220
2390+454655778+455204533+455519867+455631776+455670694+455727569+455783226
2376+455793961+455807557+455900262+456158892+456597040+457081216+457601731
2363+458386683+459649097+461248429+462590094+463242714+463172866+462532567
2349+461866946+461630665+461961719+463067047+464716484+466106471+466959401
2336+467524810+468112341+468899757+469791151+470526535+471107381+471800845
2322+472661111+473469911+474067412+474565467+475150590+475862408+476671123
2309+477534901+478412275+479255602+480020132+480732601+481446374+482160883
2295+482841119+483483288+484106309+484727801+485323234+485832675+486238109
2282+486597828+486980036+487390455+487775382+488097543+488381295+488661423
2268+488928011+489172790+489418701+489689935+490008470+490397816+490867319
2255+491410636+491998479+492515284+492870980+493508277+494089832+494622838
2241+495162869+495741875+496366426+497040601+497752560+498473414+499172287
2228+499819214+500421956+501008948+501596961+502192734+502792190+503368306
2214+503865907+504270888+504629700+504972254+505282745+505568991+505895230
2201+506354140+507019195+507881783+508860671+509870206+510866994+511814386
2187+512668307+513463087+514281376+515150818+516007572+516769722+517450468
2174+518120848+518804653+519477412+520135102+520800270+521486171+522188897
2160+522884485+523563872+524250056+524944398+525621292+526284138+526933501
2147+527535959+528089302+528637661+529209698+529784568+530355020+530976455
2133+531673062+532393633+533098908+533801804+534530191+535289792+536070580
2120+536848705+537587403+538294604+539030639+539791827+540519251+541217559
2106+541934957+542699429+543508655+544343202+545175143+545978307+546745386
2093+547494280+548232865+548937290+549562691+550075134+550481757+550805901
2079+551035554+551170831+551277727+551395329+551486534+551537234+551605779
2066+551805579+552257918+552961833+553810146+554753572+555771151+556804251
2052+557825286+558836576+559794448+560625766+561304246+561854757+562318596
2039+562738362+563164020+563639131+564217060+564957174+565846274+566846802
2025+567951110+569104418+570222095+571308672+572422780+573525672+574539908
2012+575480558+576380875+577210097+577943923+578646195+579376169+580093681
1998+580712453+581225406+581742551+582330960+582931436+583477018+583979151
1985+584496296+585031286+585552623+586070788+586604304+587160027+587715580
1971+588222811+588700812+589206741+589728078+590219618+590686686+591114099
1958+591401704+591527804+591554486+591447986+591142820+590637175+589994836
1944+589338336+588764769+588317868+588012249+587859694+587887905+588095295
1931+588452352+588986661+589832141+591153810+592954839+595076896+597387479
1917+599706616+601757635+603451088+604934998+606365092+607757288+609028030
1904+610141061+611161019+612131523+613051043+613921902+614737359+615548284
1890+616427187+617349029+618212127+618987307+619740223+620470481+621149980
1877+621804498+622401461+622929256+623580545+624542325+625675411+626684266
1863+627488732+628236097+629070644+629963313+630777070+631421675+631907776
1850+632262057+632632085+633272215+634147152+634939949+635545919+636152399
1836+636875575+637645713+638501617+639529846+640611097+641626524+642617761
1823+643601860+644505519+645315650+646103293+646893031+647706051+648605688
1809+649552456+650362361+650932359+651454773+652217773+653124830+653790848
1796+654263977+654987663+656022349+656935128+657485016+657867111+658373606
1782+659048517+659659699+659973702+660107506+660502744+661343126+662256075
1769+662860289+663180693+663481610+663941484+664528420+665137732+665657257
1755+666051531+666479681+667166375+668100284+668940949+669463476+669854521
1742+670321929+670682441+670865699+671349931+672387903+673480995+674133870
1728+674414677+674519873+674383407+674017854+673803042+674103903+674780570
1715+675232909+675135984+674674977+674149731+673590327+672912469+672363205
1701+672164481+672183005+672167597+671762729+670784181+669295966+667446389
1688+665795706+664804299+664140887+663063714+661362216+659531957+657943020
1674+656534849+655336788+654409564+653598752+652785165+652038536+651407811
1661+650672625+649584179+648589033+648587334+649467030+649884700+649609501
1647+649520846+649879432+650144094+650087389+650243625+651418178+653687407
1634+655954258+657514643+658887579+660654845+662876207+665265815+667334395
1620+669064670+671255271+674238330+677142307+679387518+681301957+683186939
1607+685018615+686778914+688481941+690067705+691497063+692817371+694081088
1593+695264138+696336383+697310965+698205163+698984195+699526435+699749801
1580+699921786+700502604+701319477+701688996+701630251+701648095+701757654
1566+701427789+700419614+699378752+699311171+700231540+700769589+700210240
1553+699094320+697981118+696865537+695559560+694172519+693301547+693244785
1539+693102654+692016813+690290277+688424442+686526091+684421482+682027569
1526+679605955+677370884+675096896+672655285+670056927+667164732+663889254
1512+660196161+656342867+652570410+648516580+643781380+638233896+631666000
1499+623866507+614668531+604292377+592556146+578082599+560503235+541459675
1485+522458375+504040158+486651644+471191702+458000821+445666579+431402377
1472+414418956+398148289+385690383+376650258+368459578+359203197+350453367
1458+347938906+357333170+376520674+398784537+419843938+437565660+450421578
1445+457887722+461220529+462761428+464783556+468281551+472323372+475501953
1431+477577444+478983633+480107201+481241136+482603591+484417763+486898462
1418+489954994+493194897+496426756+499754465+503213769+506732496+510264650
1404+513625895+516469711+518436041+518914891+516933663+511946660+504341529
1391+494224825+481206240+467068222+456437150+453546570+460456198+476158340
1377+496321107+516089599+532640451+545641078+556463510+566016786+573947930
1364+579767441+583312001+584758693+584675363+583703329+582215964+580262550
1350+577849320+575655433+575346414+578147858+583213716+588652378+593612926
1337+598355943+603329634+608862276+615116338+622060777+629546266+637427219
1323+645584845+653916891+662248710+670299723+677880495+684945369+691384842
1310+696909950+701224874+704225437+706094104+707262595+708156510+709061698
1296+710218122+711842068+713958799+716406925+718985286+721352914+722964001
1283+723298227+722156418+719789356+717076455+715528872+716610973+720822910
1269+727418507+735081306+742711646+749639374+755537003+760202865+763450302
1256+765159674+765149477+763063959+758677998+752001507+743053974+732124986
1242+720337148+709420397+700957719+696520264+697780469+705457600+718548922
1229+734778689+751749194+767711353+781637789+793292162+803024675+811211021
1215+818081760+823862523+828815537+833233108+837315149+841022857+844294540
1202+847260094+850053890+852654797+854926519+856891999+858694784+860421944
1188+861930949+863060749+863933024+864771366+865608180+866241171+866546224
1175+866677818+866682634+866315891+865401639+864026551+862323127+860218915
1161+857650694+854901197+852260693+849608632+846635827+843091947+838696639
1148+833096698+826091192+817804125+808650674+799284281+790411751+782586936
1134+776002499+770368569+765368424+761040074+757370435+753883543+749842685
1121+744609828+737549203+727548232+712883212+691670351+662373394+624044271
1107+576926231+524212895+473032555+431565751+403942676+388498426+381292894
1094+380245490+385562811+397505327+414529166+433084387+448385882+454957743
1080+447007933+419550583+371351036+309576785+250859321+213172848+203429799
1067+211897886+218621169+208083085+179954250+146001416+118862969+105225958
1053+107041829+125462474+162296202+218642667+292519014+377727205+465279515
1040+546251013+614341442+666815550+703633459+725789689+733366270+723967757
1026+691736346+629320691+538231384+440669238+373344812+362145497+404191193
1013+475262499+551534855+622318924+686102586+742614437+790393566+827863274
999+854515987+871296605+879976134+881998772+877914975+867688599+851152420
986+827850471+796209055+752831749+692585509+610359498+506434128+393416884
972+295533286+236981915+230812897+277418678+366399099+478931912+594851207
959+699696947+786351915+853415588+903084005+939202020+965599078+985070675
945+999435740+1010153882+1018424351+1024781684+1029417692+1032713621+1034993954
932+1036307408+1036566632+1035635669+1033498884+1030347862+1026102502
920+1020200738+1012145760+1001777140+989206249+974882990+959707057+945336496
907+934524998+930026306+931776578+935480546+934815832+924694709+902333297
893+867080477+821759783+774699525+737362659+716807997+713653520+729625876
880+768394139+824912051+883769948+931394200+963430003+981444598+987974029
866+984188090+970337167+949202763+929808832+924476839+938148016+963214172
853+988053224+1006775586+1019181970+1026638172+1030635523+1032711808+1033710863
839+1033582384+1032302805+1030341404+1028233963+1026064888+1023456900
827+1020310183+1017042578+1013820293+1010242820+1005988397+1001197398+996051893
814+990419209+983902581+976374548+968447823+961266593+956105565+953785465
800+953839848+954633608+954736595+953575186+951118449+947771310+944066265
787+940079053+935505245+930408740+925142460+919668109+913518450+906314165
773+898446070+891067534+885430658+881851316+879073835+875099766+868363851
760+858320677+846422601+837005508+834726421+839739030+847501587+853666031
746+856919870+857768296+857034414+855352460+853182706+850824538+848300899
733+845570040+842671218+839785708+837015195+834067145+830189718+826927665
719+824281609+821882088+819360942+816457248+813387573+810443659+807679604
706+804987152+802244510+799470712+796835589+794423831+792178904+789991078
692+787776911+785571751+783538972+781756638+780214153+778911235+777696519
679+776374624+774973761+773504976+771866132+770767999+771234387+771983394
665+771072485+769870458+769473352+769649359+769990157+770239581+770497388
652+771154852+772313089+773631699+774839107+776011676+777345241+778900755
638+780591546+782354054+784267530+786430090+788740504+791063096+793667176
625+796485047+799308923+801727705+804055906+807313824+811479365+815383643
611+818517104+821385166+824598105+828277375+832182673+836154929+840107189
598+843879986+847648987+851797534+856222130+860447265+864425923+868520031
584+872768563+876861084+880799861+884974977+889382351+893734436+897991239
571+902210200+906567780+911037582+915156841+918785864+922470176+926683245
557+931300163+935845817+939985810+943825282+947666000+951737392+955946723
544+959913938+963536842+967029115+970684989+974535621+978188323+981463065
530+984614653+987751740+990579525+993039547+995592019+998462177+1001215639
517+1003599752+1006035755+1008481275+1010152636+1010922377+1011415333
505+1011743555+1011536901+1010739289+1009536072+1007753454+1004632230+999789681
492+993852681+987375933+980424810+973574748+968266434+965972165+966710523
478+968484531+968898519+966734089+961769972+954633268+947035954+941965735
465+942780908+950476621+963234792+978959990+995289289+1008578711+1017518427
451+1023466303+1027050120+1028244273+1027921716+1027470226+1026986561
440+1025640250+1024193331+1024060547+1025091325+1026968999+1030174630
428+1034665845+1039567308+1044128767+1048527644+1053658648+1059260061
417+1063425660+1066066844+1068423879+1070375310+1072002938+1073590118
405+1073741823+1071502164+1068337320+1067035875
##END=
