##TITLE=27
##JCAMP-DX=4.24
##DATA TYPE=INFRARED SPECTRUM
##DATE=16/11/2015
##SAMPLING PROCEDURE=Instrument type and / or accessory
##ORIGIN=Default
##XUNITS=1/CM
##YUNITS=TRANSMITTANCE
##RESOLUTION=4
##FIRSTX=3996.3359
##LASTX=399.24785
##DELTAX=-1.9287336
##MAXY=1.1439331
##MINY=0.030838042
##XFACTOR=1
##YFACTOR=1.0653707e-009
##NPOINTS=1866
##FIRSTY=0.16040239
##XYDATA=(X++(Y..Y))
3996+150560167+150729323+150875738+150997787+151103877+151266208+151469688
3983+151627866+151745467+151886384+152056674+152206641+152353097+152572942
3969+152846552+153093560+153294508+153448965+153550971+153641018+153751570
3956+153863297+153982199+154141775+154327492+154527336+154780889+155010847
3942+155094684+155133371+155229069+155340684+155451586+155522863+155572502
3929+155725644+155942216+156074937+156162830+156310321+156468219+156578113
3915+156706191+156901307+157076184+157192569+157367236+157575612+157645350
3902+157612859+157610845+157673576+157867280+158125644+158178291+158098090
3888+158222713+158353658+158302913+158373855+158478001+158492015+158663984
3875+158912390+159088260+159152460+159073168+159125773+159313770+159339701
3861+159266271+159351912+159802498+160348921+160208647+159575799+159427301
3848+159755922+160073367+160211557+160325256+160509071+160540079+160426618
3834+160471096+160612545+160695725+160790597+160942550+161224287+161467980
3821+161381793+161379275+161615877+161639360+161638871+161931699+162229787
3807+162170398+162063693+162268474+162321051+162167363+162265901+162422721
3794+162470346+162562072+162686135+162810562+162919128+162967634+163031736
3780+163113740+163120748+163124468+163222894+163374035+163445242+163426570
3767+163438067+163488769+163622973+163790941+163779891+163759275+164042424
3753+164386318+164264563+163888401+164021052+164355184+164109673+163801403
3740+164025332+164318538+164274004+164127674+164108918+164218141+164388109
3726+164465861+164417831+164354778+164294145+164231722+164225162+164298425
3713+164257304+163929508+163565921+163396260+163328928+163109922+162613529
3699+162028264+161459546+160851132+160252818+159670378+158922600+158084369
3686+157563416+157382944+157283511+157304002+157459507+157301414+156884551
3672+156833765+156844632+156544853+156364562+156404383+156378367+156267759
3659+156160900+155891080+155512974+155395694+155306738+154766972+154055854
3645+153647830+153440265+153141367+152755078+152391211+151986250+151574100
3632+151305343+150843596+149899429+149067044+148634571+148245416+147614694
3618+146776197+146046910+145475254+144852938+144142910+143285126+142297557
3605+141397477+140576408+139669613+138722495+137795182+136783151+135751090
3591+134871500+133894604+132524300+131142023+130135377+129273229+128293899
3578+127226410+126129730+125017134+123961156+122939599+121710143+120274353
3564+118991774+117890717+116717074+115444406+114195416+112986989+111753525
3551+110524125+109276940+107845192+106315634+104976695+103836286+102686827
3537+101425781+100132964+98902675+97686786+96391004+94987299+93522493+92118069
3522+90841497+89607439+88344939+87102516+85921475+84762820+83551197+82302515
3506+81082933+79819433+78505699+77283879+76130881+74937881+73747987+72652706
3491+71616932+70530994+69398397+68319082+67225122+65993673+64799603+63802950
3476+62842237+61746732+60533955+59345536+58309059+57421587+56577541+55668355
3460+54717646+53819495+52943703+52056196+51212689+50403740+49578149+48753014
3445+47960950+47180544+46392487+45577971+44724886+43916332+43193167+42511183
3429+41917984+41454761+41019316+40500041+39887449+39252671+38664360+38093093
3414+37496981+36903096+36338175+35842087+35407897+34871894+34191539+33653099
3398+33394594+33150646+32705781+32199010+31906857+31830632+31715922+31452739
3383+31121936+30794169+30508519+30287209+30083393+29800698+29421323+29098844
3368+29005152+29099937+29176267+29125605+29057104+29078569+29130420+29094040
3352+28973183+28945834+29091050+29253815+29341675+29410836+29484715+29595777
3337+29808174+30088589+30373526+30626743+30797526+30923757+31154131+31540370
3321+31961122+32318164+32639504+32986077+33326282+33558149+33700769+33911680
3306+34325554+34937457+35597083+36139856+36535005+36894341+37341077+37924356
3290+38609497+39305716+39976122+40649074+41316708+41966078+42613602+43233967
3275+43812794+44408095+45116311+46000300+46964472+47852349+48659662+49487801
3260+50370615+51274133+52238788+53294496+54337075+55315915+56332559+57470734
3244+58698819+59949990+61189678+62393259+63550984+64748047+66101085+67570283
3229+69037774+70478425+71920607+73379636+74868829+76411226+77992095+79577985
3213+81178960+82797083+84426821+86092150+87789347+89496538+91229562+93011401
3198+94843823+96687196+98498211+100312443+102151166+103982329+105817031
3184+107672846+109548040+111446325+113357297+115274151+117193277+119089822
3171+120963428+122853077+124766769+126674517+128554571+130400148+132214254
3157+133990945+135723145+137472688+139312278+141201325+143071980+144914102
3144+146684401+148335435+149969685+151745733+153618472+155379428+156946680
3130+158456936+160035127+161625444+163127084+164541460+165948368+167413111
3117+168953970+170547966+172090098+173496194+174842511+176216731+177580545
3103+178888244+180156668+181408251+182652758+183863542+184989482+186053265
3090+187108403+188127722+189089358+190040281+190983539+191883969+192767839
3076+193666913+194529970+195298701+195998112+196675117+197340974+197985711
3063+198574571+199079691+199528752+199949043+200302951+200565904+200785497
3049+200983159+201105474+201128398+201093068+201017944+200890440+200698919
3036+200405517+199981073+199445027+198813969+198068415+197176307+196126931
3022+194925448+193570586+192041181+190284295+188263618+186006003+183531872
3009+180760214+177581706+173982768+169939231+165339913+160131538+154306344
2995+147725064+140233758+131766046+122299800+111847706+100441724+88266584
2982+75922142+64386872+54671762+47390686+42523296+39577970+37822975+36595641
2966+35810613+36008464+37899819+41908519+47761442+54392805+60475965+65043561
2951+67575031+67836151+65925046+62305576+57759729+53438595+50576285+49812327
2936+50929658+53235147+56119221+59346801+62945522+66958750+71311222+75850278
2920+80455330+84992239+89185268+92687004+95277414+96921420+97749573+98025911
2905+98018687+97892260+97696892+97326779+96509787+94988097+92653415+89472263
2889+85397591+80384529+74551705+68490029+63437223+60881248+61688442+65560599
2874+71444740+78354039+85732310+93347427+101015750+108505930+115660250
2860+122419401+128848672+135135530+141511609+148194224+155200732+162245200
2847+168981524+175234058+180942224+186105086+190808704+195169308+199272234
2833+203197568+207039919+210858506+214656659+218386485+221992109+225474522
2820+228833502+232030444+235049446+237910900+240652124+243361597+246163691
2806+249068784+251946938+254709534+257372487+259940329+262383381+264687572
2793+266818214+268703555+270336350+271823654+273236044+274519868+275639570
2779+276654426+277613587+278493163+279265712+279937779+280520415+281042319
2766+281560923+282098269+282623279+283120063+283618218+284151928+284687679
2752+285150756+285508063+285751770+285904142+286034500+286216049+286499813
2739+286952567+287686512+288751721+290058595+291435179+292691057+293714194
2725+294564929+295441344+296525407+297889879+299528884+301363564+303240653
2712+305006463+306565044+307904339+309119235+310317990+311499318+312618237
2698+313666858+314647363+315554549+316357980+317038999+317635286+318160631
2685+318548542+318755995+318849986+318939446+319170452+319735325+320697591
2671+321921634+323222410+324503324+325764517+326994854+328170532+329306850
2658+330379556+331362802+332316397+333285153+334247335+335186942+336103247
2644+337000167+337907045+338808748+339635566+340390603+341130255+341874243
2631+342605978+343288535+343897018+344451260+344995320+345515658+345969419
2617+346386479+346784124+347119864+347429113+347784630+348148652+348459523
2604+348731455+348995806+349270983+349550384+349795154+349987612+350155398
2590+350325954+350509657+350718005+350955361+351231881+351561075+351922131
2577+352293510+352705506+353200360+353752028+354300033+354825070+355327729
2563+355822275+356313045+356759337+357153458+357511130+357833134+358145908
2550+358450233+358749636+359089851+359485707+359942964+360479891+361097074
2536+361769281+362456650+363159236+363922358+364738797+365543096+366320596
2523+367101369+367877750+368646578+369453031+370290535+371099589+371898349
2509+372742734+373640017+374565526+375492014+376403368+377290497+378157205
2496+378985197+379744347+380467270+381191480+381893563+382548595+383169638
2482+383779520+384416536+385129389+385905043+386682571+387436265+388167888
2469+388886588+389618295+390372353+391153881+391981986+392848526+393732018
2455+394590278+395364393+396076351+396807695+397572691+398310860+398984941
2442+399637762+400323677+401021843+401692260+402322731+402902065+403464196
2428+404050049+404642167+405199179+405664017+406033661+406390158+406779131
2415+407179910+407577444+407996461+408483763+409053194+409669370+410302163
2401+410923150+411460860+411971995+412499886+413073458+413713076+414397815
2388+415032537+415477319+415664546+415667596+415645105+415659287+415657273
2374+415692716+415866125+416139064+416422940+416724441+417094672+417792083
2361+418862831+419952406+420805742+421538820+422396912+423240990+423473563
2347+422694916+421745462+422208426+424085319+425892362+426977208+427556683
2334+428022360+428570616+429206178+429871196+430534088+431205652+431874558
2320+432583466+433341693+434013984+434534098+435041792+435706642+436514466
2307+437356865+438166646+438877289+439505018+440144133+440816256+441472266
2293+442121703+442774217+443404743+443966258+444433586+444838925+445245802
2280+445677547+446104398+446487189+446813894+447110498+447403886+447692574
2266+447968702+448243292+448542946+448901428+449334573+449827496+450366829
2253+450942667+451455816+451805934+452418753+452995710+453568079+454139721
2239+454710020+455310922+455951211+456620118+457306340+457980533+458612934
2226+459228690+459850740+460448118+460996122+461519761+462054394+462578033
2212+463050536+463463623+463813350+464109507+464418728+464807058+465306053
2199+465947768+466746417+467691647+468710140+469671791+470522022+471300865
2185+472068350+472871810+473704978+474514703+475251921+475892910+476494623
2172+477132199+477801833+478493621+479181494+479827238+480460618+481110054
2158+481783380+482502136+483242095+483932373+484558815+485165229+485768173
2145+486364627+486951851+487535941+488122437+488702163+489298617+489938767
2131+490614163+491324638+492072989+492818432+493513074+494191883+494914051
2118+495656192+496379871+497113228+497866447+498599134+499296685+499975494
2104+500673437+501418935+502201974+503010916+503830433+504626787+505354606
2091+506020827+506676306+507295307+507801518+508198968+508540862+508833131
2077+509071075+509278640+509454874+509578517+509664173+509778305+510036670
2064+510527328+511216543+512021346+512918013+513890937+514881373+515853122
2050+516825934+517773962+518581841+519203640+519726412+520209517+520648424
2037+521108702+521662693+522282701+522977231+523814371+524773364+525782542
2023+526821316+527876595+528918558+529931205+530912409+531866255+532793694
2010+533684767+534509095+535249390+535940731+536628995+537310937+537921323
1996+538442080+538950362+539514031+540138236+540756845+541329802+541907626
1983+542491101+543011411+543481872+543993118+544576034+545161690+545678028
1969+546157441+546686087+547269226+547830937+548332673+548775440+549105530
1956+549301177+549423870+549478698+549363391+548986250+548425266+547857960
1942+547404899+547122476+546981098+546941822+547047115+547344755+547811300
1929+548408817+549224250+550430866+552070458+554018936+556123954+558208552
1915+560079039+561671859+563080221+564428888+565740629+566961735+568075758
1902+569115596+570082142+570960291+571770912+572556132+573373523+574246525
1888+575148284+576005901+576773274+577505065+578234003+578946996+579629721
1875+580225728+580729142+581311274+582196137+583343113+584439513+585313802
1861+586077483+586886034+587765358+588622695+589327016+589831829+590169359
1848+590497266+591056460+591890579+592797820+593593615+594312818+595051379
1834+595795534+596577063+597479661+598478936+599498632+600552344+601644995
1821+602639739+603478725+604277373+605086987+605889719+606734692+607644619
1807+608484557+609112957+609637519+610329979+611201695+611945123+612501015
1794+613181167+614142734+615139100+615857519+616306273+616774049+617433276
1780+618126240+618587413+618822112+619179000+619901840+620803207+621549825
1767+622050161+622465011+622941626+623510890+624142088+624726961+625200276
1753+625629280+626195075+627033334+627931736+628584530+629052809+629527578
1740+629910146+630158888+630619390+631550242+632700855+633597299+634122756
1726+634392870+634374855+634084376+633800276+633876308+634442495+635115989
1713+635409153+635256641+634858631+634312921+633690283+633204437+632931917
1699+632904839+633095451+633078611+632529824+631395212+629783873+628242356
1686+627192504+626509052+625764952+624588156+623132239+621722926+620491581
1672+619523244+618794586+618184145+617586516+616967235+616414531+615856121
1659+614971258+613954639+613620857+614187771+614658288+614532519+614487369
1645+614990336+615533025+615640220+615693985+616533755+618476414+620694278
1632+622352277+623689530+625278322+627311560+629580001+631653241+633442101
1618+635558980+638368263+641198806+643449232+645336783+647197255+649041223
1605+650793829+652459381+654026578+655462634+656795859+658079403+659294858
1591+660413413+661447600+662410509+663268517+663891099+664160486+664304606
1578+664804607+665634530+666184996+666278708+666327270+666529240+666431164
1564+665639397+664591672+664243623+665018438+665926295+665930659+665244689
1551+664419746+663510210+662307398+660892602+659919286+659846163+659999123
1537+659449721+658176471+656657669+655155595+653438068+651316266+649080834
1524+646994558+644941851+642913928+640844548+638503880+635781706+632553937
1510+628984889+625455284+621972395+618197516+613608996+607812797+600755321
1497+592503482+583267584+572696504+559491480+543504698+526309678+509119302
1483+492323354+476382729+462173450+449975309+438473266+425199090+409533670
1470+394584879+383084402+374662567+367031827+358401895+350152237+347733299
1456+356668311+374946388+396067875+415922184+432548080+444606715+451648274
1443+454807480+456219255+458026410+461288027+465219978+468382037+470423946
1429+471800363+472942863+474098064+475419316+477092756+479377757+482331832
1416+485593058+488838339+492108236+495481581+498889612+502253613+505425155
1402+508092388+509900382+510357136+508665121+504290264+497452437+488149627
1389+476067745+462999652+453273125+450734179+457278981+472002109+490825923
1375+509185543+524540680+536665865+546766204+555605994+562876014+568202367
1362+571516911+572968632+573015124+572230967+570954304+569228162+567080008
1348+565148594+564958821+567620739+572342637+577423438+582136665+586699450
1335+591455476+596666354+602517718+609059863+616144753+623560572+631160401
1321+638853886+646529132+653998381+661102405+667754542+673796686+678925881
1308+682900156+685694613+687491753+688662507+689596044+690543456+691688474
1294+693228145+695236598+697596176+700087063+702368036+703967179+704426506
1281+703535489+701507510+699158058+697866010+698958382+702891647+708996955
1267+716084867+723129083+729511499+734984994+739391741+742517406+744199687
1254+744290321+742508791+738619500+732600351+724497163+714567575+703801295
1240+693805353+686083671+682103130+683402842+690622454+702828371+717955130
1227+733781399+748634184+761552702+772338284+781342615+788954473+795359156
1213+800714658+805305584+809448708+813302639+816796326+819860170+822633367
1200+825289802+827794396+829977126+831857683+833595519+835238860+836649236
1186+837753189+838685383+839574778+840421821+841108071+841526948+841761983
1173+841877458+841691098+840998190+839835605+838363071+836573036+834392041
1159+832016406+829720383+827452614+824903990+821787388+817882208+812895902
1146+806567084+798995341+790656391+782150551+774069910+766957550+761029930
1132+756005133+751563698+747710438+744417993+741267711+737614798+732901739
1119+726536723+717423742+703915931+684275341+657023285+621180740+576956670
1105+527315164+478911884+439583540+413425338+398890306+392221021+391498013
1092+396925184+408697957+425308411+443283925+457970407+464151719+456308491
1078+429575906+382565854+322004856+264098698+226793942+217259091+225891260
1065+232674678+221977856+193359077+158623883+130749973+116867370+119107669
1051+138480201+176467795+233706528+307577858+391340270+476115356+553681741
1038+618344994+667711127+702110343+722815778+729898318+720938857+690322688
1024+630980027+544028533+450351919+385364312+374529412+415198701+483695940
1011+556810820+624229590+684622494+737900073+782840158+818045350+843026225
997+858736738+866962227+869053650+865472238+856168085+841011226+819573943
984+790250997+749667363+692797182+614546506+514811271+405303017+309514867
970+251810539+245868988+292124087+379538460+488849136+600183483+699913403
957+781727533+844648026+891013312+924635364+949166701+967258613+980650054
943+990658024+998370252+1004346098+1008757769+1011918905+1014174253+1015554698
930+1015910075+1015167207+1013385396+1010666132+1006831838+1001396443+994035117
916+984636413+973159490+959938353+945914147+932751811+922979994+919003202
903+920745290+924355795+923986990+914829643+894244327+861539308+819237532
889+775156855+740259148+721347217+718915074+734384679+771052391+824093984
876+879103525+923455267+953099575+969567000+975433973+971949237+959180378
862+939484345+921310862+916266594+928965687+952325488+975564330+993212915
849+1005024292+1012178388+1016067623+1018138793+1019179078+1019192058
837+1018145954+1016452541+1014586473+1012578412+1010137430+1007279864
825+1004409766+1001629184+998472076+994562477+990148344+985535263+980448532
812+974410920+967462485+960291604+953909133+949388253+947355127+947308019
798+947861674+947850596+946798451+944650745+941680389+938327969+934701128
785+930559906+925940447+921093618+916008174+910359843+903758786+896466834
771+889631190+884471727+881149183+878400211+874491115+868150996+858835653
758+847778894+839034103+837009873+841886130+849317278+855142570+858252906
744+859188905+858683756+857303368+855356289+853123095+850764468+848242362
731+845605453+843031987+840525659+837829949+834318023+831275439+828794623
717+826557177+824156925+821458249+818660268+815881028+813244342+810807165
704+808395387+805877254+803420998+801215275+799215829+797218789+795131730
690+793063525+791189961+789520101+788033412+786853539+785925933+784918769
677+783760099+782800994+781718190+779460939+777572325+779064104+781305075
663+781056892+779452491+778745988+779168222+779854304+780311842+780782974
650+781693405+782942094+784139310+785277615+786642058+788299722+790012046
636+791654939+793433169+795555419+797896423+800224336+802793381+805441424
623+807956424+810079570+812211834+815307176+819379247+823341493+826619223
609+829655652+832998225+836552727+840034050+843654401+847625319+851520652
596+855044830+858643754+862629833+866677175+870609601+874619066+878734328
582+882780047+886738265+890799817+894925597+898924041+902755762+906555257
569+910667050+915133213+919417156+923272319+927130447+931184838+935288351
555+939463868+943530791+947184823+950683210+954643609+959017460+963184976
542+966890592+970326317+973888372+977561202+980912447+983921071+986820485
528+989720011+992576906+995232837+997663525+1000003914+1002314762+1004678985
515+1007148724+1009380686+1011018265+1012187340+1013051167+1013357311
503+1012915774+1012063025+1011038518+1009385610+1006377881+1001815041+996297851
490+990431438+984227103+977919601+972762600+970396811+971047590+972828729
476+973479285+971616463+966679446+959605578+952494672+947817587+948417007
463+955521423+967563974+982412059+997666099+1009764149+1017707551+1023279458
449+1027115095+1028608441+1028249930+1027687212+1027387894+1026432985
438+1025065520+1024585828+1025394602+1027488935+1031113315+1035702898
426+1040012073+1043675952+1047694425+1053113147+1059085525+1063327004
415+1065681827+1067269165+1068007557+1068145188+1068589857+1069934719
403+1072340790+1073741823+1072985863
##END=
