##TITLE=27
##JCAMP-DX=4.24
##DATA TYPE=INFRARED SPECTRUM
##DATE=16/11/2015
##SAMPLING PROCEDURE=Instrument type and / or accessory
##ORIGIN=Default
##XUNITS=1/CM
##YUNITS=TRANSMITTANCE
##RESOLUTION=4
##FIRSTX=3996.3359
##LASTX=399.24785
##DELTAX=-1.9287336
##MAXY=1.0956571
##MINY=0.02512927
##XFACTOR=1
##YFACTOR=1.0204102e-009
##NPOINTS=1866
##FIRSTY=0.28471935
##XYDATA=(X++(Y..Y))
3996+279024404+279096280+279235126+279460219+279687881+279882920+280114555
3983+280408954+280728937+281037384+281305497+281577231+281908664+282264366
3969+282618112+283005328+283407176+283722662+283928741+284157542+284468092
3956+284769792+285033758+285277309+285449304+285534119+285652638+285875715
3942+286098967+286285653+286479641+286670796+286858855+287009383+287110787
3929+287277204+287523150+287706624+287833525+288059990+288340194+288495104
3915+288560000+288721043+289016522+289372663+289755060+290004218+289923521
3902+289652050+289435398+289421642+289780791+290302560+290438018+290295784
3888+290464187+290728591+290700261+290668689+290669594+290667404+290989957
3875+291506031+291844268+291838924+291552849+291418821+291434564+291239291
3861+291096210+291498233+292449042+293114213+292390980+291013030+290671113
3848+291283743+291924994+292246613+292475298+292705414+292617853+292266824
3834+292149824+292314810+292526964+292737716+292955331+293266553+293534432
3821+293434284+293335567+293393454+293153379+293010473+293468222+294028718
3807+294064116+293918319+294091132+294085495+293744104+293638640+293714781
3794+293768929+293892092+294056581+294208132+294343123+294440059+294512490
3780+294481882+294296831+294201794+294394789+294696898+294747016+294474814
3767+294184300+294090256+294252584+294496427+294495112+294463482+294850348
3753+295334791+295148280+294518682+294398118+294399958+293733648+293304112
3740+293841419+294447973+294268209+293646759+293219998+293140119+293222977
3726+293195669+292987487+292704041+292393988+292186565+292290277+292586252
3713+292419164+291387980+290185005+289531720+289225347+288589031+287300511
3699+285744667+284277872+282878690+281496622+279939318+277894386+275737477
3686+274336630+273719503+273404076+273375746+273522945+273101821+272165615
3672+271623139+271200934+270461842+269986744+269926842+269846087+269620995
3659+269274813+268637709+267968916+267741574+267357863+265973109+264218750
3645+263104386+262499175+261817298+260921981+259975145+259037450+258208811
3632+257452545+256033590+253717683+251818549+250930797+250228270+248877074
3618+246908896+245054097+243561440+242077136+240340243+238201939+235882965
3605+233880076+232091355+230081851+227887690+225676283+223342399+221021542
3591+218973222+216757872+213882681+210947514+208619501+206595729+204387535
3578+201905211+199264370+196645682+194220661+191874321+189154988+186040437
3564+183147284+180619121+178086693+175460353+172864257+170242663+167458449
3551+164642283+161880426+158946326+155901037+153098890+150519368+147879944
3537+145118145+142412511+139873906+137373810+134760964+132043982+129276430
3524+126505417+123862795+121400747+118943329+116422854+114000067+111732241
3510+109469847+107144382+104865574+102580604+100211490+97941715+95864948
3497+93847236+91811037+89819611+87873097+85869938+83845991+81947265+80084522
3481+78091249+76174671+74533968+72948231+71174676+69236836+67310263+65610118
3466+64226532+62971650+61585837+60081892+58664938+57381295+56121153+54849353
3451+53603157+52349327+51050993+49800657+48624216+47440780+46224903+45033162
3435+44023306+43222216+42455965+41659625+40893677+40158903+39394810+38576529
3420+37772303+37047470+36300196+35464617+34665875+33988093+33436366+32915524
3404+32171912+31208384+30498896+30262740+30063488+29524009+28858744+28499768
3389+28464988+28390154+28078403+27617062+27164146+26832692+26616636+26387697
3373+26000622+25474917+25070544+24991687+25101094+25135187+25053847+25012137
3358+25059966+25080312+24951651+24711050+24626635+24815158+25021573+25076723
3342+25076909+25092100+25157522+25362727+25663191+25902062+26051793+26177538
3327+26347805+26654916+27093745+27530688+27911856+28267696+28604517+28923812
3312+29157582+29208877+29225318+29561623+30301582+31118177+31695398+32048800
3296+32415729+32938878+33602184+34368347+35142787+35841250+36511635+37200741
3281+37903829+38607414+39282103+39928663+40584434+41357873+42366561+43524679
3265+44653328+45719877+46764094+47783307+48814662+49973065+51260285+52521066
3250+53678199+54830720+56131357+57634666+59277012+60942723+62498655+63891149
3234+65296910+67002502+68996980+70989326+72867666+74766245+76765571+78817702
3219+80910605+83075487+85307229+87617470+90013322+92447200+94876712+97312854
3204+99806028+102393122+105046120+107711713+110403745+113157621+115953576
3190+118769362+121637266+124586656+127567355+130529786+133525409+136611455
3177+139758834+142933462+146121437+149289509+152442597+155624980+158847054
3163+162077875+165299174+168530171+171740942+174823833+177831606+181004482
3150+184384488+187776426+191045624+194184941+197258370+200342824+203490992
3136+206719491+209942703+213030954+216006674+218984131+221959996+224871885
3123+227720733+230549822+233388331+236236638+239085675+241879425+244576181
3109+247245994+249921780+252528727+255034358+257478101+259911709+262352005
3096+264741220+267007009+269152439+271256484+273370781+275443955+277397208
3082+279209133+280942464+282687856+284454073+286161527+287724790+289122249
3069+290417107+291673354+292864179+293961047+294999737+295962287+296750679
3055+297357351+297901784+298420340+298814099+299017578+299066615+299008962
3042+298830074+298497153+297980728+297242366+296287089+295153771+293832423
3028+292255988+290373940+288194630+285746273+283016660+279929095+276390032
3015+272349177+267789969+262706919+257054552+250726704+243624715+235665802
3001+226757658+216844761+205897569+193800690+180338288+165377637+149048441
2988+131644368+113486140+95111917+77497457+61935917+49557366+40741549+35051130
2972+31664468+29671454+28352491+27530666+27624361+29379958+33353051+39452065
2957+46794220+53911425+59380194+62425545+62832344+60656933+56372180+51009101
2941+45975073+42611612+41590899+42702834+45216573+48453765+52158767+56372049
2926+61136273+66401979+72062100+77994678+83981661+89629698+94446497+98038898
2910+100302789+101435099+101825229+101836546+101633592+101284490+100719854
2897+99595137+97523890+94292200+89876666+84345702+77712283+70198371+62626118
2882+56416592+53178864+53898658+58307337+65248669+73666083+83058299+93182569
2866+103741960+114372775+124754183+134715796+144335842+153944016+163998111
2853+174806587+186274335+197990380+209470103+220318577+230341772+239536736
2839+247981290+255821261+263264086+270479687+277583164+284658108+291731620
2826+298749436+305618943+312259239+318592870+324608913+330367591+335904155
2812+341263262+346593543+352049556+357618043+363196431+368708024+374068591
2799+379204563+384062871+388585542+392713373+396394554+399643512+402561593
2785+405230019+407646512+409806458+411754805+413545701+415192231+416641823
2772+417851836+418846980+419689667+420477329+421261604+422013898+422775946
2758+423637442+424566988+425435494+426143657+426655291+426954947+427050335
2745+427009884+426975275+427147358+427753299+428999528+430939172+433361477
2731+435909836+438246480+440171316+441752599+443296468+445172501+447637827
2718+450738622+454310922+458011934+461466387+464503161+467146645+469462202
2704+471589583+473682968+475749454+477716054+479516384+481120360+482536190
2691+483757915+484754402+485453511+485810032+485859828+485695631+485536632
2677+485709592+486535689+488195625+490496929+492978289+495359589+497621143
2664+499790522+501884082+503895398+505824293+507691155+509469346+511167220
2650+512846695+514514136+516157044+517777230+519354950+520849841+522241459
2637+523538448+524757633+525954737+527146935+528244855+529202469+530080349
2623+530900810+531613033+532207379+532694539+533045948+533276853+533494498
2610+533792284+534134698+534431783+534665667+534856851+534993594+535072159
2596+535122510+535156623+535173271+535174731+535167722+535176425+535217606
2583+535311241+535487647+535766099+536173584+536712088+537316306+537958843
2569+538663180+539388079+540075535+540705863+541275151+541781119+542192401
2556+542486683+542690718+542850125+543002056+543181733+543435067+543824036
2542+544393557+545100698+545895925+546825968+547882649+548958722+550055007
2529+551225125+552425033+553634988+554870002+556096138+557300193+558532754
2515+559812687+561074805+562312740+563606634+564983239+566418141+567883066
2502+569324510+570699130+572027253+573317058+574505635+575557351+576523492
2488+577482215+578448065+579377349+580266970+581177269+582157021+583187650
2475+584215358+585221863+586247994+587322900+588413694+589518390+590708602
2461+592020428+593388739+594707984+595916479+597028769+598117635+599224784
2448+600316337+601352282+602324148+603255242+604175472+605076600+605958979
2434+606820854+607620696+608366739+609098647+609797026+610416665+610938639
2421+611365166+611714823+612020437+612307184+612622903+613043531+613583612
2407+614218614+614942052+615710759+616436359+617035787+617626454+618288734
2394+619064451+619966748+620984643+622044653+622974463+623611976+623914552
2380+623984998+623904681+623619862+623157001+622645601+622145123+621601128
2367+620992645+620387843+620066750+619951385+619625152+619052710+619006506
2353+620734346+624097150+626979745+627585774+626416883+625666049+626529268
2340+628165167+629558187+630387526+630987072+631623533+632302987+633150493
2326+634241637+635319989+636181397+637089477+638288918+639520427+640446557
2313+641153172+642012419+643205434+644592788+645912675+646980513+647874866
2299+648758880+649640966+650469196+651271374+652023901+652683611+653271824
2286+653832117+654329148+654692532+654936170+655135064+655303292+655392371
2272+655395934+655356331+655298911+655251772+655265967+655346225+655480632
2259+655720240+656103659+656594849+657156602+657667419+657973149+658574038
2245+659109855+659637904+660172553+660701244+661271758+661937076+662670619
2232+663395576+664072926+664723524+665369682+666000245+666602710+667153248
2218+667633807+668081480+668501932+668822967+668995459+669047680+669026768
2205+668980739+669015202+669323153+670047116+671106776+672309255+673549234
2191+674794879+675973233+677012858+677941849+678843445+679790486+680759840
2178+681628375+682378157+683110882+683841622+684525047+685179676+685828988
2164+686494832+687210501+687925118+688597387+689296993+690036670+690730609
2151+691373380+692023685+692656876+693200638+693668463+694137631+694646112
2137+695185609+695760270+696412562+697145288+697912827+698695028+699459296
2124+700201076+700980648+701780840+702541662+703288523+704072185+704880671
2110+705673795+706439816+707201689+708005912+708873103+709790645+710751880
2097+711749506+712710683+713587921+714383673+715115114+715755548+716222497
2083+716476649+716566313+716534361+716379685+716109761+715754497+715331182
2070+714876266+714490159+714327247+714568666+715251390+716215896+717340861
2056+718586390+719897574+721217987+722485186+723633516+724602987+725326951
2043+725780465+726020599+726155590+726323818+726632878+727130727+727879458
2029+728929655+730228280+731670658+733190316+734727440+736214912+737601623
2016+738875015+740090460+741284995+742406046+743387726+744217942+744961357
2002+745680823+746373185+747012626+747600781+748146937+748619143+749017049
1989+749397197+749784179+750210941+750674560+751093494+751456761+751839012
1975+752269687+752708364+753116083+753490974+753820303+754100741+754364649
1962+754610740+754758349+754687144+754377908+753900095+753239158+752296615
1948+751021939+749466299+747700608+745877731+744319462+743214007+742507158
1935+742129989+742041377+742204932+742691216+743718749+745516859+748073571
1921+751090982+754226095+757216461+759939064+762418964+764634840+766544751
1908+768203665+769683485+771004541+772188035+773284086+774325405+775309245
1894+776236543+777131129+777958892+778697634+779403081+780082943+780739440
1881+781384956+781978719+782534805+783142762+783834657+784530232+785142570
1867+785783354+786603173+787513414+788376808+789226183+790080816+790821427
1854+791362209+791769169+792155625+792577889+792863818+792812531+792761012
1840+793129769+793822424+794655677+795665628+796810687+797832204+798620480
1827+799360273+800186225+801104060+802043449+802897438+803693542+804514996
1813+805321087+806035880+806704352+807417626+808117524+808681905+809145057
1800+809662883+810316869+811037270+811572036+811787928+812008844+812445477
1786+812878430+813203378+813533291+813863497+814180151+814584774+814978766
1773+815056279+814831157+814674203+814821753+815229004+815617506+815798292
1759+815946776+816242577+816700414+817226710+817601250+817813229+818086249
1746+818469025+818852795+819124588+819292933+819604096+819989910+819924254
1732+819573897+819558184+819787277+819888915+819767884+819661807+819628980
1719+819103910+817813404+816481893+815664936+815177426+814606153+813671963
1705+812592092+811700426+810472129+808472263+806218828+803898277+801635613
1691+799598538+797613274+795623630+793025036+789196802+785291930+782409627
1678+780082301+777414371+774373770+771612147+769081545+766638503+764805813
1664+763515833+762165630+760865310+760247015+760436797+760551285+759643556
1651+758580800+758396976+758518883+758504397+758859018+759893211+761516259
1637+763518462+765610678+767708327+770103412+772972631+776118550+779297822
1624+782365175+785249932+788098590+791076456+794033235+796839368+799632592
1610+802359577+804777443+806870302+808806090+810627098+812279469+813781135
1597+815161304+816395326+817450429+818345658+819101223+819723549+820200837
1583+820514512+820783969+821144665+821316515+820920712+820351541+820013450
1570+819518522+818675805+817884492+817475196+817395872+816807192+814915154
1556+812681872+811021732+809644075+808239665+806793898+805371731+803953010
1543+802324179+799925063+796718337+793879551+791538848+788727399+785468278
1529+782308106+779022173+775407787+771452097+766737104+761542252+756552136
1516+751681357+746846384+742161473+737320309+730937699+722099839+712911972
1502+704833357+696151400+684806829+670498528+654822616+638071857+617421017
1489+591657395+563685841+536364184+510449974+486377275+465385335+447822089
1475+431364998+412000225+389111166+367866271+352128851+340815034+330690903
1462+319734074+309397351+305500132+314889142+336662231+363576579+389819650
1448+412001042+427967439+437155657+441255947+443179906+445516083+449277084
1435+453673145+457420070+459947605+461441444+462543103+463832441+465533411
1421+467642888+470089581+472984559+476516000+480548561+484830572+489213549
1408+493602484+497894338+501956864+505563014+508166866+508671958+505655540
1394+498544702+488260872+475153121+458372192+439922157+425881648+421697390
1381+429860236+449226732+474486314+499308970+519902508+535948462+549346639
1367+561312018+571359599+578584400+582558081+583765407+583206459+581580315
1354+579185814+576072139+572281581+568749206+567776172+571139852+577746707
1340+584822264+590991435+596773389+603032282+610186462+618350768+627491438
1327+637424940+647931993+658832163+669951787+681035781+691780865+702012037
1313+711589807+720213643+727465664+732988501+736630283+738610406+739536126
1300+740077610+740705719+741728228+743406359+745826678+748806822+752027451
1286+755011333+757047532+757362083+755568296+752013840+747917376+745282976
1273+746141113+751293615+759768325+769748732+779749291+788873372+796623417
1259+802700530+806872697+808905274+808430615+804935507+798150085+788132819
1246+774938443+758946170+741702293+725655638+713033470+705999094+706886905
1232+716787520+734451850+756830121+780519985+802876118+822366245+838708642
1219+852406767+863901925+873451074+881399020+888166918+894151973+899582519
1205+904431627+908688025+912541142+916108565+919324871+922007579+924267088
1192+926321746+928220792+929786187+930932531+931829688+932636889+933325630
1178+933720031+933758875+933574993+933136024+932201191+930623646+928401170
1165+925570270+922121424+918102006+913860154+909731212+905557235+900909241
1151+895426766+888724115+880300691+869854036+857591513+844153849+830458295
1138+817502008+806087458+796504431+788390827+781292489+775169756+769931504
1124+764961366+759394894+752435461+743135676+729938438+710675185+683075893
1111+645301039+596492835+537730100+473704639+413232172+365614764+335003669
1097+318896440+312264730+312206668+318613256+331757485+350145136+370095173
1084+386377464+392814164+383015653+352117256+300258463+236757399+179047593
1070+143167623+133511799+140470414+146625420+138628918+116365727+89981896
1057+69538062+59531592+60829845+74491860+103340199+150842301+218199827
1043+301832181+393534652+483073906+561674701+624273789+669302708+696803341
1030+705992610+693612095+653011071+576952415+470159938+360218740+286048762
1016+271344191+311936569+385161814+468266587+549832806+627008601+698091043
1003+760061205+809897117+846160200+869570735+882079466+885427492+880500169
989+867490552+846293964+816311562+775631624+720496710+645763899+547658929
976+430103962+310171170+212833243+157005193+149039182+188182684+269760308
962+382177639+508133278+630762184+738237209+825085460+891348352+940411000
949+976608719+1003559633+1023687156+1038705227+1050044599+1058656578+1064996080
935+1069411476+1072268077+1073741823+1073738318+1072180459+1069134484
924+1064584155+1058249093+1049598445+1038073321+1023381308+1005656989+985484956
910+964122477+944036602+928989033+922441524+924334847+929249844+928793643
897+915992850+887254282+842111225+784657513+725986895+680700026+657130667
883+654990377+675172107+721885933+790102311+862137987+921256687+961297535
870+983647768+991184024+985114154+965627123+936430368+909484653+901114969
856+918118011+950836218+983887726+1009040004+1025721077+1035755048+1041164273
843+1043774024+1044612476+1043895171+1041779356+1038863291+1035691262
831+1032223199+1028136898+1023500002+1018710767+1013844193+1008526442
820+1002483208+995842883+988686191+980814999+971936192+961974885+951530275
806+941949525+934863980+931226287+930424635+930569264+929869542+927586317
793+923847512+919086022+913787430+908200514+902106754+895448379+888430884
779+880992995+872766071+863273349+852787616+842800608+835110845+830164480
766+826286946+820930642+812138402+799224990+783948912+771573420+767970073
752+773652552+783037561+790545428+794517824+795536420+794495569+792223384
739+789316839+786083010+782586033+778861656+775029391+771240936+767516851
725+763784939+759465924+755266478+751370194+747896523+744471860+740687085
712+736709140+732858884+729318506+726037714+722777716+719373322+715888495
698+712477033+709269665+706317676+703589523+700950274+698282811+695629660
685+693220556+691223727+689459496+687632998+685895169+684838372+684180648
671+682074120+678560670+677353870+678856646+679516064+678515634+677586643
658+677501186+677773037+678028358+678372699+678981590+679863560+680892436
644+682035451+683410772+685043107+686821299+688711583+690804735+693163487
631+695646483+698071592+700703832+703532512+706465809+709236720+711997292
617+715352911+719420987+723640409+727561285+731294015+735218922+739243305
604+743132755+747194581+751617629+756025490+760296607+764879004+769932965
590+774900183+779445663+783864214+788480023+793332110+798221815+803072500
577+807981949+812978256+817817668+822323720+826959390+832008210+836958839
563+841580314+846358335+851384783+856319758+861191180+866028664+870675023
550+875221379+879962483+884872866+889601645+894064530+898373440+902626917
536+906821514+910834740+914813328+918920657+922842993+926277060+929509079
523+932862887+936164650+939074407+941809803+944807763+947614071+949523223
509+950732770+951725489+952259729+951713106+950190177+948351003+945959305
496+941935273+935976971+928899194+921372986+913298343+904932339+898036984
482+894825936+895516897+897695505+898537813+896493786+890887945+882185310
469+872513379+865665163+866051854+875281427+891266107+911303792+932259662
455+949400382+960912947+968555981+973626472+976271446+976714037+975862968
442+974824219+973956970+973199244+973161159+974682627+977883278+982626485
428+988636657+995116699+1001660060+1008619084+1015856502+1022376614+1027752778
415+1032239671+1035134241+1036168375+1036968742+1038416552+1039859807
403+1040704100+1040433066+1039607582
##END=
