##TITLE=27
##JCAMP-DX=4.24
##DATA TYPE=INFRARED SPECTRUM
##DATE=16/11/2015
##SAMPLING PROCEDURE=Instrument type and / or accessory
##ORIGIN=Default
##XUNITS=1/CM
##YUNITS=TRANSMITTANCE
##RESOLUTION=4
##FIRSTX=3996.3359
##LASTX=399.24785
##DELTAX=-1.9287336
##MAXY=1.1098068
##MINY=0.030767638
##XFACTOR=1
##YFACTOR=1.0335881e-009
##NPOINTS=1866
##FIRSTY=0.23732017
##XYDATA=(X++(Y..Y))
3996+229608070+229778636+229925704+230104747+230291951+230453522+230626323
3983+230873097+231169423+231412838+231576701+231744081+232000011+232353759
3969+232739166+233059928+233278201+233439901+233603187+233782375+233938481
3956+234076062+234263194+234499199+234700719+234818303+234954975+235172498
3942+235351095+235498537+235685092+235858167+236019247+236168549+236281678
3929+236447588+236697866+236917580+237091996+237310427+237504810+237581061
3915+237647048+237798858+237936698+238004876+238129222+238327353+238469562
3902+238558586+238628119+238656333+238792876+239098082+239248033+239165395
3888+239271792+239536011+239660270+239782814+239859613+239817458+239914844
3875+240102307+240249648+240324270+240247817+240243608+240347727+240319542
3861+240237553+240306220+240718400+241348924+241456619+240949071+240684477
3848+240860335+241122564+241256281+241354951+241563347+241680701+241598006
3834+241600356+241744352+241872014+241972875+242073735+242304867+242598915
3821+242583864+242522534+242686829+242666732+242523832+242658111+242964499
3807+243046878+243019601+243255519+243395969+243254424+243251800+243341415
3794+243359062+243405628+243511823+243644257+243730817+243749818+243834734
3780+243947359+243896900+243786754+243853476+244095767+244274565+244238552
3767+244101678+243996347+244067308+244282293+244320844+244211880+244331800
3753+244643956+244640496+244299218+244343305+244647589+244410171+243983343
3740+244009121+244179471+244144842+244058081+244014311+243981383+243966649
3726+243910480+243833465+243807889+243708816+243452166+243199236+243132745
3713+243097250+242765748+242231399+241788107+241471584+241011453+240170053
3699+239101384+237969684+236787280+235662991+234614851+233437219+232222276
3686+231397498+230928559+230516942+230276496+230299952+230070896+229521583
3672+229336296+229307318+228944790+228588418+228432153+228261443+228032055
3659+227780436+227347525+226846465+226657300+226476829+225720878+224670691
3645+223926447+223462654+222935514+222241685+221492351+220735693+220037914
3632+219473318+218625300+217177452+215844045+215056059+214435194+213540985
3618+212285674+211014130+209894440+208764542+207533510+206087031+204481519
3605+202999056+201589989+200039535+198453515+196930439+195286146+193538166
3591+191939214+190289932+188244430+186166302+184474822+182958205+181369157
3578+179687193+177856085+175875891+173930053+172082582+170067731+167797800
3564+165645901+163745362+161863203+159908297+157957961+155990340+153888136
3551+151735559+149623206+147393975+145106571+143026079+141097311+139085141
3537+136946419+134819101+132807421+130841674+128776694+126575778+124319760
3524+122107454+120022363+118056752+116084099+114039981+112020019+110112616
3510+108224944+106269648+104300455+102288855+100270882+98435189+96762437
3497+95085359+93368455+91675007+89995154+88245487+86458712+84763274+83109473
3481+81371282+79660908+78110080+76639265+75118366+73469027+71739356+70161648
3466+68882881+67707455+66393157+64983723+63653935+62447851+61269923+60060214
3451+58858664+57681832+56499918+55333924+54194248+53022888+51805274+50662297
3435+49722475+48900357+48049557+47220843+46492425+45770757+44972654+44159554
3420+43364219+42537711+41667754+40838421+40126585+39502469+38936915+38358843
3404+37567909+36606109+35896425+35583091+35288896+34734594+34105339+33719899
3389+33543533+33311532+32970849+32608552+32249333+31900847+31569218+31234302
3373+30859595+30433662+30053983+29881284+29929734+30005960+29971688+29939664
3358+30009080+30061883+29964097+29785068+29767794+29965045+30115659+30102700
3342+30066706+30073968+30172715+30462589+30859033+31193780+31442576+31626093
3327+31771058+32005575+32421788+32925349+33391477+33803863+34189076+34527794
3312+34763428+34895011+35064079+35507658+36282229+37137358+37798187+38249015
3296+38680265+39229553+39924135+40753271+41609557+42382571+43097390+43817325
3281+44572144+45356194+46140435+46909168+47664052+48509226+49567897+50744978
3265+51889256+53009941+54138448+55251787+56363718+57552148+58856786+60197556
3250+61489111+62807142+64280653+65855803+67417653+68973996+70522554+72029295
3234+73602311+75403612+77358634+79278939+81188836+83187000+85219332+87198177
3219+89184267+91306056+93559955+95853421+98126624+100360346+102597211+104914393
3204+107315048+109745288+112195278+114687813+117236848+119831166+122429845
3190+125021965+127646768+130319766+133022190+135743082+138479025+141235584
3177+144000216+146753330+149524839+152340392+155159925+157934346+160683438
3163+163464361+166271365+169038593+171732698+174373994+177027097+179770133
3150+182567564+185318587+188024341+190684754+193240038+195753326+198359877
3136+201046370+203685806+206194481+208596874+210983970+213405552+215816393
3123+218132645+220350199+222542350+224779366+227081345+229352386+231482155
3109+233518012+235562375+237615186+239621633+241548282+243407503+245247362
3096+247060088+248796433+250479062+252143928+253741006+255249218+256732056
3082+258166108+259506795+260836122+262191399+263481368+264637288+265679488
3069+266639972+267527939+268359680+269157744+269923628+270611950+271180380
3055+271644980+272033401+272345008+272548547+272608838+272551574+272434480
3042+272259949+271988939+271568484+270961647+270191322+269266707+268177076
3028+266922515+265436245+263685598+261728530+259549873+257045942+254140239
3015+250859005+247264722+243294964+238801800+233704192+227961744+221513991
3001+214296489+206227106+197234824+187189226+175864963+163182568+149240494
2988+134118539+117964390+101188822+84632188+69563352+57244199+48290388+42447897
2972+38961597+36908209+35493822+34591643+34802963+36963937+41604154+48495029
2957+56520015+64075586+69774128+72884406+73203741+70824156+66255368+60596797
2941+55321374+51781295+50702466+51947569+54756743+58348759+62378340+66850145
2926+71818693+77256757+83049030+89025573+94947151+100461783+105124346+108564073
2910+110684248+111689713+111974332+111910998+111669471+111269113+110646302
2897+109546428+107578273+104478050+100216566+94816087+88221836+80644417
2883+72952872+66643680+63424756+64360256+69154460+76545714+85351701+94925836
2868+104955942+115203845+125363314+135124250+144368929+153247707+162071398
2855+171177920+180791082+190856993+201037792+210886296+220077272+228494622
2841+236149879+243127468+249568287+255641906+261526693+267359463+273151895
2828+278832999+284370655+289752089+294957896+299985164+304788797+309316114
2814+313626371+317827895+321994329+326214566+330527562+334838626+339047560
2801+343127665+347042581+350739772+354184148+357339984+360169190+362673583
2787+364919192+366946500+368734198+370330065+371834788+373259440+374542460
2774+375632235+376523806+377274438+377963971+378630234+379248317+379820640
2760+380446017+381173380+381923319+382617350+383188635+383565320+383774077
2747+383889816+383951694+384051084+384323679+384890495+385895268+387413284
2733+389317068+391325806+393150009+394629185+395833517+397035081+398532164
2720+400493961+402914072+405626934+408377856+410949979+413249652+415266176
2706+417028933+418649597+420265042+421890233+423424828+424805451+426050237
2693+427161781+428114192+428894061+429479187+429851547+430020456+430035363
2679+430036516+430266783+430974337+432263210+434004774+435919890+437795272
2666+439565642+441214390+442763258+444286435+445802691+447267883+448658223
2652+449974661+451249751+452522304+453791080+455045208+456281431+457478439
2639+458592002+459615835+460599876+461555228+462455651+463304808+464090646
2625+464798632+465465473+466102355+466658819+467089164+467399128+467653702
2612+467935841+468268670+468606142+468912761+469202109+469477501+469704654
2598+469870910+469994492+470093680+470189005+470284618+470384931+470504274
2585+470648962+470827819+471050906+471349798+471745773+472223319+472777390
2571+473383939+474001214+474624573+475242108+475819909+476350481+476812399
2558+477180002+477492618+477783610+478048160+478295699+478540700+478819033
2544+479188597+479669459+480268021+481015625+481871961+482743233+483636045
2530+484603161+485611307+486604460+487594557+488600570+489602777+490614672
2517+491658861+492700455+493720539+494749965+495827024+496976169+498157780
2503+499315805+500439633+501532551+502626277+503720233+504725842+505602679
2490+506424675+507255666+508076047+508858828+509619234+510387887+511206595
2476+512101886+513036449+513958094+514880143+515825605+516762532+517689136
2463+518668276+519712638+520777818+521849745+522890820+523830688+524689360
2449+525574329+526522386+527440398+528272427+529083581+529914803+530733973
2436+531513871+532242906+532918483+533566956+534203089+534797873+535343352
2422+535858959+536327047+536707251+537015138+537330811+537702134+538126741
2409+538638599+539274847+540001287+540749525+541443960+541997973+542514272
2395+543076821+543715087+544409002+545087059+545639169+545981600+546136323
2382+546191914+546199065+546142089+546031656+545962339+545985464+546099185
2368+546255291+546326857+546457128+546852440+547708344+549224774+551158256
2355+552490495+552009028+549954847+548604904+549515361+551608987+553222471
2341+554234482+555007114+555640939+556255965+556933445+557778565+558739598
2328+559574280+560295126+561233898+562441979+563493953+564069534+564447488
2314+565061880+565975221+567002110+567980961+568897013+569783942+570652244
2301+571500132+572320744+573119326+573889939+574604557+575272522+575899889
2287+576449578+576895003+577271458+577644798+578046627+578441478+578751211
2274+578945666+579069479+579181527+579311568+579473441+579665878+579896030
2260+580178256+580509384+580898294+581374514+581937466+582474987+582852191
2247+583510468+584084896+584617861+585152844+585711125+586305967+586951615
2233+587659832+588393596+589089645+589724278+590323214+590912924+591507132
2220+592109817+592688397+593197026+593636743+594015158+594299979+594509543
2206+594698982+594886978+595117707+595512384+596177235+597076621+598116369
2193+599248732+600399145+601457520+602380665+603220825+604058218+604923925
2179+605773198+606562438+607304967+608013876+608675036+609326047+610028497
2166+610726276+611375095+612055574+612761888+613431583+614113907+614829563
2152+615524228+616202170+616864368+617458864+617980814+618473066+618966759
2139+619489747+620064694+620689985+621374212+622129602+622920802+623693838
2125+624422123+625127630+625853320+626599944+627356371+628126292+628917781
2112+629711231+630452895+631161285+631915118+632720908+633529236+634339814
2098+635202984+636120304+637002562+637779346+638483814+639158872+639760173
2085+640220880+640553565+640796346+640930654+640954702+640925407+640866586
2071+640751193+640586205+640461931+640539898+640948993+641643889+642492642
2058+643466188+644565334+645725147+646896032+648040793+649074025+649931083
2044+650626094+651170188+651554370+651832617+652128337+652535413+653083372
2031+653807447+654749795+655879794+657100100+658342839+659593420+660850057
2017+662095795+663281327+664361962+665350963+666279182+667127186+667868562
2004+668568590+669305295+670024469+670609507+671072867+671545396+672099006
1990+672677529+673198268+673666126+674141365+674634713+675117564+675571236
1977+676001668+676440980+676891826+677320239+677745135+678209360+678672316
1963+679061862+679396507+679682020+679811888+679759006+679580755+679251012
1950+678702592+677897089+676872104+675745911+674660605+673764103+673134891
1936+672752035+672583127+672638776+672930171+673465731+674365058+675839102
1923+677913294+680372302+683011118+685634480+687994126+689987929+691706196
1909+693288367+694780345+696142341+697360917+698469290+699467691+700365116
1896+701234341+702093878+702931386+703787694+704661129+705462883+706176463
1882+706887678+707583381+708205616+708800112+709377596+709891877+710456386
1869+711279246+712335949+713358570+714193829+714943106+715758758+716610913
1855+717353385+717913107+718328373+718650216+718994838+719501622+720108517
1842+720662703+721182347+721792067+722514528+723278683+724122188+725093716
1828+726089522+727040289+728009452+729007623+729932843+730756222+731557515
1815+732357827+733144818+733941786+734735409+735445759+735999715+736489199
1801+737131098+737897617+738511663+738996936+739650484+740496642+741253761
1788+741743879+742056726+742417669+742918397+743409034+743687857+743798752
1774+744066907+744657136+745302726+745736387+745998832+746264277+746626718
1761+747063724+747526450+747954286+748323763+748705120+749222514+749915680
1747+750578513+751016614+751346127+751710818+751961788+752084216+752449829
1734+753179614+753921163+754392481+754628746+754707289+754537400+754145952
1720+753811998+753715001+753759059+753694356+753382258+752876743+752267715
1707+751500042+750565191+749716957+749031173+748396944+747767039+746864886
1693+745522497+743781913+741714469+739724299+738012722+736295320+734391017
1680+732314346+730213685+728132227+726059073+724240580+722773687+721515147
1666+720408792+719412352+718458067+717483944+716429952+715568108+715371923
1653+715680387+715725483+715457040+715418172+715766197+716134866+716343508
1639+716793258+718121519+720391146+722720575+724548929+726292397+728397037
1626+730897047+733539784+735890839+737931295+740337652+743378989+746330710
1612+748732454+750844130+752886258+754836061+756685060+758437639+760025577
1599+761417329+762687402+763910592+765058237+766074861+766941318+767671621
1585+768278055+768697818+768863267+768951902+769269882+769679438+769756193
1572+769542477+769332451+769119888+768576774+767576700+766547851+766034378
1558+766014771+765807282+764959164+763689667+762349008+760974153+759450515
1545+757831263+756498159+755547623+754379160+752708757+750710110+748433274
1531+745970633+743345311+740444280+737423646+734422619+731182444+727750755
1518+724287983+720610168+716634903+712356652+707848768+702928618+697154121
1504+690840027+684229118+676620096+667243732+655923333+643342548+629414358
1491+612207125+591124968+568355109+545879413+524270001+503969242+486024612
1477+470784049+456479058+439830221+420104236+401447929+387317123+377058213
1464+367784440+357475820+347741110+344635300+354535027+375612484+400576743
1450+424374961+444354771+458753155+467073767+470800888+472531553+474703838
1437+478381220+482677954+486156555+488433910+489883100+490992799+492168470
1423+493645917+495566193+498087310+501262781+504843599+508522049+512237175
1410+516029691+519890255+523739919+527381807+530512933+532699000+533139408
1396+530689626+524769518+515902649+504253890+489312362+473053475+460796811
1383+457359701+465004737+482592375+505267976+527505159+546070235+560622621
1369+572742295+583464161+592368688+598816109+602588845+603982270+603705465
1356+602441908+600560384+598103163+595094524+592348792+591795125+594853185
1342+600544006+606616069+612055632+617266600+622826631+629046323+636087548
1329+643961553+652497699+661498011+670795313+680233727+689635753+698764318
1315+707419028+715482068+722785105+728998165+733785506+737030006+738943651
1302+740016674+740772582+741611417+742802197+744512275+746755952+749392461
1288+752190959+754745350+756450756+756698612+755194004+752220543+748846463
1275+746816503+747814615+752462228+759903148+768566739+777168857+784970662
1261+791615249+796860126+800462800+802245597+801992493+799319538+793960421
1248+785917507+775248926+762303624+748352021+735393686+725303280+719922827
1234+721158472+729794671+744690468+763329994+782961923+801404340+817382156
1221+830702932+841826743+851153800+858940093+865484569+871101575+876085737
1207+880608730+884641143+888181767+891381228+894370318+897139002+899540573
1194+901594581+903474086+905251751+906757339+907857350+908694224+909460974
1180+910142029+910575633+910728221+910712017+910479616+909785354+908470473
1167+906606423+904340832+901663955+898531850+895173168+891860562+888527312
1153+884845518+880470269+875098927+868360169+859962195+850052809+839210648
1140+828167514+817673608+808400643+800595089+793942313+788083275+783009729
1126+778639268+774413148+769574252+763462802+755338635+743891482+727164102
1113+703112866+670074985+627056499+574554387+516388096+460497314+415662439
1099+386100594+369814429+362417596+361510887+367231839+379909506+397967135
1086+417643296+433815567+440582986+431746421+402199973+351170146+286798177
1072+226516274+188258847+178309223+186573148+193308418+183342777+156423208
1059+124121138+98673789+86176940+88010643+105188783+140052906+194836972
1045+268802078+356375030+448359706+535005419+608863494+666247869+706714272
1032+731136426+739343692+728534863+692405820+623409594+524045039+418980725
1018+347105727+334594374+377981848+452651105+534131927+610959657+681178439
1005+744118635+797758935+840036795+870154787+889066908+898818458+901041202
991+896320812+884680242+866005712+839750705+804106591+755468445+688623396
978+598698006+487038122+368089848+267230460+207756280+200830650+246565559
964+336385071+453205234+576742241+690951268+786951605+862132576+918211124
951+959120876+989020135+1011084487+1027405714+1039549147+1048824304+1055884214
937+1060939018+1064413727+1066747077+1068018881+1068120030+1066949030
926+1064431604+1060582977+1055312957+1048203338+1038777437+1026779789
914+1012260331+995688135+978133973+961582883+949103017+943694017+945397636
901+949514187+948770505+937312683+912168357+872714945+822145450+769893154
887+728787736+706527774+703418505+720971225+763267655+825193764+890075170
874+942787366+978238697+998064044+1005040797+1000403161+984397607+960190439
860+938012827+931719147+946772723+974658802+1002422222+1023405075+1037296416
847+1045629398+1050116060+1052398663+1053299432+1052826442+1051116479
835+1048749566+1046167091+1043350255+1040056622+1036310644+1032454175
824+1028566103+1024260979+1019258883+1013729128+1007875510+1001460441+993912893
810+985163896+976091960+967988610+962085860+959176064+958862582+959474840
797+959350739+957780044+954822383+950908765+946508028+941800960+936620959
783+930980020+925075367+918836934+911868773+903695934+894639914+886085373
770+879540378+875337671+872067452+867542614+860022861+848879675+835707508
756+825232632+822535918+827823008+836121850+842667134+846110703+847041575
743+846298757+844449700+841862439+839009791+836105184+832984439+829648651
729+826347234+823101523+819709163+815589959+812192813+809030316+805825031
716+802725680+799551708+796252654+792963635+789773227+786682469+783589463
702+780419008+777311238+774472373+771873693+769318668+766765720+764317034
689+762059286+760031517+758228478+756629930+755121458+753533924+751716815
675+749296329+746713624+746763448+749826757+749924330+745844917+743663175
662+744256230+744916410+744992243+745119977+745588123+746365311+747296125
648+748177230+749042707+750186372+751755510+753595225+755532052+757529258
635+759596356+761755608+764020507+766429402+769215040+772168087+774930773
621+777282923+779621579+782690423+786656000+790859687+794735706+798281000
608+801764821+805379605+809165720+813196807+817422985+821481003+825378532
594+829666355+834427516+839060365+843299806+847434176+851730304+856226655
581+860779750+865287172+869735716+874163326+878568677+882933026+887414671
567+891967190+896280849+900473290+904981116+909707907+914251314+918591731
554+922963403+927431323+931779641+936011988+940310192+944545308+948532914
540+952337136+956298273+960413324+964071244+967200524+970503383+974092505
527+977310132+980166298+983156022+986065934+988480019+990607034+992840619
513+995098425+997040904+998559756+999675049+1000266489+1000083105+998920063
500+996958439+994414948+990903331+986060282+980132851+973381578+965870995
486+958290634+952354667+949830668+950684438+952558465+952904586+950506533
473+944962534+936951914+928555786+922960693+923717639+932183718+946479252
459+963908736+981596457+995763449+1005290498+1011599690+1015273238+1016582641
446+1016604554+1016475955+1016284729+1015528706+1014769338+1015047296
434+1016410445+1018829835+1022638325+1027249319+1031768967+1036428171
422+1041952852+1048532736+1054899019+1059093421+1061586395+1063478818
411+1064827089+1066761956+1069967357+1072836786+1073741823+1072048353
399+1068975127
##END=
