##TITLE=27
##JCAMP-DX=4.24
##DATA TYPE=INFRARED SPECTRUM
##DATE=16/11/2015
##SAMPLING PROCEDURE=Instrument type and / or accessory
##ORIGIN=Default
##XUNITS=1/CM
##YUNITS=TRANSMITTANCE
##RESOLUTION=4
##FIRSTX=3996.3359
##LASTX=399.24785
##DELTAX=-1.9287336
##MAXY=1.085305
##MINY=0.019427581
##XFACTOR=1
##YFACTOR=1.010769e-009
##NPOINTS=1866
##FIRSTY=0.31737584
##XYDATA=(X++(Y..Y))
3996+313994425+314130999+314315043+314607915+314954303+315266399+315560422
3983+315838109+316111198+316463718+316898176+317351682+317804067+318282281
3969+318771316+319200379+319532791+319810272+320164856+320567560+320856540
3956+321099790+321383817+321647264+321841510+322057545+322379873+322646179
3942+322834292+322995574+323088097+323227000+323384213+323547471+323856884
3929+324218840+324473205+324691540+325002487+325261982+325390241+325503079
3915+325684617+325812169+325902215+326139155+326455645+326670648+326853365
3902+327003178+326990912+327054747+327257042+327359944+327315392+327492920
3888+327727088+327701319+327867908+328022438+327964412+328129025+328366437
3875+328546972+328740186+328644508+328627879+328785062+328697964+328604438
3861+328633127+328921724+329394867+329419133+328990335+328834479+328743577
3848+328632478+328637609+328799627+329124226+329334069+329363613+329471468
3834+329465954+329293262+329290520+329390149+329565761+329883076+329926094
3821+329992406+330294536+330165069+330049518+330244088+330410530+330418166
3807+330385792+330748897+330906140+330663657+330662477+330601886+330475602
3794+330507181+330514051+330522454+330572784+330617130+330706999+330779090
3780+330663126+330546366+330558573+330652954+330713309+330592067+330510424
3767+330445705+330397084+330441312+330347638+330257002+330437154+330764583
3753+330813144+330572372+330610672+330834315+330338174+329750601+329786572
3740+329846043+329736448+329479046+329130653+328784236+328691241+328576840
3726+328322121+328090931+327783227+327459131+327210308+327082993+326851242
3713+326220032+325329149+324406658+323540837+322651133+321430374+319811599
3699+317938282+315845363+313740178+311642275+309221986+306413677+304026617
3686+302592771+301580499+300799004+300513591+300375307+299803627+299370436
3672+298956322+298057095+297327257+296866528+296401729+295932567+295436427
3659+294690343+293711065+293176829+292947909+292047237+290358908+288561721
3645+287103432+285771457+284341916+282857857+281430527+280098493+278949470
3632+277740180+275760129+273463263+271669054+270203600+268636807+266636647
3618+264445189+262405313+260334183+258125948+255677176+252908701+250195510
3605+247730993+245207817+242451946+239683162+236963661+234101733+231234985
3591+228554507+225592317+222036730+218503935+215465630+212662628+209763240
3578+206710649+203538851+200349746+197327392+194321048+190886953+187158526
3564+183686101+180511886+177376929+174176384+170943729+167658960+164290484
3551+160998241+157778545+154383473+150887181+147629626+144635563+141590726
3537+138349625+135157010+132207484+129355419+126404167+123336311+120245847
3524+117250302+114476726+111892715+109282182+106570671+103908666+101384096
3510+98927843+96527190+94147221+91617890+89047707+86728787+84630619+82607225
3495+80639593+78700651+76739484+74729380+72699698+70764522+68888073+66951555
3479+65133176+63551132+61978848+60258517+58420077+56590272+54995369+53716337
3464+52534516+51240609+49878080+48603017+47436060+46280621+45105390+43965025
3449+42892526+41834681+40758844+39689703+38631379+37527328+36394574+35434125
3433+34693894+34009018+33369610+32828118+32276675+31606102+30871833+30206416
3418+29623382+28987238+28280641+27621364+27043755+26574657+26154230+25514438
3402+24643659+24006192+23814033+23669710+23215895+22649317+22399429+22459890
3387+22446634+22193192+21814959+21444536+21137028+20905145+20719640+20458185
3371+20037490+19629161+19505198+19654488+19798612+19779329+19700433+19670156
3356+19646426+19520955+19307342+19220594+19347876+19522085+19632638+19668886
3341+19643660+19683081+19896308+20191994+20445578+20632733+20730835+20756024
3325+20857770+21133730+21479710+21792028+22074931+22345415+22565362+22645589
3310+22594869+22603357+22906046+23533905+24232169+24735436+25010478+25200623
3294+25483547+25984204+26684835+27392896+27966843+28481264+29046263+29658876
3279+30237589+30745452+31239289+31762379+32404178+33269668+34240388+35130240
3263+35940957+36748848+37561110+38378223+39276230+40298052+41362851+42380095
3248+43407202+44579967+45870893+47141953+48377418+49635383+50908935+52234490
3233+53765650+55488274+57194095+58858921+60598686+62392564+64163487+65952758
3217+67845682+69849115+71928103+74034939+76159076+78357662+80647274+82984247
3202+85355451+87770175+90237935+92796198+95443359+98120623+100823015+103600410
3186+106436582+109291794+112195096+115167761+118211278+121336077+124501174
3173+127663920+130861974+134126178+137408204+140679779+143967835+147292777
3159+150656093+154021046+157332720+160644497+164091344+167652415+171183603
3146+174662323+178134526+181570110+184965668+188413252+191933767+195412457
3132+198789602+202155984+205603760+209070303+212414940+215624892+218819054
3119+222064195+225353195+228688339+232010214+235210170+238295253+241342419
3105+244368650+247362404+250326894+253270951+256172875+258991386+261723182
3092+264379615+266971064+269513626+271999873+274399818+276694590+278922138
3078+281136829+283333476+285452343+287402821+289173472+290863393+292518965
3065+294090328+295552892+296901910+298106334+299147148+300034640+300807407
3051+301511534+302109485+302486950+302640507+302665333+302557448+302251956
3038+301734734+301009467+300056636+298821134+297288603+295485873+293391184
3024+290972280+288193662+285000871+281346820+277184127+272495719+267280359
3011+261480758+255005041+247759947+239644242+230566476+220470203+209333012
2997+197113288+183691423+168893843+152671925+135325546+117297028+98976419
2984+80997303+64348674+50136068+39205035+31700664+27036308+24329873+22714893
2968+21571056+20821666+20851704+22197497+25269891+30071848+35983987+41837851
2953+46450512+49096802+49468672+47607599+43985716+39514010+35361990+32605080
2937+31775448+32653465+34635540+37235241+40267303+43765917+47760920+52196322
2922+57037733+62258017+67644868+72764498+77153281+80488263+82653597+83765881
2907+84145343+84142719+83955992+83643210+83118867+82068051+80121398+77129354
2891+73136169+68183482+62273423+55648347+49070716+43762125+41016924+41579151
2876+45215659+51061898+58334774+66590447+75592326+85139844+94942780+104706244
2860+114258066+123636547+133156614+143251355+154206491+165997536+178259483
2847+190447364+202101187+212972940+223012957+232301937+240987731+249265294
2833+257352768+265453746+273662285+281899011+290022605+297962625+305693953
2820+313190640+320432018+327365045+333992402+340459215+346922666+353506681
2806+360297060+367204818+374011708+380585816+386879907+392839699+398435825
2793+403616570+408284957+412405458+416040521+419333737+422407675+425244791
2779+427777830+430024867+432040389+433810892+435313320+436585353+437686728
2766+438687118+439643782+440612770+441669240+442795884+443882251+444865864
2752+445687841+446253330+446555608+446638696+446581614+446576071+446794701
2739+447445017+448891158+451296676+454369523+457610108+460582972+463032805
2725+464994636+466824610+469049886+472102536+476075908+480675507+485394490
2712+489778969+493619541+496939470+499901159+502717194+505485816+508156078
2698+510644064+512878068+514856027+516624289+518126717+519252977+519998530
2685+520388437+520399464+520138936+519896866+520062865+521070066+523103633
2671+525911234+529062924+532220805+535213984+538016573+540653634+543167685
2658+545605430+547961560+550218091+552409932+554581841+556744610+558872587
2644+560912994+562870136+564769842+566552670+568209657+569811743+571365592
2631+572845493+574226443+575461620+576538523+577492887+578330078+579014008
2617+579541314+579937295+580229017+580478223+580746004+581036016+581324967
2604+581598114+581812115+581895793+581868844+581810110+581720417+581583549
2590+581430287+581291237+581166280+581064381+581056361+581198065+581473866
2577+581876215+582440377+583157507+583955188+584793618+585633168+586391517
2563+587054866+587658125+588179240+588615143+588977570+589206549+589298719
2550+589353324+589445612+589617213+589951984+590555184+591417202+592416559
2536+593482081+594630809+595894999+597282318+598733973+600181087+601635218
2523+603113232+604606932+606143090+607718758+609266238+610772439+612304705
2509+613918939+615641618+617436181+619202792+620893274+622544423+624175758
2496+625714275+627111559+628412016+629627556+630753345+631832370+632888103
2482+633933811+635033240+636222067+637437490+638639880+639875765+641162423
2469+642465415+643778727+645129897+646555782+648074957+649656875+651238263
2455+652743816+654123469+655399984+656656449+657943461+659207061+660393294
2442+661541550+662688272+663795604+664831699+665812836+666743022+667634996
2428+668502734+669287266+669929562+670438883+670852555+671197704+671477750
2415+671713275+671974392+672348260+672879694+673562031+674359713+675217720
2401+676073605+676801703+677470005+678168736+679014065+680050633+681179960
2388+682212340+682967446+683371624+683467213+683329342+682933539+682204910
2374+681206496+680079764+678995372+678026796+677073965+676226631+675769499
2361+675825284+676408375+677447597+678793814+680332979+681670233+682518569
2347+682974169+683137278+683343731+684096419+685297571+686589300+687777596
2334+688875080+690032771+691288116+692556316+693862433+695303709+696827366
2320+698297655+699635793+700832286+701928590+703021238+704223156+705562356
2307+706983464+708357043+709568515+710649958+711660933+712595719+713455791
2293+714276411+715064658+715795232+716433048+716946791+717311636+717542915
2280+717696177+717801201+717819069+717708147+717501636+717273306+717055354
2266+716855270+716701713+716632011+716678302+716866769+717191751+717625354
2253+718143166+718606844+718869318+719454650+719951646+720414498+720914501
2239+721453307+722020122+722650095+723388630+724201880+725001272+725727954
2226+726369248+726949922+727506477+728033842+728507309+728907831+729202207
2212+729365848+729371391+729208458+728941856+728685928+728580196+728800329
2199+729482666+730611993+732023548+733524737+734980697+736310815+737496576
2185+738585509+739657635+740739786+741746515+742610302+743401792+744208732
2172+744992968+745692643+746354341+747045759+747790604+748566172+749304943
2158+750016235+750769984+751532284+752241040+752911111+753533594+754076174
2145+754554181+755003766+755449694+755906000+756405414+756989095+757669545
2131+758425771+759212131+760000378+760792516+761587898+762390357+763225425
2118+764102126+764976881+765826456+766659756+767464985+768260132+769102217
2104+770025210+771016489+772054118+773136623+774266421+775350636+776314789
2091+777157642+777928728+778607173+779094557+779321118+779290808+779060768
2077+778676286+778157471+777518241+776783126+776015342+775322567+774905357
2064+775022058+775633985+776571779+777818160+779313275+780924856+782524642
2050+784017457+785334484+786404959+787144202+787508634+787608588+787605404
2037+787638427+787878433+788408746+789260562+790449212+791917791+793571181
2023+795363975+797247582+799087020+800808107+802441388+803888738+805169794
2010+806420126+807581179+808563081+809404813+810199901+810953709+811627672
1996+812241015+812727397+813115004+813633641+814045839+814303005+814659830
1983+815088185+815472844+815765805+816053990+816420427+816840762+817232202
1969+817478872+817658552+817949626+818135499+818160502+818136619+817889182
1956+817296066+816455160+815376488+813929787+812051133+809826033+807199940
1942+804572844+802502658+800804097+799528113+798789814+798465835+798499860
1929+799005053+800261931+802378055+805502618+809394730+813071956+816813931
1915+820526008+823461574+825901972+828142463+830231343+832018358+833494956
1902+834844888+836125354+837234219+838169241+839244728+840251044+840881665
1888+841715201+842572029+843134422+843754369+844366946+844869072+845374854
1875+846045161+846843905+847240062+847605379+848721850+849826764+850481621
1861+851128754+851943537+852786566+853476628+853963010+854360759+854799493
1848+855266179+854933472+854443317+854945974+855275909+855374742+856100245
1834+857306173+858284597+859058632+860388160+861326543+861841879+862862112
1821+863780858+864422742+865227441+866218485+866932312+867406309+868088646
1807+868884441+869570435+869941176+870175109+870864758+871893955+872487955
1794+872238278+872203014+873044452+873430231+873117515+873112502+873319427
1780+873405522+873754681+874087152+873742180+873240467+873487254+873477701
1767+873402574+873469445+873076944+873098232+873377099+873405051+873989970
1753+874322559+874032487+874275029+874747317+874902702+874812773+874504303
1740+874596119+875412081+874815486+873661804+874204619+874436134+873829691
1726+873181674+872631900+872547810+871966782+870104581+868520481+867509270
1713+866256579+864799322+863190042+861423430+860312620+859132226+856156679
1699+853679543+850968356+847108206+844292644+841249223+838004656+834901735
1686+829988978+824605053+820982964+817379390+812978076+808097752+804221032
1672+800922154+796803777+793606622+791685451+789214979+786681350+785499835
1659+785484680+785559158+783885070+782551945+784427827+784906778+783385008
1645+783501119+785042113+786572551+788365404+790073163+792518869+796782135
1632+800782279+803882841+807572215+811722614+815520020+819762175+823863746
1618+826545212+829698965+834153470+837636627+840090175+842567311+845062315
1605+847302334+849286897+851124449+852767873+854157137+855376216+856460018
1591+857320031+857971586+858487157+858813082+858995062+859350590+859602862
1578+858646021+857772858+858386909+857860900+855929528+854915545+854408230
1564+854211154+853711209+850900541+848462797+847993576+846140810+843434223
1551+840941107+838906184+837203495+835363762+832898479+828804278+825043846
1537+822961688+819418736+814547493+810710164+806917240+802372807+797901319
1524+792842730+786445472+780443723+774485611+768107577+762159608+756586981
1510+750528975+741384147+729896397+720075718+710867969+699459946+684862139
1497+667553382+649543536+629914443+604967472+574509143+542096444+510549241
1483+480645875+453171290+429666862+410238296+392149253+371022569+346684340
1470+324565345+307937215+295768602+285414160+274696170+264230481+259691001
1456+268743189+290836532+318191055+344959185+367882880+384689333+394430168
1443+398683822+400677112+402867627+406508262+411452391+415591438+417874122
1429+419188171+420334275+421616834+423434808+425526813+427711607+430908851
1416+434898203+438965425+443274156+447945728+452734738+457341030+461868893
1402+465991694+468708393+469218097+465917923+458016380+446962970+432785263
1389+414372713+394524018+379724123+375205017+383643861+404131050+431106015
1375+457659584+479824517+497174523+511474120+524388816+535399443+543161435
1362+547448112+548761365+547888497+545726435+542749119+538962917+534412764
1348+530216369+528982194+532742686+540166369+547978189+554814417+561275068
1335+568191789+576103976+585192017+595423891+606632184+618603484+631104450
1321+643861874+656622718+669114190+680964249+691919267+701803987+710136864
1308+716410109+720434725+722484272+723331076+723747814+724256957+725254841
1294+727062436+729752570+733103223+736755269+740171201+742511233+742883567
1281+740798284+736538733+731550553+728297259+729131738+734935113+744615268
1267+756125662+767749337+778394942+787438873+794527137+799344128+801568402
1254+800811586+796510639+788303898+776202275+760292808+741085643+720479365
1240+701420036+686494772+678117314+678939763+690276020+710777509+737000111
1227+765005422+791631730+814988822+834634780+851047494+864755095+876182460
1213+885775516+893937204+901065331+907471258+913201275+918242291+922737661
1200+926789522+930435140+933574092+936263813+938622303+940713895+942420947
1186+943663201+944609427+945431522+946088090+946406113+946343428+946012314
1173+945353093+944065550+941959687+939118768+935621811+931375469+926422318
1159+921175970+915986055+910718890+904947949+898202475+889976629+879682895
1146+866943516+852007224+835706198+819199546+803699210+790119572+778721103
1132+769065184+760674518+753523864+747500179+741865810+735549930+727586381
1119+716947675+701944040+680146105+649089116+606984527+553266760+489659231
1105+421831513+359301741+311253164+281115158+265696200+259657005+259945986
1092+266275930+278969431+296814870+316276431+332139105+338248887+328275447
1078+297863497+248285426+189595902+138086812+106923752+98448715+103992226
1065+109148314+102956624+85394917+64815389+49172951+41638434+42559838+52843554
1049+75354318+114249722+172484266+248756947+336492978+425754170+506906158
1036+573371325+622092951+652094915+661859573+647641413+602832242+521478961
1022+411219697+301662054+229673573+214775096+251733172+320748066+402131362
1009+485413862+567217906+644923563+714376660+771300427+813344101+840863503
995+855851924+860208008+854917491+840266907+816226712+782199955+736258096
982+674791606+593306764+489728461+370752222+255254895+166175182+117097283
968+109748801+142532618+214132931+318554957+442666799+570064309+686592189
955+783872923+859892875+917121220+959711954+991440665+1015097618+1032791682
941+1046203963+1056372799+1063792708+1068896763+1072132779+1073741823
930+1073647943+1071671282+1067766316+1061971491+1054090912+1043493131
918+1029486672+1011760646+990471441+966322152+940884553+917060422+899220408
905+891482535+893724559+899444139+898897432+884123483+851067779+799642042
891+735260154+670709730+621915158+597440828+596122445+618314592+668880316
878+743276835+822802706+888917770+934186668+959468587+967561810+959774521
864+936479052+902162932+870712263+860820879+880254134+918058365+956527596
851+985859075+1005243680+1016913645+1023191431+1026014424+1026579235+1025402083
837+1022769445+1019138568+1015074384+1010736108+1005773816+1000107781+994149375
824+988090484+981618630+974433892+966646720+958300281+949082212+938676967
810+927085254+914942352+903776399+895500075+891101474+889780555+889457224
797+888319288+885547422+881059069+875433664+869337033+862846839+855680853
783+847837542+839571066+830902653+821406424+810591518+798871605+787712315
770+778867583+772992501+768447832+762361520+752559240+738310474+721445935
756+707738393+703663417+709727025+719894917+728121353+732460336+733539126
743+732396118+729863846+726512544+722695619+718641282+714523730+710364368
729+706161074+701961200+697715271+692917976+688489300+684308061+680270884
716+676333897+672313232+668192495+664071345+660060115+656196250+652446079
702+648798101+645253674+641781485+638373102+635035304+631778708+628665821
689+625838995+623338094+621052433+618894028+616778729+614629169+612558570
675+610786415+609407293+608313820+606908456+604890812+603504259+603338496
662+603451305+603311665+603181814+603170845+603285600+603725042+604511342
648+605397242+606304961+607365117+608672827+610270785+612092061+613971422
635+615933046+618229853+620958671+623897067+626909765+629938621+633028156
621+635892309+638763303+642222047+646252030+650333257+654198655+658099553
608+662276842+666556265+670838166+675211764+679646160+684037508+688505812
594+693384485+698700830+703982147+708905342+713787200+718866015+723910157
581+728926052+734171929+739502427+744786162+749958857+755108437+760535763
567+766130798+771394425+776185233+780994204+786252523+791767596+797161073
554+802416503+807554819+812467812+817329797+822356248+827384762+832174450
540+836759219+841444176+846293011+850886271+855248960+859844991+864343723
527+868086582+871433520+874808999+878209540+881543740+884889911+888269282
513+891082957+893186875+894937269+896409445+897209781+896707890+895309780
500+893265068+890046036+885348459+878950847+871155655+862564079+853390120
486+844167333+836799436+833603342+834589196+837169352+838461789+836349144
473+830022119+820503482+810045931+802717425+803079970+813396643+832048904
459+854814354+878121321+897617614+911025886+920474644+926881219+930240482
446+931487689+931793033+931697679+930533148+928659271+928175720+929801394
432+933332199+939366794+947126485+955046692+962759975+970047792+976385078
419+983794077+991582074+996372883+999122517+1001104721+1002692419+1004652922
405+1007293227+1010244655+1011861012+1011552129
##END=
