##TITLE=24
##JCAMP-DX=4.24
##DATA TYPE=INFRARED SPECTRUM
##DATE=16/11/2015
##SAMPLING PROCEDURE=Instrument type and / or accessory
##ORIGIN=Default
##XUNITS=1/CM
##YUNITS=TRANSMITTANCE
##RESOLUTION=4
##FIRSTX=3996.3359
##LASTX=399.24785
##DELTAX=-1.9287336
##MAXY=0.99569786
##MINY=0.13376367
##XFACTOR=1
##YFACTOR=9.2731589e-010
##NPOINTS=1866
##FIRSTY=0.3843576
##XYDATA=(X++(Y..Y))
3996+414484001+414571225+414722210+414925742+415128599+415258116+415360798
3983+415542829+415824553+416100363+416289208+416521567+416902406+417304263
3969+417624263+417952427+418338665+418676406+418967193+419246892+419479252
3956+419683298+419819307+419880916+420002848+420309865+420596763+420635008
3942+420771049+421067782+421283237+421439686+421376020+421304544+421632001
3929+422028137+422196285+422441853+422838889+422917146+422788625+422950313
3915+423309072+423405551+423451863+423775109+423982754+423957526+424120017
3902+424317732+424365907+424673952+424884233+424639661+424637893+425194817
3888+425218181+424872085+425205358+425268317+425146835+425636557+425920820
3875+425981947+426070199+425977673+426333958+426498538+426042239+426077816
3861+426580233+427029269+426750695+425630901+425498041+426792185+427209083
3848+426721963+426433779+426622206+426880919+426722638+426680055+427089818
3834+427139632+426906790+427016382+427234600+427473581+427491128+427097177
3821+427395131+427756462+427230776+427426884+428066017+427982201+427618749
3807+427801262+428340703+427943699+427629933+428171174+428106672+427834557
3794+427891989+427814792+427744442+427779376+427878137+428057597+428054480
3780+427951541+428232493+428545809+428477516+428205754+428052134+428198909
3767+428202476+428165582+428163332+427972881+428219188+428826698+428881751
3753+428332636+428402151+429332393+429225951+427967256+428203826+429184429
3740+428656590+427633211+427338053+427576584+427793453+427835682+427393428
3726+426907047+426791221+426674655+426600898+426604562+426419992+425726512
3713+424939125+424761272+424693685+424105201+422953655+421554934+420389375
3699+419248531+417727427+416022910+414092461+411797564+409755595+408711519
3686+408045872+406920358+405884670+405390769+405019733+404953432+405405296
3672+404727821+403541116+403648232+403845401+403506696+403310974+403183545
3659+402712848+402437391+402812863+402590144+401566894+401164491+401239534
3645+400777289+399733278+398713434+397929518+397231892+396636853+396009224
3632+394771965+393302186+392961553+392714570+391393656+389708100+388418874
3618+387765374+386888128+385282565+383639592+382117203+380672877+379400009
3605+377836804+375952184+374203445+372543471+370711783+368925988+367325921
3591+365442233+363201103+361323939+359778732+357885113+355742937+353694701
3578+351695605+349674783+347724890+345734278+343412932+341091617+339278537
3564+337432772+335100563+332741807+330584172+328421396+326145621+323910116
3551+321729342+319304767+316772497+314470979+312256942+309921872+307462717
3537+304996008+302669841+300388538+297998352+295566031+293161382+290739732
3524+288328012+285998727+283659094+281252709+278836362+276411176+273986473
3510+271636555+269391007+267048706+264544299+262155687+259901863+257606854
3497+255304292+253042545+250777746+248479539+246168797+243920629+241755555
3483+239547014+237234601+234926592+232716395+230577690+228384206+226032520
3470+223619901+221384283+219393671+217441095+215400669+213355598+211378468
3456+209451892+207546334+205660702+203769751+201886657+200078703+198308720
3443+196511356+194673465+192755679+190864486+189183109+187679151+186183436
3429+184647468+183171534+181755474+180265528+178736759+177322756+175976613
3416+174566643+173144942+171816443+170573399+169392302+168194605+166829870
3402+165383423+164147482+163165321+162222079+161177344+160106465+159196904
3389+158449978+157715201+156927460+156148252+155435168+154767207+154120922
3375+153516305+152937366+152341041+151798386+151440864+151269776+151169971
3362+151087118+151052023+151052345+151061295+151047090+151023115+151141320
3348+151435192+151760254+152083630+152472294+152914789+153389954+153960231
3335+154637465+155302791+155868906+156424545+157105346+157961413+158967613
3321+160015755+161030456+162027996+163004147+163943436+164882243+165848014
3308+166856063+168015515+169411987+170913888+172319905+173596790+174866830
3294+176224399+177690466+179279639+180924989+182548952+184195234+185904106
3281+187651946+189397825+191124533+192865270+194639029+196511292+198589336
3267+200791064+202953053+205087082+207251899+209416877+211582466+213846703
3254+216240586+218651984+221010242+223389486+225895804+228539626+231226176
3240+233902602+236599501+239321435+242073676+244918233+247853758+250779192
3227+253670945+256608205+259623658+262666332+265712043+268766512+271834881
3213+274954028+278118618+281288704+284427616+287548017+290723309+293943660
3200+297134861+300295177+303459671+306622687+309786924+312951000+316114401
3186+319311580+322522835+325686912+328802909+331924274+335080862+338220674
3173+341265935+344219056+347169123+350151875+353123733+356081739+359011977
3159+361841173+364562962+367239565+369905177+372573296+375242603+377904198
3146+380526070+383050659+385468452+387827015+390196505+392610153+395027111
3132+397369958+399560824+401634931+403712477+405795068+407812644+409770668
3119+411686237+413564108+415444100+417321424+419157130+420921938+422551573
3105+424064129+425583754+427152230+428679665+430107633+431519434+432946663
3092+434291327+435521612+436687621+437833350+438941027+439957785+440902490
3078+441847676+442772872+443580892+444259010+444876611+445477211+446056149
3065+446585338+447051889+447446901+447744919+447928492+448019347+448067523
3051+448077164+447985827+447751957+447428614+447045622+446522701+445828321
3038+445042991+444176286+443143362+441919601+440562852+439061578+437331929
3024+435352533+433138432+430665810+427873638+424682790+421060454+417028806
3011+412538865+407482938+401777721+395355532+388162924+380146517+371239108
2997+361378285+350412420+338116835+324416840+309404157+293032058+275091354
2984+255513206+234750779+214085442+195329166+179695620+167485571+158820163
2970+153048211+148624235+145180057+144248225+147783000+156565069+169452834
2957+183778562+196489470+205525303+210306657+210869607+207262826+199937343
2943+190406500+181472015+176088598+175600756+179380360+185781611+193312844
2930+201300616+209669388+218418950+227450814+236681598+245970697+254932950
2916+263034460+269742037+274629560+277608616+279052042+279549896+279592382
2903+279478324+279292275+278781663+277356684+274399321+269614352+263139873
2889+255060282+245047734+233181886+220780164+210451729+205473834+207911409
2876+216994887+230049000+244707872+259788656+274790605+289328605+303033839
2862+315719904+327403995+338307190+348898612+359669815+370868072+382456165
2849+394071962+405149604+415273157+424310468+432345677+439530829+445989977
2835+451905635+457505727+462964154+468334972+473559947+478609896+483513456
2822+488222772+492645029+496780517+500682681+504399471+507983016+511484030
2808+514965664+518463432+521916046+525208739+528313295+531290873+534136492
2795+536791434+539216169+541326625+543082916+544606142+546005763+547263140
2781+548347421+549303342+550219668+551103791+551861483+552466389+552963054
2768+553375388+553748963+554132630+554557433+555033080+555543564+556090364
2754+556621224+557030216+557254155+557294714+557222081+557108312+557009840
2741+557034715+557349799+558124909+559426123+561115118+562870509+564415267
2727+565654776+566622459+567506518+568587457+570063760+571979907+574201883
2714+576489356+578643134+580558703+582198654+583609395+584897947+586114509
2700+587248025+588275807+589149068+589865751+590479013+590988405+591346489
2687+591505381+591460002+591259652+590923100+590553960+590476956+590947718
2673+591923114+593249974+594792482+596379598+597867536+599240611+600567793
2660+601887647+603156787+604328612+605421763+606487468+607563200+608631219
2646+609640232+610608493+611613392+612616685+613486925+614246866+615022234
2633+615829225+616597716+617287338+617893402+618402215+618819048+619170191
2619+619440795+619603286+619688002+619766227+619871383+619992930+620132603
2606+620287831+620431039+620541788+620592695+620570326+620511449+620462599
2592+620430268+620369655+620302100+620282560+620279218+620313220+620445501
2579+620643152+620888045+621233789+621700950+622230782+622765755+623281446
2565+623747901+624188259+624657864+625117698+625487159+625777946+626046815
2552+626288495+626470269+626631667+626856378+627202121+627676482+628200464
2538+628723804+629326139+630034017+630765483+631496757+632237930+632997871
2525+633812255+634659355+635491094+636336780+637228681+638121610+638995064
2511+639918461+640927795+641966118+642953020+643861183+644735986+645621781
2498+646516125+647354098+648074445+648715603+649318453+649857219+650355362
2484+650885836+651459697+652055090+652661218+653272873+653913260+654598770
2471+655307547+655988557+656614481+657250819+657970523+658753604+659560789
2457+660369259+661129458+661816317+662477529+663176601+663923108+664659010
2444+665357503+666054968+666735592+667358046+667958196+668582321+669189091
2430+669758710+670362716+670972315+671479971+671892948+672276421+672625957
2417+672893797+673086306+673263966+673485720+673791291+674193854+674657095
2403+675119886+675549382+675923986+676257645+676620293+677055445+677574157
2390+678158174+678739426+679260516+679741369+680220486+680652617+681022400
2376+681389290+681679820+681785298+681801110+681844047+681768715+681497211
2363+681028763+680670614+680745239+681027413+681067136+680643811+679876285
2349+679797161+681631227+684469807+685798082+685328413+684803338+684860094
2336+685234955+685593489+686018871+686699753+687400945+687832498+688144239
2322+688629848+689214957+689659880+689982483+690380034+690945667+691607201
2309+692311351+693075984+693886704+694728405+695542724+696247774+696859172
2295+697452380+698011264+698525284+699014428+699453694+699801558+700104751
2282+700429090+700753365+701011950+701161457+701203815+701181961+701143845
2268+701127712+701178040+701302544+701469920+701667892+701901794+702152022
2255+702395502+702645730+702974762+703410171+703595480+703737982+703908443
2241+704156936+704460128+704802786+705203872+705660878+706136910+706584339
2228+707002458+707438253+707888188+708310999+708706814+709068113+709356200
2214+709577890+709753814+709866748+709930511+709967662+709966763+709983539
2201+710163063+710603872+711307571+712211749+713180910+714099872+714963491
2187+715782888+716527082+717216448+717936731+718687095+719333588+719815084
2174+720255956+720751143+721252050+721712269+722149414+722623968+723174239
2160+723743793+724298950+724889394+725497193+726059098+726592979+727120304
2147+727635480+728144164+728634273+729072125+729435994+729786558+730202170
2133+730660976+731129938+731608155+732079559+732533223+732984251+733456234
2120+733943835+734434201+734933694+735454527+735993678+736520681+737042864
2106+737619553+738249270+738885093+739562761+740317496+741057190+741719881
2093+742310132+742860340+743377701+743791064+744049005+744155640+744120866
2079+743997070+743824616+743588721+743281865+742920888+742531244+742156447
2066+741951469+742141021+742650027+743296841+744073302+744976258+745951783
2052+746913874+747812332+748635136+749353490+749888785+750170380+750299062
2039+750421380+750594734+750861160+751224387+751737763+752458882+753359589
2025+754399004+755537213+756667902+757693369+758664845+759644290+760500839
2012+761254096+762034285+762747947+763324443+763837820+764343869+764811159
1998+765248754+765689369+766020843+766290869+766714837+767025228+767200189
1985+767463337+767784013+768098068+768358323+768608745+768902231+769232677
1971+769527192+769671943+769784298+770043590+770203188+770191554+770159480
1958+770034977+769747403+769374921+768925564+768316672+767537127+766587762
1944+765334756+764189091+763563680+763148840+763010709+763257403+763759531
1931+764433085+765260838+766295240+767511609+769117429+770932598+772262930
1917+773788597+775561858+776818079+777772778+778669500+779569435+780360679
1904+781024206+781674941+782314621+782851138+783313672+783950652+784473156
1890+784694588+785214200+785762607+786059436+786425684+786777791+787067356
1877+787439518+788064414+788761043+788918135+788993081+789729304+790424198
1863+790775983+791165435+791690574+792285389+792817856+793210714+793562564
1850+794049587+794535003+794175633+793758864+794311192+794669084+794857736
1836+795619220+796669434+797321712+797781482+798725576+799211056+799436603
1823+800225340+800882889+801341502+802039802+802905478+803460570+803814734
1809+804417584+805158885+805825368+806169119+806355842+807030681+808094329
1796+808674875+808396108+808408963+809281774+809744115+809697579+809982517
1782+810392215+810790987+811589237+812280081+812175246+811881245+812193565
1769+812334780+812641572+813008656+812840251+813071197+813463412+813690437
1755+814429231+814670397+814267319+814466640+814947943+815235130+815333859
1742+815295293+815817668+816793707+816067576+814986509+815650164+816068925
1728+815987808+816037880+816321918+817095871+817205270+816078888+815322546
1715+815157613+814975067+814803835+814500514+814176496+814488751+814401399
1701+812779960+811836830+810388937+808261320+807571119+806732374+805909249
1688+805010342+802349165+799801179+798911271+797692266+795748416+793707122
1674+792642702+791504429+789405351+788361821+788023277+786709979+785519513
1661+785700645+786614528+786872599+785118235+784209879+786171213+785976070
1647+783994553+783869535+784839982+785627755+786338846+786270777+786464378
1634+788300952+789861071+790662535+792067363+793741510+795105779+797132868
1620+798987053+799404143+800391366+802659235+804145951+804955771+805936759
1607+806973218+807881188+808721925+809575775+810363034+811030545+811665340
1593+812306499+812868083+813353242+813816740+814248036+814783973+815639301
1580+816237201+815665911+815490694+816600556+816394550+815194443+815125989
1566+815541215+816196386+816139115+813781517+812203014+812361648+811181274
1553+809588437+808438080+807804507+807420969+806821654+805595451+803095415
1539+801357378+800830246+798666056+795945873+794546380+792917934+790729383
1526+788850901+786392067+783058494+780339982+777379598+774068972+771332206
1512+768859488+765799861+760585299+754866295+750887899+746394777+740053255
1499+732318539+723781138+715227668+705350358+692472556+677143890+660409625
1485+643054063+625905471+610052823+596449788+584864394+573792634+561039914
1472+546744557+533452204+522869427+515560832+510280066+504299392+497686816
1458+496625353+507972539+528608967+550728738+571016531+587939833+599969635
1445+606541075+609219992+610506229+611902380+614874141+619560864+623224690
1431+625145015+626761763+628359870+629854556+631673904+633318483+634897307
1418+637628224+640477024+642607276+644734251+647069546+649254562+651171352
1404+653320374+655442913+656756790+657073930+655109254+650287871+643793114
1391+635290615+624351007+613436210+606356537+606098466+614532189+630484209
1377+649214325+665729536+677911544+685933384+691430634+696428069+700983925
1364+704371812+706753836+707966413+707854186+707035303+705953915+704494002
1350+702625933+701104122+701489846+704894445+710347730+715890166+720962098
1337+725901685+731029473+736634001+742786229+749402469+756338677+763462702
1323+770639112+777692432+784539939+791112471+797164749+802567769+807301029
1310+811014412+813415269+814524103+814549557+813987394+813337237+812896879
1296+812866347+813418226+814605992+816302956+818323296+820411512+822113297
1283+823032901+823069153+822282023+820983894+820005991+820403349+822720646
1269+826550948+831004605+835407932+839364153+842616674+844993105+846270794
1256+846241613+844710353+841340977+835888207+828384951+819043964+808315698
1242+797208521+787206387+779691946+775964872+777315515+784204287+795688381
1229+809849079+824681401+838595791+850578993+860481563+868704523+875516035
1215+881055643+885532632+889224547+892478996+895536695+898360427+900871325
1202+903198071+905454820+907473360+909139408+910495771+911590336+912482301
1188+913130466+913432566+913472031+913429159+913341871+913094214+912639779
1175+912069903+911368325+910379174+909037722+907456134+905784816+904003135
1161+902007413+899861284+897638602+895203935+892316184+888770048+884424955
1148+879040446+872370342+864543647+856019872+847372751+839230329+832112282
1134+826154555+821036087+816451949+812442894+809003907+805749779+802049958
1121+797382132+791352094+783143017+771361001+754590549+731760619+702240274
1107+666360410+626809456+589643933+562259433+548807705+547749264+554295957
1094+564453190+576287013+588657931+599972978+607990960+610076605+602998988
1080+582954867+546702778+493944958+431015892+372352313+334434979+324392640
1067+333357287+341970952+334619164+309895744+278749524+255211091+249191096
1053+265023063+302935014+360099279+431469974+510395828+589250882+661061967
1040+720950014+766536855+797682753+815623875+821807791+816593679+798138474
1026+761829692+702200937+621140716+537116287+480296480+472082936+509625859
1013+571658653+637550256+698366842+753109553+801588645+842310203+873626113
999+894935195+907090208+911767804+910287708+903143822+890372526+872036618
986+848094962+817584502+778142689+726174989+658005811+573587656+481366974
972+399234138+348317873+342879404+384480490+462890654+561078930+662454518
959+755632214+834457026+896756085+943484477+977554379+1002301292+1020337349
945+1033410681+1042833298+1049727598+1054809301+1058316356+1060438253
934+1061552615+1061899194+1061349052+1059738475+1057109308+1053536304
922+1048876191+1042718757+1034700518+1024760988+1013049484+999924089+986244244
908+973683196+964778584+961877591+964882969+970115014+972112407+966609565
895+951701010+927515681+897160770+868506873+852037813+853353682+869255309
881+893875790+924250562+957136362+986618655+1007986679+1020373408+1025022980
868+1022984771+1014114353+997878488+976422405+957591439+952076063+964024684
854+986608049+1009293806+1026425750+1037675814+1044384998+1047963208+1049794382
841+1050623935+1050369721+1049028848+1047154480+1045252538+1043318136
829+1041007909+1038236498+1035415080+1032794333+1030003575+1026611253
818+1022814824+1019075987+1015332843+1011094899+1006197927+1001117704+996536137
804+992828538+990036366+988007928+986275547+984253407+981646930+978433939
791+974841781+971266271+967669292+963599688+959034962+954246360+949254195
777+943780149+937439656+930492777+924025144+919192835+916223710+913964197
764+910750563+905249971+896778260+886453201+878153494+876275527+881245066
750+888821662+894784853+898090144+899293144+898967326+897706028+895985859
737+894067912+891965363+889569262+887009128+884557236+882239424+880002344
723+877983225+875548109+872660551+869784176+867331191+865160830+862929599
710+860693097+858669865+856830785+854949732+852961659+851004053+849229635
696+847658396+846149890+844532693+842797933+841129893+839749490+838656404
683+837636850+836498577+835260161+833993849+832497170+831076594+831311140
669+832742578+831735622+829067246+828569938+829863632+830578516+830552548
656+830600498+830995413+831767760+832732165+833517367+834091999+834764267
642+835657197+836722195+837912275+839110903+840353690+841871002+843723515
629+845743148+847618737+849549475+851452960+853333306+855605738+858235484
615+860822357+863364172+865932212+868597696+871566564+874713093+877660172
602+880519320+883634996+886724833+889624476+892874747+896553550+900043508
588+903016105+905962283+909326067+912738186+915905155+919036772+922254198
575+925755211+929239385+932234800+935127757+938287656+941283585+943995154
561+946945254+950351524+954050767+957843982+961505173+964877248+968008993
548+971053644+974079590+977039588+979908699+982826532+985978589+989208549
534+991962605+994149485+996358862+998779452+1001193036+1003717368+1006050541
521+1007860504+1009397549+1010969174+1012744170+1014431751+1015651076
509+1016392377+1017029101+1017494848+1016978387+1015696391+1014025330
498+1011526194+1007799249+1002654427+996615261+990258763+983598558+976955643
484+971579876+969079776+969520713+971139196+971909357+970080561+965264386
471+958572621+951093211+945531428+945497361+952408502+964809693+980107121
457+996512548+1010693813+1020343456+1027110810+1031816944+1034452282+1035881856
444+1037403796+1039149418+1039573321+1039113551+1040097046+1041895054
432+1042956452+1044821371+1048647367+1053161058+1057153530+1060403222
420+1062074862+1063752865+1066667484+1069004836+1070499844+1071165813
409+1071331132+1071597365+1072308778+1073741823+1073721897+1070496951
##END=
