##TITLE=24
##JCAMP-DX=4.24
##DATA TYPE=INFRARED SPECTRUM
##DATE=16/11/2015
##SAMPLING PROCEDURE=Instrument type and / or accessory
##ORIGIN=Default
##XUNITS=1/CM
##YUNITS=TRANSMITTANCE
##RESOLUTION=4
##FIRSTX=3996.3359
##LASTX=399.24785
##DELTAX=-1.9287336
##MAXY=0.97320384
##MINY=0.11508217
##XFACTOR=1
##YFACTOR=9.063667e-010
##NPOINTS=1866
##FIRSTY=0.39273506
##XYDATA=(X++(Y..Y))
3996+433307029+433390120+433542786+433814055+434130503+434397662+434621385
3983+434819164+435025099+435276047+435577468+435932551+436303088+436664024
3969+437049028+437417855+437690900+437942013+438275427+438596215+438825330
3956+439035046+439241967+439431690+439693555+440026312+440220179+440318428
3942+440524460+440724114+440850345+440932383+440989794+441225387+441583790
3929+441735142+441787291+442066419+442390429+442446623+442450141+442674357
3915+442946547+443110295+443333294+443553565+443595718+443761242+444160155
3902+444398477+444494293+444592081+444428465+444192872+444470125+444830305
3888+444648702+444670174+445043111+445039297+445130903+445448962+445538563
3875+445647531+445708262+445786224+446019186+445872142+445653384+445862869
3861+446165474+446225383+445859187+445636911+446366542+446956626+446432699
3848+445761135+445681760+445992618+446170669+446176621+446476069+446808628
3834+446741781+446655863+446689796+446690947+446770289+446736290+446831382
3821+447333772+447318712+447073091+447397693+447506266+447138820+447058261
3807+447573015+447780659+447460923+447672020+447935364+447616648+447419460
3794+447347713+447158516+447082560+447155819+447330484+447473385+447398712
3780+447378424+447571897+447654001+447533820+447430048+447537799+447655086
3767+447594650+447583372+447536188+447486110+447724662+447885286+447641440
3753+447568214+448274927+448824699+448064127+447393221+447954698+448096284
3740+447260348+446728859+446888200+447131619+447114817+446759306+446255963
3726+446030629+446005442+445877271+445674592+445407302+444942133+444311441
3713+443987792+443989108+443582138+442602578+441389891+440260984+439135465
3699+437608796+435708532+433649255+431422614+429169668+427354434+426004074
3686+424612809+423168738+422128446+421591531+421407791+421713092+421752714
3672+420830925+420232292+420339616+420176690+419847419+419699783+419406714
3659+418887653+418723971+418744982+418198630+417568234+417437268+417098988
3645+416027558+414694460+413596034+412718471+411911930+411156422+410192710
3632+408855436+407920890+407549367+406504011+404733200+403109466+402007785
3618+401076330+399642649+397892454+396276678+394705554+393151232+391500437
3605+389538751+387486215+385571155+383637122+381648375+379771622+377786064
3591+375379695+372957575+370980173+368985967+366574995+364088527+361762124
3578+359495664+357248636+355018575+352611186+349989084+347542106+345329111
3564+342903539+340242045+337637928+335069061+332440053+329826697+327274204
3551+324650721+321877267+319102366+316387079+313668043+310946279+308221193
3537+305510147+302831325+300121628+297320488+294487914+291676318+288844171
3524+286027314+283285130+280587171+277868004+275082548+272266102+269525661
3510+266918832+264325451+261586506+258823459+256240666+253710647+251079092
3497+248440122+245867226+243329217+240767451+238176668+235633086+233153244
3483+230639090+228051990+225501618+223054541+220646035+218191462+215642421
3470+213057902+210629979+208407612+206201949+203905172+201601885+199404080
3456+197298490+195247105+193240586+191187030+189082575+187038605+185084646
3443+183187013+181271015+179253465+177241931+175442267+173813453+172168593
3429+170493828+168900345+167343031+165735491+164177108+162696933+161188497
3416+159627007+158090309+156650036+155295960+153995809+152702809+151308256
3402+149807991+148464174+147436952+146482529+145356961+144181807+143230672
3389+142458904+141654517+140797949+139937763+139101959+138341682+137690505
3375+137151280+136647369+136041313+135391320+134941342+134721647+134540250
3362+134347567+134237835+134192903+134149105+134106409+134085973+134178698
3348+134439034+134774043+135076664+135338504+135624660+136015625+136544311
3335+137149258+137776514+138438352+139119632+139802194+140558245+141438176
3321+142379759+143343076+144299965+145221688+146175963+147191018+148196489
3308+149201795+150345515+151692209+153110978+154461142+155737142+157019553
3294+158387456+159861794+161425027+163042809+164671574+166297675+167944820
3281+169635056+171356743+173091352+174843486+176625970+178500143+180535613
3267+182677734+184840488+187008157+189189702+191414370+193687078+196009732
3254+198420590+200878928+203289424+205696928+208245294+210937170+213683547
3240+216462229+219263845+222080554+224956219+227948612+231006865+234023721
3227+237038292+240150717+243341662+246550051+249771132+253016593+256299638
3213+259620562+262949197+266257922+269539126+272846848+276222963+279608400
3200+282974568+286374078+289819062+293252703+296649122+300039491+303456394
3186+306906936+310366848+313801902+317216965+320659812+324128997+327568359
3173+330950836+334295500+337621948+340905848+344143747+347365699+350581042
3159+353792110+356948596+359996541+362997598+366004771+368978536+371905512
3146+374782804+377584109+380320012+383035234+385766271+388480013+391140389
3132+393767226+396329715+398779356+401156856+403529456+405893212+408212710
3119+410469108+412649453+414771336+416857377+418909322+420925985+422888722
3105+424795529+426685633+428546045+430290650+431924346+433564850+435214724
3092+436745437+438143903+439530301+440940242+442304248+443576384+444739092
3078+445819302+446883038+447919943+448872640+449718045+450464610+451160834
3065+451835752+452430866+452889788+453244312+453521269+453709513+453847647
3051+453965788+454009915+453904926+453637438+453247008+452751786+452126848
3038+451363119+450473587+449412909+448142877+446698674+445089112+443271051
3024+441170245+438767361+436122834+433180996+429786780+425913125+421596298
3011+416741570+411231654+405042973+398140937+390430355+381791474+372122067
2997+361388332+349503989+336232163+321355280+304863113+286801105+267079012
2984+245638193+222998989+200675986+180680241+164252011+151616533+142683350
2970+136600127+131867445+128168701+126970876+130246926+138846949+151688049
2957+166135621+179103363+188456454+193452636+194019802+190301132+182803521
2943+173017550+163793271+158120428+157380818+161011564+167360688+174906585
2930+182993984+191550054+200526459+209816419+219389270+229115989+238566145
2916+247126752+254205475+259424624+262732790+264425624+265071211+265242308
2903+265258386+265147676+264630835+263111399+259953204+254879422+248042622
2889+239449199+228719229+216031602+202856972+191929748+186602881+188941466
2876+198118939+211398706+226396361+241907883+257396190+272511297+286937791
2862+300444388+312929074+324541161+335814804+347371486+359500727+372087312
2849+384679716+396707979+407789793+417771735+426664030+434585676+441708443
2835+448263945+454524504+460688820+466744793+472593385+478236206+483695420
2822+488946694+493973259+498756537+503256543+507494521+511558722+515530363
2808+519502102+523506657+527455116+531265541+534910114+538367034+541626207
2795+544664387+547425412+549844342+551888526+553637800+555221616+556685942
2781+558029858+559272763+560427481+561451859+562270729+562895733+563453396
2768+564020529+564531698+564947578+565378781+565923423+566533236+567141273
2754+567724452+568189259+568434026+568484005+568411009+568252062+568089761
2741+568085552+568429225+569297549+570752011+572637149+574623759+576378557
2727+577730561+578757766+579733348+580941268+582587492+584756526+587289027
2714+589891302+592363500+594594153+596504807+598101381+599507376+600864116
2700+602184028+603393789+604431845+605267354+605933393+606474155+606847093
2687+606995255+606940606+606713661+606338422+605950623+605826464+606239779
2673+607275599+608773332+610491369+612272143+613986892+615542759+616987685
2660+618413541+619843079+621234344+622533344+623756191+624953589+626135401
2646+627291632+628431882+629548129+630596049+631575511+632511702+633409684
2633+634296750+635166784+635950340+636593494+637128075+637616359+638051902
2619+638400573+638619100+638693872+638719388+638791134+638891553+638992630
2606+639125403+639264490+639343536+639357083+639324465+639263701+639202016
2592+639133952+639014989+638866761+638756083+638713403+638751940+638859264
2579+639034652+639301514+639668796+640132025+640661213+641218613+641789034
2565+642358075+642892524+643370154+643775118+644102350+644396373+644683820
2552+644959232+645208207+645402797+645589759+645887530+646345564+646923679
2538+647579920+648276341+648980786+649696212+650444981+651255828+652132964
2525+653031210+653923142+654824610+655745543+656701988+657704204+658708392
2511+659693641+660717887+661807369+662897245+663968314+665031031+666021014
2498+666926297+667786992+668588764+669329772+670010543+670608058+671153423
2484+671721609+672330040+672945903+673582349+674255557+674909364+675527792
2471+676179626+676894001+677648687+678416921+679180420+679975682+680841836
2457+681744093+682618993+683419318+684165061+684942370+685760583+686519281
2444+687192094+687882465+688640966+689410121+690142909+690829860+691464926
2430+692082235+692717300+693317578+693836441+694302629+694722586+695067838
2417+695328190+695526397+695701588+695903346+696186124+696593191+697106728
2403+697619607+698046864+698392116+698706525+699084526+699572152+700154345
2390+700774548+701342799+701808066+702206388+702597344+702965480+703284098
2376+703577266+703816574+703925674+703881284+703740488+703441796+702926220
2363+702238940+701799385+701982336+702629370+703145406+702949632+702040798
2349+701624590+703149351+705856846+707178139+706646058+706127983+706457452
2336+707201682+707816690+708391386+709101683+709709589+710079040+710482689
2322+711173455+711934389+712414124+712688155+713096538+713784673+714615249
2309+715440696+716245494+717033259+717825627+718612800+719330858+719975195
2295+720599278+721181997+721721905+722231693+722665197+722983881+723251335
2282+723536086+723820375+724048241+724162865+724142413+724053502+723990897
2268+723964986+723966170+724033116+724168520+724322075+724501540+724752949
2255+725048418+725330735+725665596+726103244+726254102+726340908+726459214
2241+726656895+726935135+727273350+727646024+728057761+728510271+728973565
2228+729429560+729886213+730343720+730792415+731202903+731546181+731842374
2214+732103910+732276602+732328620+732302841+732219586+732098058+732040121
2201+732209261+732705371+733470185+734390461+735394913+736414555+737368172
2187+738215321+738973230+739694246+740441962+741206579+741887152+742448563
2174+742963547+743463734+743947020+744439908+744929902+745424565+745950465
2160+746474392+747012853+747610499+748223337+748794482+749331298+749864235
2147+750389609+750880195+751345462+751795604+752193137+752563246+752991424
2133+753472671+753949973+754399655+754822374+755250025+755713649+756208246
2120+756708039+757200400+757695129+758196960+758691294+759198452+759765651
2106+760378752+761007635+761673806+762408567+763212246+764030196+764805532
2093+765488538+766076912+766590515+766989560+767214861+767271022+767194935
2079+767004751+766708427+766325954+765897842+765451909+764971648+764497634
2066+764221301+764320668+764788566+765500967+766360216+767335074+768368132
2052+769375412+770330607+771205047+771927510+772446965+772755390+772876787
2039+772900133+772964843+773148319+773474828+774007765+774797963+775786303
2025+776878810+778057136+779284522+780486457+781624143+782643851+783525853
2012+784351497+785173459+785927948+786547428+787082206+787630531+788180171
1998+788646030+788993978+789298457+789646141+789940296+790118774+790324675
1985+790613766+790930148+791229760+791498662+791762697+792036333+792301815
1971+792521592+792714473+792925701+793087279+793123316+793092079+793025396
1958+792852179+792537704+792085523+791474790+790666704+789637132+788395147
1944+787049325+785789124+784752581+784107191+783967906+784233323+784757118
1931+785426972+786220524+787217676+788584871+790361108+792209748+794013013
1917+795808254+797343867+798655296+799924046+801055944+801976549+802748465
1904+803454751+804130983+804768285+805355607+805918071+806434764+806867216
1890+807319265+807759609+808101243+808494106+808937672+809295155+809584509
1877+809929300+810402722+810872001+811273610+811694949+812065979+812409718
1863+812894648+813467371+814034438+814598480+815091499+815462792+815782857
1850+816148363+816432587+816518670+816464022+816262329+816211034+816644210
1836+817400146+818209810+819059457+819996568+820675037+820999507+821436431
1823+822042495+822680586+823397064+824134587+824803323+825401167+825964683
1809+826481179+826992677+827532585+828032969+828510731+829030121+829560756
1796+830038978+830485635+830849300+830972472+831039221+831341727+831726304
1782+832018091+832361764+832794676+833198325+833597304+833925391+833855946
1769+833574682+833564291+833771968+834093348+834351990+834376586+834542043
1755+834924779+835251157+835531304+835678677+835649675+835697156+835871952
1742+836117244+836442373+836590864+836595401+836660374+836391144+835976448
1728+835985917+836197935+836410873+836638541+836757110+836629532+835972107
1715+834884993+834054285+833726066+833560872+833371016+833069102+832571940
1701+832006188+830884877+828877947+826877593+825185861+823729953+822665263
1688+821559275+820022873+817899676+815263928+812873407+811116176+809673091
1674+808098415+806320864+804747635+803435220+802106890+801011818+800349198
1661+799903199+799711700+799843947+800258446+800588572+799934633+798869023
1647+798603410+798732304+798746311+799198492+800169536+801330041+802567619
1634+803510123+804293087+805679288+807604805+809460087+811228432+812908327
1620+814260726+815714333+817463607+818847966+819953691+821247496+822505198
1607+823482424+824350945+825260830+826135401+826902123+827609724+828292466
1593+828900964+829422129+829896866+830341419+830757693+831187909+831649362
1580+832021774+832315533+832451529+832064190+831502581+831283199+831009759
1566+830558302+830363843+830343917+830195690+829268640+827156885+825043684
1553+823660376+822642707+821741896+820954263+820279280+819394318+817859495
1539+815631867+813032486+810712133+808831927+806796522+804508195+802336465
1526+800105220+797456846+794377927+790895951+787209916+783675002+780364074
1512+777208804+773917408+769808455+764376631+758053730+751713336+745292514
1499+737804636+728658038+718320159+706997228+693468962+676710722+657602733
1485+637866781+618707892+600955394+585486092+572480109+560449577+546732147
1472+530494973+514751048+502894786+495321548+489283693+481914581+474711453
1458+474219058+486036718+507051580+530692029+553194431+572050880+585154848
1445+592084931+594763688+595872635+597724235+601471561+605892752+609282660
1431+611710140+613588504+615022514+616504925+618282740+620240677+622618637
1418+625283386+627721585+630132821+632777183+635453704+638007315+640530478
1404+642957036+645018220+646595329+646987863+644833823+639654986+632051169
1391+622404910+610763559+598747297+590361436+589711311+598776232+615952326
1377+636257252+654466272+667698147+676080260+681961700+687253582+692169765
1364+696242876+698865538+699753064+699389268+698397508+697022750+695242634
1350+693091158+691273887+691485641+694993592+700902192+707165184+712753720
1337+717946104+723377862+729423247+736137959+743415399+751073272+758925934
1323+766832980+774687943+782337596+789551641+796206115+802254000+807486696
1310+811568028+814239682+815444313+815445234+814795898+814027138+813452114
1296+813278765+813765800+815044085+816930407+819156851+821438733+823325055
1283+824384878+824443472+823527800+822002972+820833458+821216457+823722521
1269+827901839+832813484+837673967+842040509+845703265+848419046+849877190
1256+849859829+848150341+844424848+838438583+830188850+819859586+807919805
1242+795488847+784225168+775697327+771375502+772690154+780172640+792812261
1229+808490095+824954905+840424075+853771626+864804480+873941740+881447900
1215+887479607+892389279+896534663+900192224+903554578+906629223+909396166
1202+911952737+914377848+916558456+918353237+919765809+920919146+921879602
1188+922554585+922872546+922964678+922992956+922958497+922718728+922198352
1175+921515083+920712521+919655065+918279452+916654798+914844365+912818956
1161+910545886+908131362+905655482+902982184+899870121+896064727+891284935
1148+885243167+877794943+869135446+859743160+850208105+841175868+833238505
1134+826617898+821029363+816131725+811889539+808238226+804733102+800766985
1121+795863955+789480815+780601935+767777193+749516024+724576969+692190085
1107+652717919+609203943+568386874+538376142+523672114+522590360+529905316
1094+541207795+554379794+568207672+580921934+590043673+592721575+585449331
1080+564044993+525040691+468414330+401416945+339664653+300217870+289891138
1067+299127534+307960610+300509822+275513734+244166221+220483306+214156032
1053+229434541+266846214+324230764+397187221+479250062+562416787+638959354
1040+703261279+752538519+786566828+806595158+813974068+808859744+789157857
1026+749859763+685129858+597314339+506611730+445190583+435340231+473963539
1013+539033336+608968778+674125216+733237913+785994828+830676411+865342678
999+889200471+903098517+908797994+907733699+900518273+887260750+868011570
986+842585283+809862025+767292460+710976497+637168190+546365523+448291828
972+362086562+308846591+301991147+343048445+422776664+524859582+632168291
959+732057548+817330701+885159912+936220162+973549337+1000767775+1020681284
945+1035140611+1045599756+1053326416+1059035231+1062966099+1065442374
934+1066875068+1067407150+1066931032+1065321832+1062543182+1058658282
922+1053581771+1046942619+1038360195+1027631886+1014821414+1000387538+985311494
908+971377081+961392213+958064055+961364527+967243205+969621823+963710592
895+947393616+920863445+887571213+856119007+837978577+839329727+856685417
881+883536244+916539319+952223453+984288760+1007646827+1021285310+1026421270
868+1024194563+1014520289+996695189+972978258+952043396+945710828+958598767
854+983128781+1007760595+1026527147+1039043464+1046583821+1050648318+1052662153
841+1053374094+1052915732+1051527755+1049724820+1047803051+1045666570
829+1043029441+1039885220+1036716733+1033755265+1030554554+1026797035
818+1022763907+1018740248+1014553039+1009834932+1004577772+999198755+994197607
804+990002770+986820538+984473092+982494374+980393930+977741347+974301459
791+970287204+966150106+961939025+957335278+952381480+947239470+941740568
777+935621201+928684278+921254928+914318005+908980221+905573937+902988497
764+899351652+893142848+883785351+872623077+863729729+861607649+866643585
750+874564705+881052604+884754948+886096694+885810957+884504789+882570789
737+880394785+878144206+875623015+872783339+869965035+867334220+864754238
723+862367071+859666021+856626625+853595252+850878090+848364529+845849389
710+843392448+841055523+838819346+836658730+834535072+832399577+830323334
696+828438064+826760339+825156203+823482358+821753076+820102643+818582090
683+817140254+815687370+814224491+812797123+811252830+809936271+810233319
669+811385275+809880833+806949813+806454756+807933681+808947076+809130355
656+809135485+809231366+809671775+810567719+811485102+812109777+812777197
642+813808545+815065326+816310467+817502735+818737946+820125922+821768530
629+823695822+825671186+827755847+829919291+832245036+834962724+837819104
615+840422826+843010962+845749759+848534787+851451274+854535388+857693288
602+861086813+864802376+868284286+871266732+874417398+877995912+881411862
588+884625726+888168071+891986354+895609390+898941690+902353629+905926817
575+909283779+912403470+915738336+919452649+923067793+926187551+929100749
561+932341575+936062728+940066723+944021200+947548223+950691852+953865863
548+957386770+961207553+964849922+967959026+970725246+973728473+977170728
534+980509079+983329356+985910390+988613675+991103431+992961279+994743105
521+997086145+999602535+1001739279+1003608372+1005223622+1006336844+1007002358
507+1007330313+1007327749+1006928967+1005771487+1003719444+1000875559+996787124
494+991366020+985374888+979050606+972270723+965647486+960411173+957703875
480+957702560+959171227+959972933+958272916+953368044+945952767+937937542
467+932110421+931740838+938702356+951970926+969007670+986616544+1001042332
453+1011227051+1018403546+1023328935+1026583439+1028832045+1030765914
442+1032532220+1033361284+1033844372+1035493885+1037537247+1038929761
430+1040998442+1044456743+1048092537+1051302849+1054743197+1059122037
419+1063791809+1066672521+1067417672+1067386040+1067093399+1066828246
407+1067630478+1069926367+1072541532+1073741823+1073519087
##END=
