##TITLE=24
##JCAMP-DX=4.24
##DATA TYPE=INFRARED SPECTRUM
##DATE=16/11/2015
##SAMPLING PROCEDURE=Instrument type and / or accessory
##ORIGIN=Default
##XUNITS=1/CM
##YUNITS=TRANSMITTANCE
##RESOLUTION=4
##FIRSTX=3996.3359
##LASTX=399.24785
##DELTAX=-1.9287336
##MAXY=1.0235879
##MINY=0.13786347
##XFACTOR=1
##YFACTOR=9.5329056e-010
##NPOINTS=1866
##FIRSTY=0.36685038
##XYDATA=(X++(Y..Y))
3996+384825353+384918797+385057384+385230829+385390425+385532419+385715555
3983+385962436+386235014+386494150+386719553+386924292+387155041+387404204
3969+387654805+387947485+388267676+388578489+388885206+389146874+389348767
3956+389528746+389682152+389820020+390019350+390286957+390471563+390585390
3942+390770433+390957383+391117073+391238215+391285047+391468214+391824733
3929+392053137+392137327+392309928+392497066+392540208+392633589+392919954
3915+393161958+393246773+393420844+393674852+393790805+393943273+394198250
3902+394266434+394265277+394385263+394368600+394265558+394516378+394840571
3888+394762790+394822595+395122872+395130875+395231854+395481141+395510591
3875+395605254+395751156+395907375+396132966+396056404+395943046+396160446
3861+396418956+396460129+396185644+396112083+396857383+397388815+396869950
3848+396201119+396104892+396426803+396667337+396734771+396988779+397212963
3834+397087006+397009100+397156816+397327978+397449340+397345392+397372527
3821+397833088+397873166+397672617+397948916+398091317+397829430+397772188
3807+398237751+398477941+398210802+398304590+398501732+398339635+398295993
3794+398285332+398136022+398088878+398165815+398297650+398385498+398337728
3780+398408194+398655356+398733731+398595426+398480505+398564413+398663391
3767+398607431+398594550+398582045+398617997+398940127+399208204+399095721
3753+399024880+399532459+399979014+399425947+398906051+399333473+399414287
3740+398711566+398277141+398459277+398769558+398865722+398622687+398202643
3726+398034513+398112481+398120078+398001749+397764404+397305000+396683844
3713+396386193+396467319+396225503+395445314+394433407+393502564+392635809
3699+391526925+390152278+388599966+386821219+384985480+383555874+382554565
3686+381498233+380318134+379382319+378840039+378648587+378922416+378995539
3672+378305199+377932080+378116185+377985289+377697892+377630239+377493528
3659+377153360+377078767+377157299+376768330+376313053+376290544+376089995
3645+375240434+374157623+373308407+372686187+372106298+371521344+370763007
3632+369720525+369031967+368848893+368103124+366655698+365257448+364383565
3618+363804113+362806431+361422811+360044632+358663326+357356706+356081943
3605+354582434+352983447+351509916+350023193+348439368+346937482+345409993
3591+343563625+341671770+340135652+338604442+336727561+334771743+332960139
3578+331229974+329497934+327698397+325692652+323576988+321768229+320207539
3564+318372488+316269110+314244639+312309079+310276418+308142215+306080448
3551+304063668+301899234+299681748+297591376+295570750+293488756+291305471
3537+289109087+286998207+284949288+282886771+280768450+278544742+276249600
3524+274036522+271899412+269713189+267496422+265317732+263148578+260967498
3510+258848489+256779734+254611362+252366662+250215812+248128128+246043133
3497+244058709+242153177+240153075+237987282+235774797+233678188+231698079
3483+229678251+227557553+225461913+223477646+221557295+219592082+217491659
3470+215330665+213312384+211477536+209664791+207768981+205842862+204001090
3456+202247322+200498071+198711008+196893683+195145714+193521560+191920604
3443+190281913+188608787+186870853+185137609+183583640+182206101+180844897
3429+179467343+178135650+176822513+175506405+174229438+172960552+171635582
3416+170264624+168943014+167723586+166528527+165362339+164300302+163197389
3402+161924346+160735852+159818702+158924983+157894474+156912939+156147787
3389+155498010+154809780+154038313+153220750+152472714+151881414+151385964
3375+150891859+150351298+149730783+149159490+148867123+148834969+148818338
3362+148716046+148653537+148673420+148681470+148637374+148619867+148781526
3348+149110299+149419564+149667586+149944181+150272251+150700298+151300446
3335+151998961+152685800+153346847+154008254+154702330+155478080+156363889
3321+157312646+158253791+159151730+160033522+160956566+161905682+162840089
3308+163803149+164910579+166230532+167658794+169020561+170289274+171543560
3294+172817542+174169007+175674785+177273788+178849953+180391996+181944996
3281+183540904+185181392+186845452+188517844+190205085+191976454+193887426
3267+195875727+197889834+199934469+201987874+204035870+206081333+208170908
3254+210366917+212624779+214875169+217153679+219533606+221996003+224481034
3240+227004815+229548589+232036340+234530516+237178425+239970611+242779726
3227+245546136+248284832+251037252+253843475+256679991+259500251+262357447
3213+265300350+268259854+271206883+274170701+277127422+280055976+282964740
3200+285858029+288775985+291754433+294751670+297724773+300666551+303557683
3186+306402859+309274139+312224483+315194553+318107788+320976880+323847816
3173+326709687+329521443+332282241+335016998+337749910+340472099+343145269
3159+345766449+348331137+350807946+353251648+355745902+358218522+360589070
3146+362924634+365253665+367520327+369757884+372022858+374239500+376337094
3132+378368787+380404731+382434110+384396962+386291506+388160227+390001593
3119+391782309+393499719+395188305+396853412+398485757+400098343+401674071
3105+403177144+404630073+406062431+407431200+408724470+410009394+411281437
3092+412469509+413599495+414744612+415866157+416878189+417783272+418646838
3078+419525473+420390790+421133995+421739020+422300183+422855969+423394624
3065+423912426+424369047+424731130+425031970+425258780+425339219+425315272
3051+425291137+425246869+425089587+424807036+424446391+424012872+423479689
3038+422813609+421998968+421061685+420001946+418772639+417347221+415729883
3024+413904617+411855230+409596947+407105913+404273085+401011054+397344204
3011+393284851+388739647+383590982+377775141+371245576+363918972+355748934
2997+346741779+336750664+325526054+312994386+299228566+284141463+267506113
2984+249294566+229961224+210662708+193042086+178246570+166672288+158499499
2970+153041052+148823730+145538174+144618523+147942720+156295690+168572005
2957+182179809+194179935+202652969+207111310+207633583+204294755+197469008
2943+188507668+180035180+174872947+174361913+177936367+184001480+191114779
2930+198664911+206601746+214883391+223400255+232075981+240764383+249144146
2916+256752614+263068140+267679870+270531643+271960249+272465202+272536012
2903+272495558+272352157+271833479+270472901+267752931+263359851+257346212
2889+249741043+240237046+228948816+217174000+207416511+202774987+205191428
2876+213901980+226279774+240017348+254035411+267953449+281488114+294328907
2862+306248641+317185010+327336658+337156234+347142940+357585111+368395899
2849+379149601+389345829+398691933+407096034+414567947+421207056+427166517
2835+432627995+437801265+442848327+447797756+452637391+457354789+461879485
2822+466159676+470194612+474000581+477589713+480977951+484239326+487485977
2808+490762170+494010977+497169936+500203844+503104261+505891539+508526162
2795+510943197+513135704+515096212+516801648+518267676+519535623+520646539
2781+521650318+522589727+523490621+524333554+525038838+525564237+525969337
2768+526343675+526719327+527089663+527490387+527959075+528461403+528958478
2754+529443360+529862154+530130324+530221111+530171528+530058170+529965508
2741+529987642+530274507+530994985+532222041+533824373+535511802+537016658
2727+538172935+538995391+539754197+540762603+542151349+543931065+546018030
2714+548176773+550174953+551925157+553406378+554677702+555882874+557060098
2700+558156664+559136684+559965767+560664549+561269980+561736230+562038852
2687+562198416+562187161+561998148+561695901+561385589+561305119+561731040
2673+562693865+564010958+565484801+566955955+568329883+569600207+570807380
2660+571980039+573135692+574279152+575379845+576411948+577383589+578318778
2646+579250840+580202098+581160421+582071225+582890305+583632979+584343139
2633+585065492+585800976+586486939+587070237+587562185+587987231+588337372
2619+588616421+588820378+588924545+588960872+589010330+589132504+589323894
2606+589531039+589702733+589827221+589904002+589918695+589895436+589887245
2592+589888496+589862110+589834411+589833724+589837288+589881368+590034680
2579+590295910+590633671+591023953+591454063+591916312+592394317+592896581
2565+593420917+593901861+594328720+594747639+595130105+595436291+595682827
2552+595912545+596161583+596417623+596663097+596960154+597377759+597880962
2538+598412176+598969838+599575206+600252104+600986086+601723196+602456491
2525+603233178+604049006+604848140+605651651+606514248+607405044+608267704
2511+609096350+609936188+610835300+611784744+612739316+613639741+614465573
2498+615276649+616078535+616785882+617388624+617953289+618499884+619020719
2484+619526735+620027624+620551209+621120751+621721180+622347807+623004259
2471+623672215+624315349+624935474+625569166+626227619+626939468+627705151
2457+628453014+629145668+629791990+630445816+631164042+631899088+632573922
2444+633206177+633862628+634545903+635212484+635859119+636492874+637072232
2430+637594443+638122718+638671188+639207592+639688410+640079130+640404136
2417+640678371+640882391+641047707+641248413+641526712+641892360+642319907
2403+642772714+643227209+643626495+643954127+644311771+644772956+645314299
2390+645866334+646362408+646778013+647154852+647554263+647983498+648434492
2376+648884111+649227624+649414136+649550379+649701502+649679681+649485853
2363+649309969+649372057+649697750+650059709+650137115+649727575+648902243
2349+648604310+650106165+652802937+654343120+654093207+653583377+653671099
2336+654219007+654816498+655365969+655872485+656207933+656399072+656686438
2322+657214588+657791507+658153841+658380369+658753019+659347571+660012213
2309+660669415+661361631+662089862+662828659+663524127+664134622+664701538
2295+665289212+665877136+666435236+666930873+667342413+667695680+668037130
2282+668362574+668646563+668882720+669049913+669129132+669149015+669164146
2268+669214792+669325586+669493529+669702988+669947586+670220946+670513752
2255+670814935+671102614+671414989+671815088+672021546+672200055+672402574
2241+672693879+673031140+673361148+673731984+674191794+674683367+675134424
2228+675579290+676062547+676530736+676947903+677339811+677712086+678054224
2214+678339526+678546172+678690855+678788832+678834725+678855671+678929326
2201+679152916+679624480+680366592+681261827+682173631+683053610+683881256
2187+684649440+685373419+686066448+686742032+687403673+688022047+688570893
2174+689079973+689563855+690002156+690429891+690892952+691403158+691949940
2160+692500599+693053072+693627490+694220291+694806715+695360062+695879271
2147+696387413+696881300+697344173+697799544+698252476+698663204+699047796
2133+699477719+699964728+700465930+700971445+701466707+701926705+702386702
2120+702873961+703361470+703840725+704341489+704863074+705379532+705908245
2106+706485352+707116043+707777372+708452956+709158677+709878155+710574935
2093+711198873+711725648+712175954+712563047+712858729+713045992+713113769
2079+713049743+712884114+712663963+712422366+712169827+711903657+711664373
2066+711578839+711782296+712261301+712896119+713634041+714491011+715426575
2052+716345132+717209355+718019618+718735344+719292318+719651087+719827971
2039+719913630+720048622+720315667+720725832+721298000+722035609+722894455
2025+723834958+724846990+725876780+726874494+727852200+728763316+729553572
2012+730287805+731024976+731697810+732242842+732744106+733310896+733891067
1998+734369385+734737033+735071667+735434563+735770636+736033429+736314230
1985+736674000+737058905+737388037+737669025+737962581+738283835+738615406
1971+738902897+739142368+739378400+739563600+739661327+739750363+739842712
1958+739832333+739676270+739400534+739000561+738455717+737759436+736894964
1944+735927949+735045469+734368322+733996235+734020307+734379889+734967000
1931+735691542+736510309+737420488+738537562+739976203+741533142+743116780
1917+744710108+746041519+747136647+748177816+749117569+749934461+750684450
1904+751393485+752064943+752687193+753237665+753757874+754279146+754760840
1890+755267794+755765620+756138582+756523675+756991988+757425100+757772114
1877+758132760+758622832+759125659+759555144+760033837+760529599+760971589
1863+761440466+761951609+762502518+763084502+763581765+763942660+764284235
1850+764721036+765108879+765330406+765458645+765454018+765527173+765996299
1836+766745663+767520725+768311481+769195086+769885927+770283024+770797668
1823+771466250+772094940+772729821+773425789+774120130+774737004+775297542
1809+775831444+776385542+776968527+777504930+778020137+778561105+779062057
1796+779491667+779950602+780417414+780696527+780894294+781269195+781722752
1782+782097153+782492187+782946120+783378293+783843543+784282595+784348809
1769+784213567+784353061+784671376+785024956+785317324+785458130+785759001
1755+786215873+786542817+786819866+787048895+787141058+787252540+787450119
1742+787740111+788137333+788355546+788409881+788571070+788518987+788333225
1728+788481597+788789846+789068958+789317058+789465180+789475247+789117540
1715+788384433+787806388+787600117+787510456+787447681+787325319+786981306
1701+786576205+785768193+784213817+782685014+781436575+780310059+779416574
1688+778469631+777284716+775759603+773754983+771838212+770447215+769366280
1674+768146477+766669695+765371422+764378710+763385748+762563230+762108297
1661+761792295+761580459+761555574+761826934+762196833+761732146+760792642
1647+760535289+760670718+760670343+760994786+761762220+762725733+763801103
1634+764613555+765235555+766362321+767993165+769623946+771244348+772810228
1620+774071798+775474300+777242012+778684092+779796039+781026972+782223391
1607+783188717+784069759+784974623+785831468+786599215+787338887+788072370
1593+788742765+789352948+789951063+790505286+790974663+791437912+791956683
1580+792416430+792860922+793262833+793201559+792901876+792871989+792806462
1566+792566053+792481519+792475579+792430311+791885592+790302080+788609649
1553+787509081+786712760+786002162+785372658+784861828+784278718+783288070
1539+781723065+779652544+777691568+776184211+774615205+772751705+770928471
1526+769115241+767020148+764564035+761723580+758698675+755831146+753136999
1512+750496437+747690183+744302257+740007779+734952995+729699756+724274010
1499+717950590+710278190+701601449+692023970+680599060+666560786+650583482
1485+634025381+617916149+602983765+589925135+578869437+568642321+557114933
1472+543547598+530292952+520232185+513884412+508871520+502556885+496381118
1458+496431889+507564337+526498550+547319428+566998097+583513931+595015309
1445+601086877+603428757+604420406+606124091+609615059+613715771+616744553
1431+618843460+620560526+621966591+623363216+624923844+626618463+628787711
1418+631312352+633581890+635712123+637996667+640296843+642436016+644505661
1404+646547983+648351209+649768842+650177506+648404543+644071299+637663595
1391+629453041+619568001+609501388+602643566+602460492+610651538+625801322
1377+643563657+659444360+670987505+678305200+683460837+688102142+692352040
1364+695878646+698296869+699316092+699229432+698559350+697554946+696202526
1350+694509595+693092838+693450919+696630511+701788899+707249409+712238104
1337+716941809+721838030+727242454+733175217+739522271+746135807+752871455
1323+759642617+766392146+772981797+779188545+784893090+790064922+794547163
1310+798052948+800365191+801442000+801494021+800998634+800433219+800070198
1296+800077013+800644866+801856604+803570231+805545276+807503064+809111086
1283+810081101+810260361+809611412+808419057+807522572+807933487+810122555
1269+813709436+817921381+822127886+825912534+829038292+831324212+832565274
1256+832596224+831194159+828015568+822854929+815789211+807013992+796929184
1242+786503989+777157728+770176856+766719715+767991727+774534235+785516091
1229+799070483+813239309+826512963+837941500+847353600+855116473+861510671
1215+866703511+870945843+874504650+877655355+880612170+883355962+885786002
1202+887977447+890072602+891999002+893601210+894869908+895951030+896886156
1188+897503842+897758257+897851732+897905629+897869114+897636146+897186215
1175+896638494+895991984+895100125+893905645+892487824+890972277+889328365
1161+887457300+885470313+883459378+881263245+878639189+875411265+871406653
1148+866342428+860036328+852683369+844715663+836636975+829005091+822288576
1134+816654809+811880075+807641307+803912181+800714645+797673796+794176889
1121+789773242+784103773+776369035+765240432+749393555+727808620+699832175
1107+665729264+628083365+592697564+566638077+553937216+553157278+559667960
1094+569646976+581258335+593321752+604196691+611723907+613460419+606397201
1080+586906796+551830806+500814309+439877882+382922807+346021051+336296763
1067+345155828+353599913+346358281+322051437+291294904+267932535+262004899
1053+277910706+315695755+372280899+442493497+519662205+596160770+665170664
1040+722195173+765259065+794491765+811207242+816773419+811501423+793633045
1026+758772767+701688109+624034486+543307189+488550092+480600956+516778576
1013+576506861+639819338+698086472+750412153+796686086+835580987+865591501
999+886056361+897720180+902235496+900905086+894178504+882051499+864552833
986+841674627+812614933+775085206+725453547+660122195+578983295+490002708
972+410413713+360889034+355673748+396447655+472848399+567880640+665474349
959+754863944+830315806+889845636+934416821+966872069+990415292+1007515236
945+1019874522+1028839254+1035486367+1040379898+1043676225+1045622883
934+1046671868+1047060461+1046586271+1045036147+1042522635+1039202612
922+1034913949+1029203151+1021680874+1012284780+1001203509+988832280+975998616
908+964246950+955919599+953224702+956136624+961238802+963337584+958296305
895+944262908+921440412+892876418+866098142+851093229+853122984+868967922
881+892788132+921578468+952341221+979690414+999297742+1010456920+1014449401
868+1012283030+1003808369+988455441+968154397+950295023+945062105+956433368
854+977800841+999212270+1015594049+1026571029+1033143549+1036661402+1038478696
841+1039259572+1039031731+1037853006+1036147570+1034383860+1032550748
829+1030320475+1027771450+1025270631+1022833087+1020151321+1017015684
818+1013581239+1010109717+1006527776+1002541422+998065621+993410685+989150283
804+985703521+983051954+981006131+979318390+977536047+975170158+972037585
791+968469649+964971992+961545363+957773095+953544081+949053336+944339439
777+939173860+933294307+926889605+920847423+916378375+913761635+911715936
764+908551601+903101470+894923116+885198453+877538183+875958172+880719776
750+887851708+893515800+896662316+897800462+897595254+896481556+894817511
737+893009847+891112583+888980413+886719565+884443399+882105646+879796092
723+877761711+875438401+872768264+870125575+867867917+865903564+863931958
710+861911395+859970802+858156196+856343342+854460647+852568636+850785168
696+849222101+847831479+846413721+844912680+843466473+842228975+841233824
683+840388297+839499251+838441451+837243219+835776566+834325607+834430774
669+835765186+834791670+832099711+831488465+832793053+833757128+834116711
656+834513683+835003255+835566169+836286021+836982864+837544027+838249436
642+839308425+840570683+841781482+842854164+843919343+845216615+846905294
629+848861769+850648801+852326601+854019032+855944431+858406985+861183977
615+863678919+866039056+868583392+871231020+874052218+877061554+880012179
602+882888586+885961260+889073262+891840689+894623308+897782330+900908525
588+903777742+906687976+909903207+913300449+916524997+919640813+922869612
575+926030947+928943244+931862168+935192571+938688978+941668802+944166620
561+946890028+950158343+953608669+956940260+960210451+963379601+966367741
548+969389582+972584305+975835050+979009890+981987088+984861370+987718957
534+990349891+992815758+995452632+998111389+1000285577+1001999016+1003824188
521+1005837811+1007485349+1008805130+1010493747+1012420022+1013742867
509+1014247382+1014401507+1014448401+1014043738+1012866514+1011081609
498+1008751171+1005444903+1000967476+995658902+989691001+983118981+976589979
484+971393951+968942839+969521010+971350371+972039836+970465515+966232311
471+959477718+951923553+946620294+946810183+953988384+966680929+981862663
457+996337238+1007761335+1016565065+1023906707+1029329326+1032308963+1033529266
444+1034434943+1035791427+1036924695+1037544632+1038529716+1040267666
432+1042454233+1045018327+1047675084+1049935368+1052022833+1054257232
420+1056525270+1058752416+1060610789+1062048117+1063185575+1064297398
409+1066459893+1069373690+1071564572+1073123824+1073741823+1072430795
##END=
