##TITLE=24
##JCAMP-DX=4.24
##DATA TYPE=INFRARED SPECTRUM
##DATE=16/11/2015
##SAMPLING PROCEDURE=Instrument type and / or accessory
##ORIGIN=Default
##XUNITS=1/CM
##YUNITS=TRANSMITTANCE
##RESOLUTION=4
##FIRSTX=3996.3359
##LASTX=399.24785
##DELTAX=-1.9287336
##MAXY=0.95393568
##MINY=0.087842032
##XFACTOR=1
##YFACTOR=8.8842184e-010
##NPOINTS=1866
##FIRSTY=0.39584291
##XYDATA=(X++(Y..Y))
3996+445557384+445741145+445985153+446236742+446496752+446754714+447028947
3983+447346989+447699047+448045669+448366463+448719124+449144880+449576506
3969+449963820+450359050+450748376+451062426+451356786+451678652+451996124
3956+452270759+452439123+452532580+452749282+453139984+453419415+453542225
3942+453745442+453989349+454190822+454316482+454385283+454629392+454987320
3929+455145888+455238138+455542963+455846011+455901260+455950504+456214707
3915+456489945+456598498+456745459+456966153+457057061+457243707+457707570
3902+458096058+458288037+458336443+458053623+457730213+457989619+458385520
3888+458275760+458394677+458832577+458839823+458901177+459098289+459033949
3875+459110063+459251557+459398217+459652624+459535148+459386409+459640145
3861+459864328+459735011+459181716+458915065+459805087+460587697+460109812
3848+459378157+459240085+459560005+459789958+459835244+460157446+460448149
3834+460253251+460064694+460097467+460153387+460238190+460129369+460208334
3821+460813625+460857837+460575252+460855690+460942539+460561197+460476059
3807+461013957+461237938+460874610+461024154+461271953+460967597+460750727
3794+460645764+460507256+460553012+460708729+460905270+461063134+461022913
3780+461039585+461192686+461128581+460894200+460808559+460974172+461072929
3767+460938279+460843279+460698363+460611246+460963672+461275610+461040826
3753+460846935+461456620+462020784+461350281+460799837+461440954+461525824
3740+460594105+460070094+460292231+460506686+460355933+459892305+459398418
3726+459260480+459269504+459059611+458757503+458410813+457811057+457022442
3713+456649990+456675585+456183476+455000268+453584525+452311752+451078327
3699+449430417+447363997+445072756+442562499+440054523+438071530+436579773
3686+434999658+433343630+432135800+431527189+431386668+431787835+431830471
3672+430820659+430171156+430206647+429844291+429297571+429042896+428715293
3659+428143246+427869215+427750666+427116091+426459778+426255722+425716919
3645+424381718+422808513+421493204+420395101+419377540+418455079+417395888
3632+416026169+415050372+414535016+413267610+411275526+409430035+408072157
3618+406836183+405087570+403071300+401213967+399370489+397521844+395564144
3605+393271293+390878008+388644399+386429977+384140380+381860947+379465750
3591+376802829+374186334+371847023+369351693+366504340+363636188+360842172
3578+358027223+355252495+352564415+349768553+346797921+343980088+341326827
3564+338416073+335284457+332250156+329247086+326116242+322946955+319853950
3551+316720724+313433290+310161288+307010518+303827645+300505895+297123495
3537+293818618+290622830+287468068+284308811+281137830+277900664+274579669
3524+271274674+268035160+264849738+261730601+258650779+255543249+252416783
3510+249327836+246269467+243206518+240158698+237152844+234132263+231126660
3497+228228099+225363822+222466084+219579734+216718527+213868439+211070079
3483+208311369+205506081+202684490+199938175+197264368+194568740+191770145
3470+188927655+186243432+183813617+181484218+179118960+176728007+174363084
3456+172042777+169757373+167486646+165215214+163013019+160909263+158822347
3443+156730030+154656347+152570655+150508797+148608912+146850722+145110764
3429+143405257+141789198+140205679+138573544+136929483+135350685+133798739
3416+132196476+130615925+129129712+127695016+126350346+125086580+123706336
3402+122190175+120840214+119794089+118826158+117712640+116537391+115578140
3389+114821460+114027126+113155897+112268391+111408903+110661574+110017849
3375+109359490+108664265+108001789+107448435+107091983+106896003+106700074
3362+106456250+106264061+106182094+106160012+106080804+105927888+105910788
3348+106119649+106354801+106516062+106714582+107017378+107428710+107950850
3335+108493713+108991767+109499181+110028382+110572184+111205158+111963045
3321+112783042+113634638+114546020+115507620+116448522+117301879+118080816
3308+118885960+119873977+121148947+122583753+123906928+125036170+126123849
3294+127324852+128704199+130235849+131797900+133320133+134874141+136488413
3281+138084278+139651964+141268811+142959743+144688077+146484827+148427852
3267+150461683+152463612+154460896+156563293+158755357+160932460+163112380
3254+165398170+167774548+170180781+172653200+175261828+177984276+180705801
3240+183385529+186079430+188790321+191546901+194486588+197621843+200802720
3227+203955536+207103472+210275593+213501421+216794322+220130950+223494313
3213+226886994+230316324+233794060+237296736+240832035+244436806+248061453
3200+251668254+255295199+258940610+262563831+266174423+269819230+273515161
3186+277236250+280968494+284726416+288515417+292323506+296081479+299734354
3173+303365391+307063016+310781908+314454005+318081352+321677905+325258591
3159+328830119+332364881+335846239+339279226+342690575+346113699+349513509
3146+352806041+355989316+359143039+362321685+365520424+368672939+371740517
3132+374746304+377688893+380568449+383402150+386194791+388967204+391729453
3119+394424914+397005985+399511177+401992686+404464668+406901026+409244060
3105+411478307+413681055+415905205+418072026+420137339+422174844+424186250
3092+426092022+427892361+429647482+431357651+432978188+434514527+436011751
3078+437474391+438859105+440124129+441276274+442362704+443411999+444401113
3065+445277751+446027252+446694870+447335483+447926450+448355862+448584272
3051+448705135+448779572+448751126+448573873+448282599+447875159+447306634
3038+446589739+445731149+444662263+443341788+441802934+440068343+438100077
3024+435828359+433219680+430308356+427104417+423475996+419262815+414463565
3011+409127591+403174150+396429208+388773481+380188348+370656368+360065700
2997+348275656+335175469+320566954+304202479+286032533+266115283+244459718
2984+221199114+197022306+173503638+152724560+136050321+123580273+114818223
2970+108737511+103984151+100273746+98874238+101582840+109320838+121259923
2957+134995172+147570804+156833383+161910589+162596337+158931285+151500696
2943+141943842+132973384+127326253+126332878+129544440+135463598+142657802
2930+150455259+158722852+167473479+176714337+186320083+196067726+205642610
2916+214495769+221928773+227437908+230942630+232796072+233619792+233973510
2903+234127013+234090482+233588729+232020472+228767675+223551239+216436260
2889+207430085+196323257+183383315+170045728+158992337+153453834+155403735
2876+164109160+176991085+191765230+207295317+223037561+238558775+253487983
2862+267555581+280646979+292965328+305033764+317413634+330446093+344083139
2849+357858826+371151697+383500337+394683850+404690931+413654319+421762841
2835+429254533+436397052+443389859+450286995+457041429+463619382+470007502
2822+476156613+482023776+487599061+492860733+497848071+502667348+507395650
2808+512110064+516845779+521514170+526009903+530312851+534448375+538372430
2795+541997899+545325653+548322048+550872929+553039549+554998423+556792355
2781+558413664+559909748+561299158+562533656+563545112+564343824+565038211
2768+565672686+566233763+566786522+567388122+568049902+568780518+569541592
2754+570261070+570834224+571148677+571204899+571084606+570873673+570679849
2741+570636911+570961897+571911429+573568564+575751218+578087174+580186234
2727+581818210+583024631+584120219+585515231+587493058+590085434+593076797
2714+596146455+599037451+601624325+603869173+605803861+607542577+609194815
2700+610771307+612209324+613435335+614442900+615286026+615963237+616387585
2687+616495064+616343171+616015702+615541305+615051008+614862887+615319706
2673+616553030+618369974+620447028+622537366+624467291+626213388+627903732
2660+629596157+631248260+632836694+634352133+635811150+637268825+638719790
2646+640094407+641399384+642699329+643972103+645142630+646198634+647201905
2633+648234897+649276745+650187163+650924622+651592239+652198670+652657099
2619+652964373+653152428+653238639+653299088+653425017+653605088+653742153
2606+653796899+653838764+653895455+653883781+653792471+653697203+653594957
2592+653452457+653286005+653140218+653029250+652927272+652868770+652913385
2579+653083057+653404487+653867680+654413192+655010365+655627597+656216182
2565+656781419+657357995+657943359+658468543+658871489+659194529+659490935
2552+659755540+659982574+660181296+660387532+660683804+661133712+661728537
2538+662413396+663124891+663871272+664701651+665594022+666514570+667475842
2525+668482937+669512105+670538858+671590166+672696756+673808110+674885851
2511+675993851+677201077+678477540+679735956+680942847+682118205+683259280
2498+684352318+685351026+686202270+686967504+687711337+688385596+688987599
2484+689583161+690201869+690853519+691546631+692283687+693043956+693788526
2471+694530949+695304033+696101537+696918968+697773298+698696731+699708657
2457+700782775+701830997+702740811+703534760+704359771+705253819+706124519
2444+706949195+707781721+708591772+709356200+710144379+710948526+711694572
2430+712383189+713059997+713721576+714321701+714820921+715216419+715540802
2417+715801113+715978232+716096244+716255181+716580637+717079119+717612355
2403+718092991+718537398+718934976+719299277+719708194+720210769+720799421
2390+721410212+721947808+722399059+722856146+723383410+723895311+724326635
2376+724712674+724970435+724944740+724679598+724205470+723303975+722247367
2363+721412695+721229672+722139284+723539865+724201780+723062315+720375073
2349+719030446+721738218+726505264+728575341+727341614+725900175+725665493
2336+726397987+727382472+728381852+729423365+730235159+730709489+731347587
2322+732502616+733616922+734101047+734259850+734710966+735529739+736401043
2309+737164331+737914470+738745989+739682371+740613587+741374124+742017589
2295+742659913+743251785+743786698+744310943+744775880+745091406+745315891
2282+745585058+745893272+746099306+746109840+745983710+745847315+745765464
2268+745730644+745734468+745765733+745827925+745964924+746197393+746480850
2255+746731232+746911235+747143100+747529407+747660032+747742822+747883376
2241+748099341+748324228+748583801+748964674+749484088+750060462+750586854
2228+751041191+751463928+751878346+752300613+752705706+753041024+753321730
2214+753560371+753704213+753727091+753658592+753502606+753278793+753141324
2201+753289863+753804916+754646231+755710353+756863101+757984250+758989333
2187+759855068+760646065+761460409+762311184+763095471+763733233+764282570
2174+764844184+765416131+765937826+766408332+766890176+767437097+768034471
2160+768630838+769210567+769785197+770352380+770911847+771485538+772062382
2147+772596355+773069745+773500399+773919044+774343257+774762908+775169342
2133+775598050+776084993+776601455+777108525+777585001+778030080+778477842
2120+778951433+779462864+780000057+780535909+781080684+781655582+782260403
2106+782885686+783534317+784225214+784988167+785847261+786756806+787621804
2093+788352956+788939193+789416810+789782184+789998954+790049272+789951051
2079+789736227+789391248+788894779+788297137+787659375+787000211+786393511
2066+786039274+786102607+786542788+787242810+788152691+789213928+790321726
2052+791420936+792507936+793507517+794291671+794809542+795087163+795156400
2039+795101453+795096019+795259853+795615836+796205963+797058750+798119988
2025+799332581+800666205+802022506+803329966+804604551+805774206+806768084
2012+807687023+808596836+809378441+809953138+810460006+811047115+811645897
1998+812131498+812516799+812900221+813325575+813669950+813863841+814045321
1985+814302613+814591035+814852084+815087236+815327353+815574380+815826506
1971+816057566+816259106+816440183+816538873+816521765+816455077+816347866
1958+816099833+815642678+814996463+814182119+813167509+811924054+810467118
1944+808907264+807402223+806073564+805174149+804911087+805164152+805731268
1931+806498716+807427248+808543567+810023918+811948475+814001712+816083664
1917+818150789+819852539+821288476+822704287+823964984+824962149+825775689
1904+826533610+827276033+827960222+828582620+829193210+829755630+830251160
1890+830800899+831257249+831464357+831697362+832083602+832473935+832784161
1877+833091234+833528597+834038954+834562797+835087645+835440877+835691862
1863+836128487+836710363+837276405+837814672+838282964+838632237+838951856
1850+839357954+839688979+839801758+839712393+839351983+839113678+839467513
1836+840230466+841077081+842026814+843095833+843826985+844155527+844620666
1823+845221662+845785826+846425802+847151452+847863685+848517616+849129749
1809+849670834+850179850+850736835+851316966+851872274+852361833+852785442
1796+853211668+853712297+854118262+854156101+854086998+854313562+854684438
1782+854980240+855302275+855665100+855997131+856403699+856795373+856697689
1769+856252880+856048321+856132251+856422954+856681588+856695945+856851595
1755+857224148+857590194+857965096+858097733+857866741+857676003+857696667
1742+857848694+858088072+858179181+858246674+858449355+858174082+857553361
1728+857277418+857261384+857352157+857532630+857686335+857646416+856927743
1715+855506900+854257407+853644804+853364366+853143169+852776519+852150230
1701+851447792+850124097+847763318+845313241+843188150+841394016+840068979
1688+838742064+837009989+834599629+831469926+828520293+826332070+824585906
1674+822683958+820519150+818567219+816887542+815246039+813981183+813245804
1661+812698144+812401873+812552223+813096796+813492026+812781135+811719227
1647+811559418+811754114+811761293+812273462+813481426+815023165+816601468
1634+817686388+818541457+820123517+822351122+824495669+826511269+828402012
1620+829942879+831616988+833590052+835097038+836229995+837528867+838812576
1607+839858315+840824686+841798840+842677524+843442288+844178070+844882385
1593+845462986+845919202+846330399+846722006+847076110+847429073+847820143
1580+848160426+848462468+848566659+848041341+847326223+846997413+846575749
1566+845910480+845525984+845451246+845413407+844529624+842165490+839673615
1553+837975018+836687351+835493811+834484972+833743354+832808448+831033972
1539+828329622+825229908+822545282+820316872+817853175+815154126+812635281
1526+810060818+807050468+803542575+799517616+795225235+791046773+787111111
1512+783475277+779833941+775202954+768774345+761229752+753881064+746606980
1499+738068711+727454595+715417020+702404218+686978239+667740447+645626688
1485+622744072+600578116+580102841+562349728+547529844+533870994+518237102
1472+499702552+481823846+468402161+459694421+452645594+444303094+436311377
1458+435503977+447878883+470427422+496211868+521018405+541952411+556541806
1445+564198171+567058976+568235743+570343927+574488508+579230061+582826982
1431+585426671+587462129+589033925+590644097+592583951+594811958+597508459
1418+600380535+602944263+605556766+608548264+611667837+614678052+617638688
1404+620478292+622918843+624784763+625236819+622762119+616821660+608118616
1391+597139931+583893050+570148560+560427116+559319452+569073166+588050043
1377+610731522+631127564+645882638+655150651+661597106+667395602+672858176
1364+677442804+680355067+681243009+680705279+679452499+677716533+675473899
1350+672811481+670547915+670587230+674380056+680988334+688086238+694384357
1337+700171648+706244544+713031953+720557157+728717103+737348897+746257237
1323+755273325+764252581+773015201+781307181+788938522+795811538+801722746
1310+806342060+809397226+810772111+810687309+809798897+808806360+808124788
1296+807976920+808543365+809898593+811919090+814360043+816889555+819044904
1283+820331431+820443136+819347616+817486526+816017312+816352831+819173784
1269+823943381+829528730+835035919+839995918+844185986+847335347+849073796
1256+849138337+847276442+843063898+836182092+826656251+814726960+800976432
1242+786703000+773701536+763699084+758460861+759710153+768100890+782508235
1229+800483384+819392701+837148866+852469715+865169875+875723140+884422359
1215+891439017+897129967+901880308+906055952+909936801+913500982+916659199
1202+919536442+922243006+924648266+926611267+928187624+929515613+930663531
1188+931511421+931930736+932064783+932150994+932163809+931886524+931304648
1175+930596374+929756200+928594662+927020451+925145071+923096396+920811697
1161+918212948+915458414+912700593+909758139+906233272+901799665+896239609
1148+889284607+880730974+870753211+859911122+848931832+838588628+829553218
1134+822031235+815695613+810189430+805458411+801448480+797680075+793385211
1121+787965307+780885652+771061124+756755555+736189909+708013988+671434583
1107+626937361+578148227+532718481+499461932+483135599+481873795+489987348
1094+502619982+517345939+532805195+547163798+557675266+560981317+553163331
1080+529875052+487670513+427001936+356270090+292195632+251879556+241339474
1067+250513275+259428459+252252780+227902358+197680967+175080936+168915505
1053+183083756+218772015+275103679+348754783+433621452+521345907+603480182
1040+673582820+728079945+766201894+788952611+797676452+792433265+770662338
1026+726823877+655019153+558712954+460473174+394404384+383044725+422824816
1013+491238720+565969293+636725258+701893123+760761259+811086162+850462770
999+877817704+893978928+900932386+900328438+892830742+878565696+857568322
986+829588709+793395543+746179480+683779566+602560506+504022609+399859645
972+310621428+256483723+248803625+288825510+369035965+474705245+588789850
959+697327750+791383835+866964881+924322542+966487431+997279276+1019809063
945+1036270316+1048356330+1057354035+1063988277+1068586524+1071498988
934+1073156995+1073741823+1073165113+1071355415+1068323663+1064106423
922+1058541268+1051100531+1041295661+1029019982+1014400497+997926968+980822921
908+965159241+953936748+950050331+953543598+960065396+962855018+956334562
895+937939561+908003790+870522621+835068927+814517638+815916810+835299718
881+865263801+902167120+942214432+978297099+1004610521+1019917750+1025620977
868+1023044837+1011982221+991621201+964620236+940759239+933321119+947613404
854+975273130+1003267705+1024624013+1038853634+1047497974+1052156401+1054375352
841+1055179632+1054805737+1053273391+1050969772+1048479306+1045955094
829+1043051083+1039663953+1036149150+1032654273+1028838972+1024484196
818+1019904533+1015415643+1010790493+1005494639+999417114+993108127+987328685
804+982627856+979130899+976548788+974276769+971685601+968422186+964430370
791+959961741+955370405+950650187+945492741+939891491+934097624+928102822
777+921434096+913604503+905018733+896951774+890812258+887017956+884163524
764+879994187+872844153+862187703+849547455+839487640+837113510+842790102
750+851588615+858710269+862758039+864238525+863927628+862445733+860245769
737+857722698+855033175+852192027+849217571+846159050+843092143+840103531
723+837390325+834577288+831281804+827784109+824690836+821914565+819082743
710+816243943+813583403+811168549+808865601+806454302+803873935+801289543
696+798918297+796818030+794865093+792994476+791206985+789391114+787493124
683+785736763+784245811+782865223+781283297+778894809+776473849+777572254
669+781302753+779644142+773938030+772440168+774695012+776201395+776335710
656+776192606+776173351+776533023+777304362+778073219+778717019+779605700
642+780871697+782267313+783645888+785055593+786584854+788254266+790075303
629+792135987+794302607+796621723+798941913+801385482+804225959+807223964
615+810070143+812945775+815910772+818902470+822054381+825461705+828947995
602+832325396+835757410+839301733+842856589+846627610+850624190+854406885
588+857936582+861642190+865647156+869730350+873713914+877582016+881429587
575+885358406+889180684+892740035+896421692+900311934+903860886+906922962
561+910152899+914154108+918645883+922880164+926563699+930006984+933621148
548+937645436+941903467+945818599+949116767+952126983+955471711+959139145
534+962400950+965224520+968235876+971577585+974804570+977466452+979735519
521+982085094+984318872+986069128+987862188+990079327+991933842+992753755
507+993060090+993417280+993133286+991377327+988735505+985828810+981867520
494+976268216+969615524+962432147+954752367+946813484+940011180+936600770
480+937140647+939482776+940846792+939412868+934285545+926038985+916923133
467+910063065+909162174+916808811+932419759+952586619+972131417+986871665
453+997481956+1006009559+1012262592+1016176517+1018909648+1021242116+1022696369
440+1022851348+1023104883+1024918137+1027580422+1030023186+1032780336
428+1036625090+1040685003+1043838524+1047250880+1052483870+1058015681
417+1061082320+1061931685+1062061908+1062264387+1062993929+1063915148
405+1065289631+1068101728+1070072913+1068395316
##END=
