##TITLE=24
##JCAMP-DX=4.24
##DATA TYPE=INFRARED SPECTRUM
##DATE=16/11/2015
##SAMPLING PROCEDURE=Instrument type and / or accessory
##ORIGIN=Default
##XUNITS=1/CM
##YUNITS=TRANSMITTANCE
##RESOLUTION=4
##FIRSTX=3996.3359
##LASTX=399.24785
##DELTAX=-1.9287336
##MAXY=1.0121293
##MINY=0.13733743
##XFACTOR=1
##YFACTOR=9.4261887e-010
##NPOINTS=1866
##FIRSTY=0.37216106
##XYDATA=(X++(Y..Y))
3996+394816051+394861136+394976220+395158995+395361752+395538014+395712727
3983+395956806+396265194+396580442+396878522+397172809+397476991+397792935
3969+398124908+398418563+398591031+398703586+398911780+399225448+399555366
3956+399843045+400024998+400127435+400323900+400638832+400818762+400866756
3942+401026672+401238914+401408473+401518435+401549609+401709336+402049688
3929+402266609+402325826+402503321+402774528+402913862+402987591+403164075
3915+403370626+403494025+403655079+403841775+403887271+403978263+404222090
3902+404373027+404527505+404787614+404795139+404617170+404800735+405108712
3888+405045953+405151615+405494907+405474262+405497215+405715654+405784736
3875+405908483+406021196+406154460+406404009+406313712+406132391+406293414
3861+406546346+406628960+406375902+406207733+406760801+407205645+406832444
3848+406404388+406438439+406768041+407012121+407106117+407334356+407457376
3834+407252501+407162299+407274443+407368312+407487507+407458862+407504295
3821+407899660+407872406+407638728+407913160+408075700+407837375+407794187
3807+408284843+408569266+408324649+408387660+408509036+408270173+408204348
3794+408245544+408170550+408140103+408183860+408318768+408456110+408426233
3780+408464489+408670881+408709896+408544573+408438531+408557726+408691938
3767+408639897+408578940+408516593+408586876+409002349+409281428+409043861
3753+408808508+409211112+409639611+409150029+408723143+409176429+409223443
3740+408521209+408116770+408289744+408549442+408590196+408307386+407866778
3726+407650648+407608566+407513337+407436067+407352884+407047310+406520895
3713+406219748+406209125+405900674+405119651+404106784+403167553+402299332
3699+401147637+399681358+398070907+396297189+394445473+392960003+391939675
3686+390877392+389659176+388689466+388133173+387926654+388167888+388158467
3672+387320186+386808441+386971677+386929880+386720295+386649442+386479187
3659+386136432+386065928+386095331+385610428+385065265+384967854+384697628
3645+383826372+382786347+381975004+381334769+380718595+380135397+379397531
3632+378319597+377526212+377229839+376416030+374964642+373564189+372595712
3618+371883424+370840079+369493753+368171613+366833002+365531919+364200231
3605+362588421+360877083+359337864+357810724+356150477+354538067+352919523
3591+350999357+349024020+347386506+345752913+343834770+341887794+340020649
3578+338152745+336320568+334518775+332551121+330411758+328464718+326737824
3564+324806245+322651516+320575671+318581649+316507100+314360244+312270203
3551+310175735+307942376+305700639+303549167+301394375+299185329+296934233
3537+294711687+292555220+290395559+288230397+286092077+283848348+281443090
3524+279096291+276909314+274716930+272444809+270190299+267981948+265792726
3510+263649648+261490825+259179042+256793528+254562303+252468373+250348059
3497+248213265+246143585+244079090+241914323+239704977+237558753+235484852
3483+233433936+231328276+229164236+227045503+225010206+222928417+220685019
3470+218394972+216290545+214409726+212595476+210754526+208893736+207037356
3456+205169832+203296886+201455951+199619553+197828067+196141484+194484604
3443+192797168+191063366+189291260+187604519+186076619+184604049+183145215
3429+181758736+180417216+179024683+177586352+176212204+174906695+173588002
3416+172234467+170876332+169566650+168344403+167207568+166083111+164838527
3402+163493876+162319592+161432258+160577253+159543646+158437353+157521169
3389+156829906+156174306+155439617+154643007+153854191+153147230+152569849
3375+152094827+151597578+151021146+150517827+150252865+150192272+150170014
3362+150065458+149927831+149863444+149867791+149866875+149863650+149979935
3348+150271835+150636452+150977895+151298992+151639755+152076806+152669267
3335+153317264+153921566+154552047+155240401+155953069+156751560+157650860
3321+158577192+159519064+160465078+161408704+162395867+163391202+164326497
3308+165276178+166410927+167798449+169282180+170646876+171895586+173164957
3294+174494842+175894395+177396875+178955031+180517504+182105016+183711609
3281+185327024+186978702+188671260+190374552+192075142+193872777+195864871
3267+197949000+199993229+202015958+204089480+206224085+208378766+210566597
3254+212826941+215116751+217381679+219680247+222123998+224687496+227261080
3240+229838538+232417592+234947640+237502333+240219282+243070270+245917827
3227+248713659+251504070+254343865+257255319+260191497+263070544+265941798
3213+268913592+271940621+274949469+277941656+280932357+283950501+286971079
3200+289947426+292951090+296037399+299099459+302067965+305021611+308023441
3186+311061756+314107818+317106960+320038475+322969326+325926829+328876397
3173+331802695+334717168+337639293+340514025+343263049+345920290+348562293
3159+351213622+353867607+356492030+359048763+361560663+364070604+366554998
3146+368961425+371298423+373633650+375987026+378287665+380490703+382648499
3132+384790928+386895766+388956752+390948750+392865691+394756485+396636656
3119+398487898+400319347+402133155+403878324+405518082+407099193+408661112
3105+410170358+411636036+413117839+414595626+416008663+417352112+418617594
3092+419781367+420897935+422038501+423156050+424164206+425083235+425978709
3078+426866627+427735323+428548152+429264234+429894003+430477802+431018729
3065+431493767+431914267+432285065+432570910+432742367+432797190+432774616
3051+432736296+432681536+432534836+432264009+431886824+431388137+430776009
3038+430084777+429296262+428359844+427244192+425954238+424530009+422958763
3024+421139897+419040276+416712699+414135606+411196788+407833296+404067074
3011+399868844+395157730+389866675+383928809+377282923+369841281+361512606
2997+352285991+342102280+330698014+317864081+303698776+288254078+271309207
2984+252715045+232871209+213039214+195007937+179977114+168266784+159948053
2970+154318986+149957076+146601964+145697731+149101549+157624650+170164787
2957+184044168+196290745+205009505+209650350+210195435+206728605+199697883
2943+190504654+181830063+176553409+176024639+179659337+185839385+193088356
2930+200756704+208806664+217237760+225918912+234765228+243680105+252317088
2916+260124360+266531351+271152358+273998634+275452836+276035844+276176348
2903+276101860+275881682+275327160+273924620+271139110+266685956+260585945
2889+252828296+243121457+231598044+219567091+209599669+204858077+207273737
2876+216057389+228602364+242644206+257063976+271357454+285181300+298261747
2862+310406030+321538995+331870512+341885834+352071283+362706256+373719964
2849+384697660+395127916+404686157+413278956+420927054+427707184+433757004
2835+439310381+444602448+449736843+454747428+459671606+464502135+469164243
2822+473565261+477671456+481542740+485241682+488787727+492206200+495530044
2808+498813292+502103654+505359428+508500465+511488700+514299503+516925982
2795+519400322+521691381+523683853+525358991+526822836+528144216+529326421
2781+530378555+531334797+532216897+533008385+533702178+534312756+534831267
2768+535240638+535567805+535881568+536253631+536733759+537290336+537810997
2754+538262670+538672673+538954377+539026842+538962281+538846627+538722564
2741+538696828+538960004+539704763+540993705+542652434+544343601+545797265
2727+546929073+547821354+548689607+549766086+551190410+553009814+555136657
2714+557328377+559353983+561122485+562624522+563934457+565178630+566364819
2700+567440602+568422927+569316789+570082415+570681548+571098949+571365666
2687+571523559+571548979+571386659+571071822+570752685+570670798+571063918
2673+571986108+573313686+574844431+576353424+577725201+579014586+580305615
2660+581576029+582770375+583893330+584961715+586008791+587062380+588082771
2646+589035819+589942834+590838277+591716457+592561630+593378853+594148083
2633+594892905+595648097+596331962+596870644+597309987+597711201+598060943
2619+598327596+598530069+598678793+598779333+598886134+599019745+599158352
2606+599297907+599423045+599524471+599595672+599621534+599611417+599596999
2592+599597189+599577018+599536738+599540596+599593142+599662509+599777656
2579+599981520+600245454+600554284+600956193+601449032+601982529+602528103
2565+603054076+603540654+604004215+604425916+604780464+605086322+605334195
2552+605547227+605782454+606028367+606272573+606574954+606986474+607467361
2538+607980118+608559522+609221888+609932122+610660440+611389327+612120111
2525+612910081+613760502+614584239+615398237+616282488+617178690+617999075
2511+618805928+619706493+620690209+621657485+622566207+623454378+624328511
2498+625170649+625958090+626647646+627254683+627845848+628439986+629003076
2484+629525760+630045599+630600406+631193721+631803224+632421074+633052456
2471+633692311+634318697+634924723+635567486+636274748+636993644+637725946
2457+638518698+639326880+640075875+640760183+641414012+642078465+642760117
2444+643444425+644144477+644837195+645469589+646056391+646645470+647217919
2430+647747811+648300595+648907189+649458960+649872694+650218452+650560164
2417+650847178+651075955+651302456+651537304+651823496+652221042+652677142
2403+653127235+653577138+653964883+654270488+654593419+655015310+655525600
2390+656079016+656618583+657084547+657480007+657876857+658296345+658702238
2376+659056406+659296375+659425371+659543111+659645991+659495370+659047490
2363+658454933+658138010+658445954+659080877+659365805+658998864+658227421
2349+658090332+659753424+662441460+663808431+663424607+662870116+662895473
2336+663376739+664011283+664750287+665515154+666006475+666194403+666445185
2322+666998537+667614174+667997619+668236640+668564187+669054306+669649456
2309+670326808+671104131+671922936+672722518+673476571+674169226+674812179
2295+675434076+676010825+676539959+677035959+677482573+677850779+678174153
2282+678508656+678838226+679085467+679213704+679271942+679308301+679329167
2268+679351868+679422879+679555984+679727409+679935066+680190148+680471156
2255+680748496+681025773+681368306+681791904+681960483+682125964+682336467
2241+682591043+682894372+683255622+683687757+684183757+684672927+685100066
2228+685504315+685934426+686386353+686840492+687270856+687658854+687997973
2214+688268104+688463874+688590782+688640357+688628280+688628469+688726417
2201+688989720+689476614+690179512+691024558+691947824+692894422+693784933
2187+694552139+695211850+695848100+696527223+697212163+697811928+698336004
2174+698848507+699354308+699836523+700323481+700872344+701471603+702039246
2160+702519943+702972565+703516117+704128528+704697562+705227582+705769236
2147+706293501+706759022+707195899+707644727+708082616+708483134+708878340
2133+709316229+709792753+710263397+710711529+711154666+711623855+712145528
2120+712683451+713188999+713690943+714230447+714779563+715289727+715793062
2106+716381761+717042483+717663937+718267180+718963882+719697258+720370817
2093+720966219+721510402+721999067+722400154+722691153+722861186+722909117
2079+722847907+722681225+722443026+722202108+721954298+721642812+721314317
2066+721156044+721327090+721803993+722464146+723229582+724103589+725082626
2052+726071780+726979111+727779830+728455475+728971394+729297992+729450321
2039+729538973+729701040+729978633+730372954+730913912+731622628+732504413
2025+733523033+734602737+735667139+736690945+737677759+738576490+739380372
2012+740155862+740894676+741534848+742085165+742611769+743143053+743649613
1998+744097113+744465888+744804880+745195091+745561337+745809527+746043489
1985+746358453+746716035+747037828+747315105+747603574+747917526+748222626
1971+748488331+748754162+749050409+749280641+749373720+749398444+749405779
1958+749347351+749166315+748850782+748410491+747847527+747151205+746282004
1944+745286969+744355041+743623498+743212230+743213368+743541421+744079345
1931+744761566+745560262+746477078+747632598+749127996+750720962+752299954
1917+753886471+755255023+756415097+757511368+758492112+759327673+760059722
1904+760741753+761396025+762000470+762564761+763144419+763701059+764155578
1890+764605481+765056269+765420302+765811208+766252069+766640573+766970396
1877+767339993+767845668+768375624+768839564+769304074+769716480+770098660
1863+770595356+771162746+771727606+772289748+772777780+773164830+773537778
1850+773960491+774289303+774429554+774470212+774435434+774572334+775129733
1836+775921663+776693992+777446844+778270391+778903733+779245128+779714886
1823+780389330+781082427+781783744+782478106+783104113+783666255+784241865
1809+784828921+785411423+785976663+786477026+786970560+787519676+788079477
1796+788596028+789069707+789439430+789615850+789794231+790201262+790666530
1782+791023291+791413059+791889141+792345494+792793373+793166701+793190350
1769+793055790+793162717+793401485+793709430+794016743+794165783+794448687
1755+794917497+795282668+795547994+795712969+795772724+795901466+796122971
1742+796430347+796848697+797089552+797127175+797191357+797026445+796805509
1728+796983763+797315357+797610086+797902349+798085535+798022492+797488425
1715+796633705+796081996+795996126+796009279+795964636+795822235+795475276
1701+795021832+794089966+792419792+790818479+789530739+788424477+787628120
1688+786772135+785514936+783743842+781549340+779598854+778242126+777182720
1674+775951130+774439608+773112094+772115288+771128347+770284629+769788629
1661+769503764+769423015+769500097+769711990+769912945+769349159+768383275
1647+768106757+768242139+768284568+768654797+769430098+770355766+771385832
1634+772217599+772912151+774102070+775765857+777401127+778998140+780551206
1620+781818333+783185557+784872235+786262919+787363111+788577374+789743581
1607+790686259+791563364+792474046+793338126+794117599+794862611+795585744
1593+796232934+796796087+797325727+797849423+798360725+798866083+799374920
1580+799805473+800196633+800501606+800356106+800009084+799929031+799800098
1566+799527817+799486020+799543372+799422408+798668733+796973709+795285640
1553+794193352+793383464+792670764+792043619+791494820+790792174+789606871
1539+787887755+785792845+783849820+782312183+780701448+778833924+777006426
1526+775147438+772967922+770407490+767450904+764290138+761296497+758540991
1512+755898483+753058055+749520736+745018987+739835839+734528375+729048791
1499+722621027+714786582+705915051+696134609+684483228+670181056+653928650
1485+637105124+620749269+605612231+592414486+581261382+570912096+559186606
1472+545368924+531899784+521703142+515258242+510153313+503758115+497510312
1458+497518406+508720263+527874116+549000397+568966289+585668408+597251560
1445+603364613+605759311+606798166+608503118+611951848+616026647+619095662
1431+621271511+623027808+624431518+625851163+627482701+629249938+631450953
1418+633992731+636308072+638487145+640779152+643090762+645324595+647539395
1404+649667882+651459211+652821630+653194135+651404641+647029421+640533113
1391+632182053+622079692+611745455+604671071+604408211+612702550+628116739
1377+646177546+662276358+673973709+681433183+686708209+691431273+695728780
1364+699263822+701638285+702579066+702454813+701816602+700830041+699446439
1350+697733519+696312041+696653563+699855177+705112877+710671186+715679495
1337+720383527+725327211+730796236+736778712+743177705+749868708+756698001
1323+763552461+770364871+777017998+783326061+789157284+794414542+798939876
1310+802514439+804916346+806030069+806058967+805529074+804940122+804573749
1296+804591581+805161374+806373867+808087229+810052132+812021399+813661347
1283+814630457+814759642+814045425+812785886+811826135+812224882+814475030
1269+818169546+822499427+826793772+830624176+833781717+836098322+837353118
1256+837390552+835987285+832766700+827535242+820381311+811494667+801301061
1242+790758029+781235261+774053823+770513532+771894036+778640304+789818133
1229+803554686+817903398+831353885+842944183+852478206+860335794+866833683
1215+872129133+876416838+879948782+883062819+885991014+888691697+891106060
1202+893321682+895410269+897271470+898832567+900114364+901180789+902061056
1188+902659240+902919128+903000509+903047618+902998233+902745237+902309941
1175+901759055+901050276+900076677+898811447+897357530+895800796+894062900
1161+892104952+890079030+888040081+885794360+883084635+879739291+875615992
1148+870438093+863997935+856489456+848376532+840157187+832341711+825437107
1134+819689541+814846334+810562802+806827374+803595724+800465057+796897703
1121+792451788+786684494+778781314+767471328+751396923+729463536+701056921
1107+666476865+628280196+592404685+566100821+553305871+552419281+558849890
1094+568818829+580472487+592644465+603710940+611511746+613515284+606556237
1080+586955832+551619762+500216623+438780046+381361390+344228617+334547230
1067+343582186+352134326+344785510+320167470+289091156+265554401+259597028
1053+275577342+313520256+370380469+441034904+518793253+595966033+665715286
1040+723531077+767305847+797052181+814109290+819878987+814654801+796609360
1026+761237627+703282091+624575563+542938373+487683679+479767030+516466657
1013+576981454+641119978+700147756+753109653+799939148+839364561+869767253
999+890377047+902037533+906555154+905199501+898334101+886054816+868467372
986+845399584+815903590+777773948+727460630+661301495+579162867+489132221
972+408679354+358685964+353437464+394655565+472041788+568405222+667317295
959+757794462+834080746+894230404+939210459+971913000+995654283+1012960087
945+1025472512+1034479678+1041093916+1045890646+1049088214+1051055520
934+1052192956+1052628758+1052190932+1050656709+1048044363+1044546186
922+1040074473+1034181407+1026510735+1016985059+1005735208+993161068+980121343
908+968181682+959692522+956904768+959813550+964954332+967065999+961890312
895+947496389+924167449+895018477+867553908+851870789+853438399+869106658
881+893092652+922487979+954119163+982273795+1002535174+1014176691+1018427025
868+1016388266+1007932619+992386653+971736201+953587689+948276178+959752404
854+981359445+1003097063+1019762760+1030865531+1037400158+1040852682+1042648057
841+1043345960+1042957583+1041670095+1039991132+1038330822+1036574398
829+1034361052+1031755536+1029144391+1026626642+1023894975+1020661680
818+1017080098+1013454759+1009725528+1005612663+1001063679+996366476+992035710
804+988523305+985881049+983877637+982160797+980287645+977867907+974742678
791+971203209+967713379+964175680+960149254+955723006+951208357+946539167
777+941366073+935308096+928647066+922522568+918084368+915425736+913261206
764+909907326+904217745+895888754+886184507+878588893+877009142+881796831
750+889025567+894791597+898049679+899267674+899027768+897849483+896145859
737+894210676+892121836+889842095+887449231+885120043+882887221+880704923
723+878731610+876365051+873541064+870701268+868322126+866344892+864405472
710+862426847+860536306+858765592+856955799+854977617+852948280+851150249
696+849675275+848334735+846912245+845364996+843826220+842461525+841332689
683+840420869+839535986+838465134+837207619+835662900+834128677+834105280
669+835241009+834214421+831780265+831472700+832937366+833971416+834330516
656+834588001+834852505+835274838+836065441+836996547+837753889+838498521
642+839516636+840760936+841925625+842848511+843765833+844992806+846666079
629+848749797+850800507+852665186+854537010+856733851+859351762+861975616
615+864232972+866475152+868968304+871619222+874464645+877423319+880248823
602+883076225+886130949+889179919+892133787+895322944+898740310+901988401
588+905031174+908150396+911378822+914518784+917555424+920749577+924132291
575+927504761+930696765+933674850+936802166+940089904+942872221+945117815
561+947738318+951213479+955097694+958838813+962129017+965019019+967904785
548+971071621+974346713+977374816+980155552+982898853+985788539+988793436
534+991629121+994234765+996739551+999094349+1001182999+1003074931+1004953269
521+1006872012+1008740105+1010483945+1012182321+1013813164+1015161798
509+1016039599+1016390606+1016401735+1016058759+1014904250+1012929862
498+1010413314+1006993292+1002345286+996850715+990894353+984504340+978053559
484+972893175+970727760+971541443+973072314+973344849+971703003+967504963
471+960896605+953705113+948658485+948802846+955621011+967707435+982569852
457+997646439+1010018487+1018832792+1025333969+1030335701+1033686799+1035333387
444+1036410372+1037875797+1038840923+1038623970+1038254816+1039069826
432+1041498797+1044834655+1048291288+1051565052+1053907266+1055499221
420+1057918770+1061138216+1064038589+1066789352+1068925616+1069578181
409+1069639138+1070079113+1071030138+1072578209+1073741823+1073682131
##END=
