##TITLE=15
##JCAMP-DX=4.24
##DATA TYPE=INFRARED SPECTRUM
##DATE=16/11/2015
##SAMPLING PROCEDURE=Instrument type and / or accessory
##ORIGIN=Default
##XUNITS=1/CM
##YUNITS=TRANSMITTANCE
##RESOLUTION=4
##FIRSTX=3996.3359
##LASTX=399.24785
##DELTAX=-1.9287336
##MAXY=0.98975044
##MINY=0.43045402
##XFACTOR=1
##YFACTOR=9.2177693e-010
##NPOINTS=1866
##FIRSTY=0.92392534
##XYDATA=(X++(Y..Y))
3996+1002330723+1002387950+1002496130+1002667163+1002807611+1002826169
3985+1002889927+1003121484+1003362353+1003466977+1003493683+1003626112
3973+1003868404+1004017710+1004091231+1004209888+1004261165+1004238986
3962+1004287806+1004284379+1004202516+1004253470+1004321496+1004230774
3950+1004281017+1004662010+1004849208+1004752990+1004933787+1005183644
3938+1005142260+1004910703+1004576138+1004634722+1005209315+1005411516
3927+1005131914+1005251734+1005650639+1005553257+1005255420+1005410934
3915+1005739033+1005774533+1005786495+1005809644+1005408477+1005040546
3904+1005352543+1005899138+1006354428+1006587473+1005899138+1004761202
3892+1004963726+1006057303+1005994774+1005737998+1006316407+1006312009
3881+1006181779+1006447543+1006049737+1005426518+1005015909+1005049016
3869+1005761406+1005745887+1005217528+1005561016+1006138002+1005896487
3857+1004425215+1003134481+1004741092+1007335362+1007126308+1005392311
3846+1004595213+1004948466+1005235956+1004988557+1005293636+1005983781
3834+1005764833+1005192180+1005036795+1005019853+1005039446+1004643904
3823+1004358871+1005261951+1005434471+1004601033+1004870806+1005049146
3811+1003866076+1002891608+1003617253+1004422305+1003752075+1003733970
3800+1004569865+1004427931+1003971282+1003611757+1003057856+1002734865
3788+1002689149+1002795325+1002930018+1002678156+1002385428+1002526069
3776+1002545403+1002063989+1001481766+1001456547+1001812451+1001840062
3765+1001703106+1001337568+1000831517+1001052858+1001404752+1000673481
3753+999790317+1000670830+1002145335+1001116744+999442819+1000361483+1001146360
3740+999515242+997818167+997800708+998577696+998939161+998372845+997269439
3726+996734419+996828374+996785050+996715409+996779619+996392224+995224221
3713+994431649+994937118+995422735+994773004+993398273+992393931+992155649
3699+991710834+990680368+989574182+988425448+987191489+986539171+986466813
3686+985788695+984526154+983736751+983238848+982427718+982502986+983175543
3672+982230173+981164208+981323860+980834816+979503345+978474043+977551822
3659+976399855+975906220+975815368+974474909+972678448+972175631+971928296
3645+970380204+968150697+966366263+965045397+963789129+962656496+961380247
3632+959304766+957527316+957147422+956182913+953740406+951182606+949431538
3618+948231203+946460607+944056122+941736798+939471920+937412217+935574566
3605+933377584+930976979+928887143+926827181+924438474+922095742+919938334
3591+917342124+914498320+912385594+910533393+907937636+904981707+902266453
3578+899730573+897207497+894698840+891950608+888727945+885651291+883229088
3564+880710668+877592953+874346364+871327583+868425648+865508840+862673442
3551+859761937+856434585+853016576+849891877+846779270+843378655+839817418
3537+836438659+833301287+830149171+826855379+823474292+819964268+816305067
3524+812698760+809221197+805750099+802292323+798886082+795426495+791876186
3510+788393967+785024325+781574502+778025422+774541327+771015073+767360721
3497+763775947+760331555+756914581+753425831+749886708+746383862+742887869
3483+739292749+735604967+731944473+728383623+724903473+721384073+717751190
3470+714091665+710475529+706880150+703315292+699849497+696430001+692926896
3456+689332745+685798861+682478363+679247617+675942380+672693658+669619267
3443+666569189+663367606+660032107+656817139+653929688+651207256+648455338
3429+645767113+643238411+640737967+638154495+635586025+633124767+630724614
3416+628317672+625990847+623843138+621802705+619810186+617798980+615670799
3402+613547339+611720874+610111612+608490581+606738544+605016251+603646500
3389+602565920+601546253+600490116+599351469+598226273+597295969+596618692
3375+596085094+595552597+594979943+594525687+594467426+594820420+595263748
3362+595575358+595851468+596271065+596875597+597531536+598113630+598770151
3348+599710218+600849964+602012665+603189140+604410296+605734913+607250673
3335+608850559+610402336+611965752+613591503+615291875+617158625+619202356
3321+621302150+623407958+625496759+627571981+629736890+631952107+634080612
3308+636207241+638550684+641208388+644039518+646762144+649274163+651773767
3294+654455913+657262730+660081251+662957192+665936787+668907783+671798337
3281+674752068+677830209+680834442+683673525+686577659+689799093+693271678
3267+696707081+700020724+703402393+706942033+710522345+714042457+717525905
3254+721059337+724674955+728343080+732067138+735886703+739796213+743727903
3240+747650735+751620705+755625723+759601190+763648885+767865802+772108261
3227+776245062+780345069+784496677+788689217+792880981+797049724+801202302
3213+805346410+809502092+813727933+817965154+822102795+826187348+830265823
3200+834313000+838368584+842501182+846682664+850783706+854710805+858545824
3186+862428694+866340274+870163977+873889781+877631233+881411095+885131208
3173+888741201+892226265+895612525+898956560+902232182+905464997+908774243
3159+912109807+915322253+918401753+921433660+924466085+927448849+930322139
3146+933105031+935807675+938433501+941035272+943623528+946117248+948471167
3132+950745809+952991999+955227844+957467115+959681039+961839094+963911859
3119+965872499+967756577+969551034+971189588+972767166+974446070+976235159
3105+978013256+979630213+981066632+982422092+983738756+985028907+986265001
3092+987378493+988459331+989625912+990759903+991741549+992643982+993501217
3078+994269992+995013032+995778704+996487537+997118646+997709599+998191401
3065+998504692+998769615+999118083+999500563+999743178+999783851+999777902
3051+999829438+999816829+999622517+999286723+998860466+998312126+997626572
3038+996873768+996121804+995280865+994191556+992870819+991476949+990045250
3024+988431139+986496041+984269572+981875175+979249479+976178709+972622709
3011+968648406+964193465+959131664+953320033+946610754+938888339+929761707
2997+919004862+906135032+890677657+872047797+849701445+823225858+792456082
2984+757982810+721781555+687424288+659457190+641983177+637113425+644090989
2970+659794794+680460949+703349757+727263600+751850581+776455345+799439078
2957+818661766+832568464+840649951+843237238+841072328+834965124+825886601
2943+815335772+805393678+798071461+794250797+793344677+794230945+796222882
2930+799257699+803711735+809881403+817401748+825356108+832850070+839233578
2916+844037698+847007400+848074853+847293404+844960888+841615431+837796448
2903+833999257+830639056+827844719+825478644+823232712+820648788+817293825
2889+812937495+807553220+801384393+795285142+791027422+790791985+795712563
2876+805043917+817089168+830524668+844632078+858832668+872494294+885163604
2862+896675840+907026538+916327048+924806082+932702828+940155470+947244126
2849+953951336+960103804+965617727+970542508+974915586+978847470+982498330
2835+985983976+989397653+992790055+996148575+999425425+1002582391+1005575630
2822+1008348305+1010895565+1013250841+1015424610+1017474549+1019538325
2810+1021658035+1023821845+1026135156+1028608248+1031089229+1033485308
2799+1035718242+1037687999+1039401433+1040909498+1042225450+1043376512
2787+1044373159+1045220435+1045952159+1046573762+1047110593+1047585282
2775+1047910342+1048056932+1048158518+1048312609+1048464178+1048503817
2764+1048429842+1048338151+1048262948+1048154314+1047951338+1047695597
2752+1047529413+1047504324+1047544933+1047583989+1047617937+1047648458
2741+1047740149+1048025636+1048472714+1048920374+1049317080+1049721934
2729+1050151747+1050568499+1051040214+1051672098+1052465640+1053413014
2718+1054488873+1055586717+1056609876+1057480431+1058148333+1058672877
2706+1059197292+1059799432+1060448517+1061166920+1061973265+1062757753
2694+1063464647+1064122978+1064734494+1065292922+1065771814+1066170460
2683+1066554557+1066949388+1067325725+1067714348+1068163302+1068641159
2671+1069113780+1069587240+1070059537+1070520841+1070958414+1071322724
2660+1071577496+1071750921+1071911867+1072125707+1072350862+1072521637
2648+1072683423+1072855232+1073000335+1073133734+1073261767+1073358696
2637+1073400404+1073371952+1073331020+1073338974+1073356627+1073339039
2625+1073319123+1073369107+1073487569+1073589284+1073659443+1073733223
2613+1073741823+1073628728+1073490285+1073396395+1073313174+1073226331
2602+1073181714+1073205510+1073174537+1072974923+1072724354+1072579639
2590+1072492021+1072339352+1072176661+1072111481+1072098096+1072041386
2579+1071905918+1071717361+1071519881+1071325375+1071135008+1070987771
2567+1070868339+1070700733+1070501831+1070286762+1069990477+1069632310
2556+1069291926+1068930267+1068471032+1068012185+1067689388+1067474449
2544+1067290419+1067152429+1067120873+1067216509+1067399893+1067561162
2532+1067637141+1067717840+1067868633+1068029967+1068140476+1068200677
2521+1068217618+1068206108+1068191559+1068154443+1068119590+1068136143
2509+1068177010+1068229258+1068320174+1068447753+1068586713+1068728196
2498+1068889400+1069058040+1069220926+1069400559+1069588404+1069783492
2486+1069988473+1070140689+1070270596+1070442017+1070576710+1070663099
2475+1070851979+1071189972+1071511734+1071721435+1071896930+1072095509
2463+1072320665+1072546532+1072762635+1072981454+1073150029+1073252779
2451+1073361283+1073478064+1073557599+1073618123+1073632478+1073518284
2440+1073321127+1073183589+1073155073+1073149965+1073068037+1072897069
2428+1072695773+1072509221+1072298679+1071990238+1071634851+1071361069
2417+1071165594+1070997923+1070904421+1070923755+1071024370+1071181889
2405+1071355508+1071469121+1071557644+1071731975+1071909474+1072084969
2394+1072269969+1072484262+1072714849+1072926167+1073091510+1073209713
2382+1073288537+1073319898+1073284205+1073115370+1072662213+1071843066
2370+1070868921+1070013691+1069272656+1068547657+1067759871+1066735031
2359+1065401555+1064030381+1063240784+1064038205+1066416954+1068817236
2347+1070226690+1070611240+1070014338+1068979734+1068356643+1068212187
2336+1068242578+1068175976+1067876910+1067551333+1067470505+1067596920
2324+1067656022+1067569762+1067635718+1068044322+1068520951+1068739253
2313+1068729165+1068709767+1068831721+1069131885+1069513331+1069822613
2301+1070004186+1070106676+1070211042+1070329698+1070394878+1070387959
2289+1070361512+1070360025+1070398887+1070441177+1070393068+1070204770
2278+1069942562+1069655912+1069315204+1068957360+1068654092+1068366407
2266+1068021755+1067620134+1067188510+1066760637+1066407449+1066203050
2255+1066171365+1066315304+1066539167+1066491705+1066592320+1066666229
2243+1066728306+1066751713+1066692224+1066570334+1066487243+1066464352
2232+1066384558+1066216823+1066056330+1065909869+1065747695+1065594509
2220+1065462726+1065361917+1065255094+1065070417+1064833816+1064609371
2208+1064400834+1064196435+1064010982+1063847450+1063680555+1063530603
2197+1063420870+1063337584+1063290380+1063202116+1062991250+1062773078
2185+1062653193+1062577667+1062465865+1062312421+1062148436+1061966022
2174+1061774685+1061622728+1061499998+1061345001+1061131679+1060884990
2162+1060656795+1060478779+1060292162+1060065196+1059841010+1059601176
2151+1059325454+1059039644+1058733337+1058409118+1058109082+1057845452
2139+1057601544+1057389256+1057252365+1057183758+1057158281+1057187961
2127+1057218547+1057208718+1057238075+1057341212+1057451656+1057511922
2116+1057521298+1057504874+1057461226+1057386023+1057290452+1057163583
2104+1057005677+1056887085+1056850098+1056809555+1056563578+1056330339
2093+1056199074+1056101174+1055982195+1055840389+1055663472+1055500198
2081+1055400747+1055324445+1055234822+1055153606+1055087262+1055001584
2070+1054856157+1054666825+1054526507+1054459775+1054410760+1054380951
2058+1054385736+1054398022+1054412571+1054445807+1054487709+1054524696
2046+1054532003+1054474388+1054372545+1054259967+1054151398+1054066884
2035+1054013020+1053989547+1053966204+1053893846+1053775255+1053696625
2023+1053740272+1053862032+1053948809+1053939110+1053878715+1053864877
2012+1053889578+1053858605+1053788058+1053738332+1053682140+1053601764
2000+1053503089+1053400857+1053325008+1053233769+1053072952+1052863639
1989+1052690343+1052591473+1052503920+1052369357+1052223542+1052110641
1977+1051974591+1051792112+1051662334+1051593598+1051479597+1051311539
1965+1051186804+1051131905+1051072222+1050947229+1050769923+1050572120
1954+1050347546+1050075445+1049770819+1049501563+1049200817+1048650924
1942+1047811408+1046862158+1045965545+1045109539+1044182210+1043185110
1931+1042231593+1041492886+1041133490+1041208952+1041664113+1042357815
1919+1043159892+1043994365+1044804589+1045591082+1046253682+1046653168
1908+1046894942+1047156245+1047445611+1047704520+1047919912+1048053376
1896+1048074391+1048054928+1048004232+1047834428+1047562973+1047335813
1884+1047237461+1047186313+1047098307+1046992195+1046926563+1046976482
1873+1047086732+1046998338+1046532896+1045917953+1045523704+1045398840
1861+1045329780+1045174525+1044958939+1044751372+1044562104+1044408077
1850+1044402516+1044440861+1044064265+1043179291+1042378766+1042094637
1838+1042102138+1042099940+1042122119+1042105695+1041794926+1041177913
1827+1040512663+1039987989+1039622192+1039383651+1039177312+1038944397
1815+1038735924+1038491176+1038086904+1037601739+1037273382+1037126597
1803+1036904675+1036466326+1036018665+1035861018+1035845369+1035386910
1792+1034365562+1033456856+1033047735+1032829433+1032516401+1032111677
1780+1031730166+1031605108+1031798256+1031796446+1030987967+1029554976
1769+1028409216+1028105042+1028220853+1028041479+1027441473+1026801053
1757+1026492612+1026562124+1026661381+1026367489+1025685297+1025080765
1746+1024861235+1024874232+1024854962+1024891885+1025065763+1024750403
1734+1023386471+1021770484+1020984896+1020870831+1020837788+1020880595
1722+1021258549+1021585031+1020896179+1019049733+1017313344+1016575736
1711+1016557954+1016630635+1016537262+1016484109+1016401664+1015640131
1699+1013864362+1011626060+1009696200+1008600619+1008386326+1008712227
1688+1008821571+1007582633+1004810799+1002279833+1001283510+1001027833
1676+1000313309+999060727+997754669+996364807+995008700+994220978+993804550
1663+993140786+992563218+993003960+994096825+993833777+991306239+988949928
1649+988170030+987441992+986080712+985332111+985877929+986996013+987420007
1636+986649485+985781323+985930759+986802283+987657966+988245168+988727035
1622+989459406+990556539+991526157+992041390+992675926+993923270+995387882
1609+996524912+997307267+997953183+998566574+999164058+999762706+1000340209
1595+1000830288+1001202422+1001494569+1001760979+1002017949+1002244916
1583+1002525293+1003090705+1003776841+1003782531+1002922064+1002286623
1572+1002263280+1001968030+1001155995+1000818132+1001653769+1002945407
1560+1002703245+999888475+996801927+995438578+995173396+995094442+995118174
1547+995434245+995929756+995755296+993830544+990927445+989245113+988795319
1533+988136276+987105164+986416570+986046634+985558560+984541867+982622741
1520+980196400+978067508+976433286+975350896+974946301+974596087+972605832
1506+968376111+964395472+962399849+960971643+958113484+953553466+948690115
1493+944002776+938194313+930919041+923990167+918774016+914856358+911425869
1479+908336864+905524616+902016790+896401928+889045892+882257078+876796437
1466+871293635+865019795+858800595+853147647+848486690+846958451+849920910
1452+855394031+860769447+865016497+868391635+871208086+873456669+874982129
1439+875471691+874766996+873548943+872621938+871812101+870803104+869901381
1425+869493812+869566234+869736750+869628828+869571795+870298217+871779511
1412+873474904+875124128+876701900+878088722+879212755+880099411+880551727
1398+880134846+878510000+875681327+871992575+867355479+860956516+853021296
1385+845810880+841650220+841665092+845783205+852781526+861262436+870460132
1371+880004744+889415181+897632008+903453855+906477745+907243417+906901480
1358+906308393+905597426+904654125+903430189+901930659+900311762+898947637
1344+898130041+897661494+897045323+896180006+895463154+895225712+895448023
1331+895995005+896845127+898001814+899435646+901098061+902874477+904648500
1317+906445413+908364928+910418746+912544793+914662628+916707459+918647794
1304+920457382+922129044+923652498+925005049+926182364+927187159+927991241
1290+928517466+928641813+928212581+927132713+925343236+922894263+920192588
1277+917955838+916932679+917630196+920060934+923690649+927753411+931655809
1263+935080349+937930683+940241407+942071363+943456699+944412996+944947693
1250+945048243+944722666+944038599+943070921+941888756+940597764+939442822
1236+938819926+939078189+940318679+942311456+944599872+946786960+948669552
1223+950175483+951371162+952351450+953126174+953712601+954131228+954422275
1209+954644391+954784192+954835082+954822408+954760396+954738476+954711964
1196+954624411+954448722+954218134+953976813+953760322+953540210+953247482
1182+952861380+952378414+951804855+951132233+950332032+949388279+948281381
1169+947004098+945556751+943922206+942123094+940261970+938448244+936771086
1155+935288627+933950690+932650645+931297512+929824624+928182254+926318997
1142+924258130+922104407+919931480+917723763+915463606+913188899+910898156
1128+908565123+906212821+903803939+901208764+898285878+894803723+890371091
1115+884538574+876820232+866636494+853314154+836182142+814950447+790088196
1101+762757508+734457203+706966605+682777622+665056080+656509085+658106320
1088+668663487+685327598+704613139+723246425+738408809+747707703+749299441
1074+743010405+732268110+723510314+720833211+720866124+714645760+694486756
1061+658440627+610347954+558095138+511303933+478857969+466982846+478110758
1047+510555947+559063722+616232266+674409291+727412518+771515692+805704965
1034+831152672+849857541+863392298+872321256+876056113+873135813+862598563
1020+847013931+834271099+832722814+843297891+859644897+875457594+888471105
1007+898900497+907286029+913899866+918849413+922323808+924568834+925799367
993+926274250+926134708+925354358+923852177+921487136+917943358+912594842
980+904370127+891477859+871793220+845251095+817347237+798818898+798502050
966+815832964+841992609+867756647+888496129+903557898+913953536+920908146
953+925468746+928446790+930394626+931624641+932352485+932784691+932985663
939+932978938+932837973+932612818+932286982+931818759+931241579+930600512
926+929837556+928837676+927624861+926247350+924623022+922743728+920628867
912+918240160+915598363+912876707+910345677+908189497+906245153+903800836
899+899957410+893940411+884853288+871614751+853477815+830787651+805337163
885+780285903+760697741+754071553+766273158+794545853+828231403+857455610
872+878398909+891719439+899514147+903662975+905269909+905037382+904065112
858+903908564+905354941+907684352+909715215+911016295+911745174+911983327
845+911799038+911368578+910838666+910234781+909409619+908334859+907257190
831+906310074+905379383+904351310+903152009+901811227+900414576+898863058
818+897009758+894848082+892431634+889667237+886413924+882859735+879717642
804+878023283+878223156+879693393+881365184+882536292+883097435+883146191
791+882845380+882370496+881685330+880690558+879539043+878453291+877368443
777+876165975+874860239+873528768+872258339+871078438+870031806+869087471
764+868062696+866697794+864912326+863005098+861424158+860553861+860419428
750+860544291+860433718+859983730+859378228+858721319+857901653+856891621
737+855856306+854909707+854047365+853197761+852316149+851433954+850540250
723+849392292+848313653+847200936+846263778+845532378+844752804+843861945
710+842992683+842218411+841476341+840697737+839885249+839078064+838302822
696+837547820+836840538+836240727+835672858+835010582+834324316+833751275
683+833237335+832656599+832042820+831589599+831507024+831895454+832135158
669+830816361+828439358+827761046+828652357+829374576+829367786+829101699
656+828979034+829016991+829082106+829097948+829062190+828991513+828951617
642+829129180+829601413+830158806+830598577+830947821+831354291+831878383
629+832426981+832971054+833469927+833924312+834433338+835017307+835436451
615+835772633+836331384+837091624+837865249+838647475+839437848+840118747
602+840774104+841577797+842467622+843374517+844305855+845257497+846295528
588+847368412+848279769+849157114+850285156+851492992+852477870+853346744
575+854274396+855183942+856069240+857019395+858005437+858942724+859714733
561+860416324+861332078+862391189+863255407+863925766+864735344+865713368
548+866613862+867520498+868556848+869550715+870440604+871265507+872026717
534+872788638+873585866+874458619+875310745+875941530+876580722+877464920
521+878404341+879275672+880090875+880829518+881620149+882618931+883669700
507+884481929+885138063+885878775+886592005+887112540+887506207+887868771
494+888298520+888788793+889204898+889497691+889644605+889598694+889613049
480+890123691+890924087+891406988+891516980+891462663+891389723+891532628
467+891959855+892658083+893668245+894961500+896482821+898143814+899595234
453+900227701+899963683+899660156+899796788+899698371+898775504+897697835
440+897439054+897728032+897581442+896756668+896306745+897813193+901465799
426+905285557+907821243+910085474+913071019+916072600+918580286+921199840
413+924285482+927224663+928660047+928452480+928661276+929547673+928937968
399+926736912
##END=
