##TITLE=15
##JCAMP-DX=4.24
##DATA TYPE=INFRARED SPECTRUM
##DATE=16/11/2015
##SAMPLING PROCEDURE=Instrument type and / or accessory
##ORIGIN=Default
##XUNITS=1/CM
##YUNITS=TRANSMITTANCE
##RESOLUTION=4
##FIRSTX=3996.3359
##LASTX=399.24785
##DELTAX=-1.9287336
##MAXY=1.0071349
##MINY=0.42023367
##XFACTOR=1
##YFACTOR=9.3796748e-010
##NPOINTS=1866
##FIRSTY=0.94076073
##XYDATA=(X++(Y..Y))
3996+1002977981+1003119499+1003250278+1003321387+1003366886+1003327360
3985+1003292854+1003374957+1003471738+1003574620+1003802308+1004113368
3973+1004344995+1004438536+1004525531+1004715409+1004851144+1004817337
3962+1004760654+1004761988+1004835957+1005006579+1005158646+1005184001
3950+1005213360+1005355069+1005315161+1005170911+1005355259+1005570301
3938+1005527407+1005328951+1005026215+1005082962+1005596609+1005797989
3927+1005619105+1005768122+1006125953+1006088651+1005868208+1005946116
3915+1006100788+1005998224+1005958952+1006061580+1005891084+1005780767
3904+1006147177+1006489058+1006699461+1006878154+1006385350+1005497032
3892+1005654183+1006392022+1006042579+1005737365+1006383952+1006408671
3881+1006169164+1006283866+1005929784+1005587204+1005463543+1005552635
3869+1006110765+1005881298+1005144602+1005392434+1006132879+1006304391
3857+1005287010+1004032537+1004956377+1006761546+1006413628+1004973598
3846+1004355163+1004660822+1004939474+1004765928+1004997556+1005497477
3834+1005186098+1004663809+1004653832+1004798718+1004892068+1004471453
3823+1004120295+1004953963+1005046677+1004059862+1004202079+1004528963
3811+1003729928+1003044641+1003789789+1004477999+1003626474+1003342103
3800+1003976235+1003784070+1003378642+1003179805+1002819496+1002569948
3788+1002449591+1002414259+1002429764+1002159819+1001918977+1002065261
3776+1002068057+1001631492+1001074443+1000985541+1001303909+1001362309
3765+1001230767+1000868297+1000390935+1000614619+1001016425+1000428809
3753+999585292+1000260093+1001517871+1000509132+998801889+999504778+1000323512
3740+999164422+998012386+998104402+998420038+998224949+997501344+996599745
3726+996302220+996461214+996336599+996108657+995931489+995405514+994389531
3713+993812401+994238417+994428930+993644892+992386161+991456665+991095911
3699+990578451+989689497+988797239+987756028+986420088+985477120+985115159
3686+984352854+983242313+982708713+982384752+981564429+981523124+982172379
3672+981307701+980149246+979973857+979223817+977873325+976966959+976212280
3659+975174373+974649542+974519399+973308518+971606740+970846786+970153175
3645+968360208+966115742+964371451+963113864+961972249+960965099+959833716
3632+957842674+955805306+954871298+953662578+951481977+949313894+947730312
3618+946456012+944533219+942008513+939626151+937356965+935300534+933449930
3605+931245816+928794379+926555568+924313263+921857695+919599885+917578722
3591+915132559+912377559+910019154+907616267+904625764+901639773+899043703
3578+896525669+893926486+891430757+888878344+885950943+883057857+880501504
3564+877609880+874189548+870891797+867916608+864949999+861876250+858878058
3551+855887237+852607279+849202262+845883541+842509788+839069820+835653237
3537+832286284+828947927+825606456+822267972+818927517+815445672+811757555
3524+808097143+804548638+800969693+797422204+793969971+790448155+786825872
3510+783327759+779947779+776409504+772737845+769172309+765667904+762137827
3497+758684069+755302374+751839783+748259123+744716717+741232012+737627395
3483+733871473+730106655+726464354+722962047+719519029+715980055+712229407
3470+708369142+704611568+700956685+697276765+693683332+690292676+686948600
3456+683496113+680011917+676639054+673332406+670046475+666821485+663587916
3443+660276630+656953906+653692249+650585837+647713277+644939531+642133440
3429+639401699+636807218+634224240+631594491+629024539+626602143+624235794
3416+621749407+619223048+616895209+614817235+612906579+610991221+608861330
3402+606602375+604626076+602977995+601470670+599829007+598047859+596492683
3389+595254033+594165416+593144476+592147303+591173007+590276618+589514377
3375+588883677+588344929+587848376+587425918+587269657+587462521+587795187
3362+588125058+588537348+589056015+589635751+590216058+590775459+591526961
3348+592588952+593731139+594790715+595806952+596846765+598090562+599665629
3335+601361052+602978948+604556238+606129843+607784978+609706055+611852977
3321+613959928+615967619+617983826+620067964+622270679+624543678+626768254
3308+628959912+631310946+633990007+636814590+639432456+641859491+644370154
3294+647077366+649944906+652903064+655832689+658689744+661562114+664496696
3281+667491203+670526887+673548020+676582497+679725766+682999306+686351262
3267+689701693+693021812+696403699+699940575+703553390+707102658+710628605
3254+714256163+717997914+721786117+725608255+729534926+733572931+737616910
3240+741539641+745335788+749165106+753163840+757364906+761703295+766037936
3227+770302104+774514544+778699723+782892337+787105223+791323637+795564991
3213+799820707+804075724+808392508+812735982+816998243+821174398+825286562
3200+829386589+833536182+837705538+841846361+845958017+850009431+853981157
3186+857953582+861966423+865922707+869743827+873497462+877277404+881085243
3173+884818034+888373339+891837709+895336903+898805721+902166193+905475827
3159+908753560+911942774+915071872+918219398+921329941+924273483+927084467
3146+929922394+932782945+935523964+938148756+940763381+943350236+945827155
3132+948182256+950456652+952717132+955002840+957300812+959542227+961637994
3119+963632786+965610292+967512179+969289132+971016583+972759094+974486291
3105+976150259+977720686+979185562+980572149+981902878+983207426+984520045
3092+985782652+986955850+988088441+989146364+990110430+991074432+992012697
3078+992817007+993544425+994297388+995028683+995630342+996081650+996458735
3065+996836710+997234766+997630026+997987603+998212431+998235816+998183708
3051+998186186+998184915+998039584+997674827+997173762+996638445+996017531
3038+995268507+994423401+993412057+992189420+990849858+989443635+987909557
3024+986159229+984144357+981906437+979483723+976761132+973586535+969919705
3011+965758928+961109350+955911874+949949042+943052901+935138617+925750941
2997+914673180+901511408+885777969+866771689+843903746+816842172+785547823
2984+750639515+714073149+679430465+651241702+633628109+628783761+635970373
2970+651982973+673015118+696272920+720464030+745337250+770352814+793776536
2957+813363504+827543038+835807401+838426665+836098762+829724784+820390996
2943+809636496+799538369+792103163+788238449+787354453+788275306+790335297
2930+793524700+798141488+804398985+811992169+820050386+827641345+834132122
2916+839060987+842067694+843028074+842087267+839673449+836345386+832526363
2903+828634197+825140405+822244586+819812023+817529683+814945751+811592524
2889+807183915+801691011+795426587+789285952+785035574+784893166+790043300
2876+799695774+812002018+825601499+839893574+854324245+868238663+881205918
2862+893014529+903586332+913037173+921665721+929797843+937527906+944783911
2849+951585176+957902090+963590845+968617699+973075429+977118391+980931060
2835+984619178+988174546+991605681+994971808+998281442+1001488766+1004526103
2822+1007326094+1009901764+1012327148+1014603577+1016733215+1018837052
2810+1020982576+1023206262+1025615822+1028172747+1030730370+1033209704
2799+1035518543+1037556101+1039316850+1040862240+1042208856+1043333949
2787+1044273739+1045083514+1045767847+1046372175+1046984955+1047548041
2775+1047912735+1048093398+1048218267+1048323691+1048353812+1048268215
2764+1048131336+1048047009+1047992169+1047876069+1047683840+1047491040
2752+1047378817+1047329123+1047273774+1047223064+1047269072+1047413386
2741+1047592778+1047860754+1048240191+1048638183+1049027597+1049451643
2729+1049917885+1050408401+1050917663+1051501212+1052271905+1053269650
2718+1054417874+1055584653+1056625292+1057446251+1058089279+1058669268
2706+1059223268+1059781906+1060415847+1061147205+1061938677+1062702380
2694+1063406477+1064076893+1064706068+1065302453+1065864968+1066363046
2683+1066815244+1067225373+1067549461+1067848003+1068230935+1068713126
2671+1069259246+1069803840+1070311705+1070798472+1071216100+1071498628
2660+1071689268+1071858175+1072027590+1072247842+1072494530+1072680976
2648+1072822939+1072962106+1073127454+1073306656+1073424980+1073477596
2637+1073512674+1073524367+1073502252+1073473529+1073478359+1073536695
2625+1073600877+1073606087+1073552073+1073510768+1073576729+1073708525
2613+1073741823+1073664042+1073610027+1073590582+1073506192+1073341607
2602+1073176894+1073096698+1073067975+1072966427+1072800571+1072673350
2590+1072579810+1072456529+1072319396+1072225855+1072171714+1072086053
2579+1071917146+1071702994+1071488969+1071278375+1071083669+1070912347
2567+1070736704+1070532720+1070313992+1070070228+1069765585+1069413664
2556+1069048144+1068671058+1068257624+1067839106+1067483245+1067202751
2544+1067006773+1066902557+1066874088+1066920223+1067026091+1067146703
2532+1067239099+1067307348+1067407498+1067568525+1067749760+1067867321
2521+1067868973+1067839869+1067844698+1067832752+1067828939+1067871261
2509+1067932520+1068008395+1068084396+1068147562+1068207422+1068293337
2498+1068450170+1068666737+1068912027+1069155792+1069331181+1069460434
2486+1069623368+1069796469+1069955081+1070109245+1070249683+1070414396
2475+1070641639+1070896715+1071127007+1071346625+1071585306+1071803143
2463+1071984505+1072188998+1072457419+1072744904+1072966300+1073103942
2451+1073192907+1073222901+1073195195+1073212099+1073285050+1073262809
2440+1073113855+1072959056+1072862719+1072810865+1072760918+1072607770
2428+1072300840+1071979422+1071730065+1071453002+1071152045+1070922387
2417+1070735942+1070581651+1070501836+1070469300+1070489635+1070622575
2405+1070823128+1070970302+1071066892+1071240883+1071414238+1071572088
2394+1071699689+1071793230+1071815344+1071771497+1071817759+1072130027
2382+1072676655+1073180579+1073447221+1073515343+1073312756+1072569134
2370+1071438259+1070321237+1068990317+1067461385+1065860837+1064510599
2359+1064159440+1064686432+1064717316+1062603057+1059178531+1058859463
2347+1064348301+1071078585+1072256485+1068660510+1065392753+1064115466
2336+1064268614+1064824519+1065251235+1065476126+1065427322+1065279195
2324+1065577292+1066400157+1066954411+1066856422+1066806220+1067341155
2313+1068055419+1068447629+1068502279+1068467836+1068548541+1068840601
2301+1069195953+1069363589+1069417096+1069480515+1069442768+1069340585
2289+1069323047+1069363971+1069346305+1069291273+1069268651+1069214382
2278+1069027301+1068702578+1068312529+1067942433+1067635503+1067340647
2266+1066991776+1066577452+1066130338+1065697522+1065349922+1065172119
2255+1065164239+1065289871+1065490805+1065453503+1065544121+1065605570
2243+1065667020+1065647511+1065510314+1065354625+1065277289+1065270743
2232+1065241893+1065140918+1064987326+1064784294+1064566838+1064395262
2220+1064255332+1064107904+1063943763+1063739652+1063494171+1063258922
2208+1063059322+1062864933+1062657135+1062475456+1062335780+1062221905
2197+1062126648+1062018365+1061895275+1061756426+1061565977+1061358433
2185+1061182791+1061061480+1060991960+1060908142+1060763129+1060574586
2174+1060377210+1060200678+1060032407+1059848757+1059651762+1059427443
2162+1059195053+1058992339+1058794582+1058582781+1058351091+1058076379
2151+1057805098+1057576140+1057311087+1056972384+1056603940+1056238357
2139+1055960849+1055813357+1055702722+1055589101+1055535150+1055572515
2127+1055639557+1055692555+1055755148+1055816789+1055865402+1055917510
2116+1055955765+1055962501+1055935748+1055869342+1055767476+1055632503
2104+1055503822+1055442753+1055397127+1055297867+1055026777+1054806271
2093+1054678542+1054553164+1054361889+1054161273+1054013908+1053922592
2081+1053839028+1053726868+1053596852+1053465501+1053336438+1053209217
2070+1053088987+1052988012+1052923766+1052856470+1052752762+1052679938
2058+1052677904+1052701417+1052720226+1052741197+1052757655+1052749839
2046+1052718320+1052671295+1052604571+1052483197+1052329542+1052237463
2035+1052203529+1052160762+1052097597+1052032843+1051974571+1051932693
2023+1051939302+1051991919+1052031953+1052013588+1051957349+1051931867
2012+1051952774+1051923670+1051817166+1051713839+1051640315+1051586428
2000+1051546394+1051513921+1051480559+1051397885+1051212583+1050926052
1989+1050649687+1050475061+1050368811+1050273428+1050153452+1049991535
1977+1049802103+1049625952+1049524786+1049495109+1049437981+1049282355
1965+1049085234+1048946766+1048851446+1048711198+1048515475+1048305517
1954+1048088315+1047842771+1047548296+1047244162+1046917850+1046375797
1942+1045494787+1044453322+1043502411+1042632712+1041684914+1040626863
1931+1039577900+1038787761+1038477463+1038665116+1039230490+1040004806
1919+1040825447+1041603829+1042368803+1043190397+1043915781+1044322416
1908+1044507464+1044713291+1044991752+1045243397+1045429588+1045569518
1896+1045660771+1045720314+1045719679+1045555792+1045229544+1044940216
1884+1044813250+1044731910+1044606596+1044483125+1044425997+1044527671
1873+1044750339+1044769657+1044284097+1043531642+1043026637+1042873236
1861+1042788719+1042586386+1042329023+1042122051+1041959054+1041825797
1850+1041851597+1041964646+1041644308+1040709982+1039812069+1039487727
1838+1039503995+1039516768+1039563348+1039570083+1039241484+1038602586
1827+1037967819+1037456524+1037028537+1036729042+1036514445+1036277162
1815+1036054050+1035824901+1035422905+1034857340+1034445368+1034340580
1803+1034231534+1033793380+1033245926+1033083818+1033177041+1032767738
1792+1031641883+1030573092+1030090583+1029888123+1029588438+1029163502
1780+1028769386+1028676671+1028924058+1028903405+1027991956+1026497658
1769+1025356107+1025031384+1025101730+1024892407+1024281026+1023668500
1757+1023418063+1023547761+1023726137+1023474047+1022708438+1021977271
1746+1021715713+1021715268+1021596627+1021537528+1021794447+1021659347
1734+1020310761+1018507054+1017521701+1017290137+1017237648+1017339830
1722+1017833969+1018300846+1017634750+1015588931+1013585180+1012698895
1711+1012668011+1012776168+1012688728+1012637636+1012591819+1011806510
1699+1009861158+1007392754+1005285167+1004147620+1004029487+1004493377
1688+1004672769+1003349983+1000367932+997677432+996673205+996482629+995796643
1674+994509570+993139124+991626207+990086409+989171021+988725050+988066517
1661+987522050+988085962+989363948+989129461+986365057+983837046+983119096
1647+982431776+980993844+980261914+981020915+982413920+982937671+982004171
1634+980966582+981185056+982270940+983281903+983904278+984383165+985158434
1620+986334110+987304593+987706970+988269104+989560434+991078308+992198889
1607+992925481+993517862+994086350+994647784+995217607+995764489+996230222
1593+996611692+996940228+997219134+997436209+997600350+997850088+998446219
1580+999170205+999100876+998052484+997293356+997282681+997018962+996169153
1566+995810751+996775324+998295232+998102940+995017816+991667004+990266755
1553+990067091+990028582+990091302+990562628+991251790+991000273+988643139
1539+985303257+983515182+983196051+982627055+981597346+980965756+980712523
1526+980279453+979227757+977217587+974688623+972497536+970809421+969695576
1512+969402563+969246747+967146023+962319976+957781796+955679103+954361972
1499+951468759+946636231+941512532+936787906+930999064+923501964+916152482
1485+910604037+906529811+903019623+899896244+897117097+893613265+887811016
1472+880088833+872978858+867358034+861727170+855267340+848952905+843407002
1458+838890936+837343386+840220013+845734587+851281761+855692657+859124555
1445+861924545+864180450+865814550+866476388+865825290+864489413+863462945
1431+862652472+861642589+860697842+860276337+860422304+860730187+860725294
1418+860642938+861263089+862680114+864394665+866099239+867729972+869152209
1404+870292107+871237617+871823835+871518303+869861134+866807784+862798184
1391+857926193+851389853+843278130+835853917+831579709+831644654+835953240
1377+843224941+851988590+861440638+871251216+880969970+889497479+895601892
1364+898801718+899500667+898932497+898187222+897441122+896465808+895165264
1350+893580030+891895219+890500181+889707246+889327619+888795480+887916948
1337+887111812+886791156+886956377+887448546+888253109+889407942+890902113
1323+892681036+894582668+896446935+898334968+900386888+902552492+904708756
1310+906841888+908942167+910924312+912737805+914417977+915975250+917384841
1296+918617073+919642080+920452807+920994605+921128053+920686214+919551971
1283+917662539+915096782+912275440+909943026+908915604+909697037+912208208
1269+915910242+920109147+924196464+927775981+930704526+933037703+934897585
1256+936322554+937302697+937867944+938012512+937712191+937007014+935956144
1242+934628465+933180873+931940952+931309617+931585282+932840581+934839948
1229+937169884+939479676+941515391+943117719+944336670+945316050+946107523
1215+946710644+947132275+947428974+947638488+947751219+947810572+947836054
1202+947787759+947719065+947619932+947487628+947283580+947016303+946755635
1188+946528710+946284945+945964670+945537573+945002384+944389286+943699170
1175+942895751+941926538+940760394+939431762+937944644+936223421+934271905
1161+932261863+930357434+928605010+926997090+925509147+924127453+922774927
1148+921293465+919568556+917584123+915429131+913202394+910923105+908579316
1134+906208265+903845729+901447735+899005258+896541683+894011321+891321203
1121+888279354+884585771+879900989+873817991+865811564+855247259+841399947
1107+823577095+801532652+775857411+747818490+718887121+690808166+666148400
1094+648127473+639451392+641112755+651947387+669055720+688821827+707858037
1080+723351588+732901625+734541636+728025694+716884641+707824294+705109138
1067+705158450+698726200+678065865+641294562+592432183+539548384+492376567
1053+459847984+448025838+459160028+491683623+540576568+598526937+657830912
1040+712155630+757582426+792951574+819365671+838829360+852913637+862107877
1026+865816457+862632709+851561302+835255499+821970701+820380574+831368163
1013+848305429+864698037+878253861+889185465+898003890+904979274+910210048
999+913844533+916178599+917496111+917987008+917769552+916905255+915309600
986+912746829+908888025+903185226+894536534+881003014+860403685+832743120
972+803753606+784584901+784321945+802308811+829476889+856308487+877968410
959+893767048+904715682+912036950+916812032+919896711+921884576+923121256
945+923838443+924271704+924531673+924605577+924485729+924225759+923839269
932+923260995+922523410+921770446+921020723+920082394+918854102+917371941
918+915611509+913583928+911297140+908689950+905788031+902803629+900068456
905+897787260+895705283+893076678+889032445+882708923+873137216+859275478
891+840364201+816718955+790252813+764321225+744146323+737417119+750138005
878+779457517+814423779+844822312+866646185+880591296+888762880+892963628
864+894398701+894025619+893048336+892922704+894415604+896913176+899172766
851+900551728+901141249+901172324+900900154+900507563+899984002+899283210
837+898383962+897358447+896319715+895271005+894178766+893036389+891759547
824+890266138+888629432+886913610+885017189+882789436+880174684+877117203
810+873600026+869881025+866662834+864920069+865033499+866421103+868096954
797+869341450+869952133+869931798+869508006+869000841+868357813+867428571
783+866335823+865195670+863948632+862629786+861290477+859862013+858372481
770+856991359+855836908+854788389+853593141+852095983+850308100+848429472
756+846876266+845992332+845694362+845644860+845514653+845111322+844452916
743+843654008+842754633+841756062+840729721+839711513+838747512+837854872
729+836930079+835962010+835013386+833842032+833078074+831917142+830470821
716+829460239+828744641+827918853+826984464+826040987+825088170+824128235
702+823209287+822335458+821488636+820693033+819936447+819112311+818200100
689+817337137+816638315+816057944+815491743+814848080+814071858+812999128
675+811194659+809914322+812999573+818105224+815419999+808255692+806716276
662+809490403+811168859+811075318+810592237+810362580+810492914+810761271
648+810868474+810907301+811100737+811444969+811877340+812352097+812731597
635+813013807+813368143+813801213+814235872+814718064+815358740+816007106
621+816633739+817302123+817751270+817902574+818137252+818768715+819689695
608+820620971+821448475+822320715+823357097+824310232+825010198+825799320
594+826869762+827918726+828771839+829608049+830603443+831765392+832902305
581+833895729+834892393+835817568+836496119+837201169+838210098+839337224
567+840310821+841122184+841940156+842972598+844159839+845234348+846091084
554+846758260+847422067+848309750+849378349+850406978+851295868+852154256
540+852995994+853730974+854452927+855258062+856142885+857146095+858119121
527+858781403+859355483+860278879+861491666+862610658+863479213+864202500
513+864899479+865695973+866555758+867275106+867849313+868348408+868805435
500+869358163+870006910+870619245+871176486+871640757+871975012+872147223
486+872068426+871885538+871971263+872487452+873180809+873817609+874231806
473+874113228+873712186+873561898+873676091+874214648+875551097+877479991
459+879319792+880652872+881701073+882660564+883169763+883211449+883046228
446+882427157+881415813+880590152+880085973+879640448+879141861+878723725
432+879010320+880643467+883294632+886280496+889614214+893700642+898158944
419+901538988+903124158+904011777+905347717+906865337+907608895+907569941
405+907687884+908261646+908706536+908846720
##END=
