##TITLE=15
##JCAMP-DX=4.24
##DATA TYPE=INFRARED SPECTRUM
##DATE=16/11/2015
##SAMPLING PROCEDURE=Instrument type and / or accessory
##ORIGIN=Default
##XUNITS=1/CM
##YUNITS=TRANSMITTANCE
##RESOLUTION=4
##FIRSTX=3996.3359
##LASTX=399.24785
##DELTAX=-1.9287336
##MAXY=0.99391717
##MINY=0.42816195
##XFACTOR=1
##YFACTOR=9.256575e-010
##NPOINTS=1866
##FIRSTY=0.92806184
##XYDATA=(X++(Y..Y))
3996+1002597448+1002646192+1002704209+1002837886+1003031512+1003137694
3985+1003149220+1003155659+1003204017+1003332608+1003513870+1003706466
3973+1003891399+1004044715+1004231580+1004423789+1004412327+1004288438
3962+1004318380+1004381548+1004437826+1004672663+1004860687+1004722438
3950+1004582193+1004759978+1004814904+1004669830+1004890500+1005224178
3938+1005262813+1005128685+1004876656+1004912779+1005413682+1005619671
3927+1005347488+1005355022+1005623084+1005499452+1005229780+1005384127
3915+1005656375+1005659208+1005788700+1006078140+1005957084+1005755924
3904+1006027915+1006268997+1006329912+1006493789+1006182712+1005448776
3892+1005660109+1006456248+1006091791+1005602028+1006058050+1006071508
3881+1005962879+1006243949+1006026112+1005736607+1005546329+1005518061
3869+1006091147+1006048906+1005448132+1005626239+1006219544+1006337252
3857+1005344268+1004086248+1004989019+1006876533+1006685611+1005375563
3846+1004844138+1005230746+1005601642+1005477301+1005619478+1005923922
3834+1005458628+1004854441+1004793526+1004966675+1005239696+1005078846
3823+1004853346+1005585737+1005553026+1004580969+1004786121+1005132355
3811+1004336538+1003620954+1004250769+1004844846+1004029583+1003769763
3800+1004346648+1004186699+1003900091+1003705049+1003211744+1002849734
3788+1002727455+1002746708+1002793907+1002505174+1002215090+1002350763
3776+1002409231+1002057781+1001590813+1001557007+1001861580+1001889075
3765+1001794419+1001530284+1001114057+1001301308+1001614573+1000968918
3753+1000121974+1000845028+1002226874+1001337753+999667433+1000317209
3742+1001066085+999804072+998441866+998367558+998796020+998840322+998198852
3728+997207027+996757444+996818745+996677534+996506703+996568841+996366522
3715+995461690+994743723+995035932+995248425+994514360+993224079+992253954
3701+991909716+991411131+990514992+989591422+988526641+987263856+986445889
3688+986152971+985445242+984381298+983798811+983412654+982690050+982794107
3674+983396685+982374789+981162808+981078906+980460360+979203305+978355138
3661+977636076+976586105+976009284+975862600+974648044+972856668+972002190
3647+971361171+969705789+967566440+965913570+964739323+963601264+962547688
3634+961402095+959398226+957287789+956300793+955143739+953059509+950911273
3620+949261752+947935025+946096965+943813958+941651814+939368549+937134479
3607+935153727+932899889+930423900+928216424+926095427+923772948+921588653
3593+919568042+917012851+914083223+911745611+909653912+906985778+904174051
3580+901682093+899248023+896689934+894157860+891476655+888350116+885267429
3566+882663880+879894973+876651242+873493345+870643112+867774720+864777222
3553+861901619+859001739+855660905+852158191+848908472+845754889+842472652
3539+839057381+835685639+832460646+829235717+825893274+822498094+819027382
3526+815415717+811821888+808320333+804766427+801154311+797604462+794138708
3512+790711268+787324780+783952266+780445044+776796096+773226414+769764589
3499+766305918+762861607+759395467+755837183+752225195+748665172+745164261
3485+741644161+738045374+734370541+730716312+727134074+723593691+720042296
3472+716408931+712706345+709078453+705552815+701995110+698441140+694996636
3458+691606607+688176977+684736722+681368071+678009594+674621111+671324901
3445+668190249+665117929+661978705+658772321+655673214+652797159+650016211
3431+647232366+644521154+641944327+639450051+636953135+634448298+631934383
3418+629409520+626960898+624664626+622436352+620214967+618120370+616144254
3404+614099367+612008376+610161751+608531676+606947125+605279510+603593478
3391+602155161+600937256+599782971+598694236+597671181+596675042+595751279
3377+595028031+594504141+594027514+593534853+593211285+593239102+593454749
3364+593632020+593828414+594187334+594703369+595278966+595869566+596519922
3350+597327072+598350192+599490375+600586708+601643762+602753488+604025932
3337+605569336+607228775+608787826+610306955+611891183+613546049+615324870
3323+617282184+619365255+621513168+623666555+625811184+628013959+630195292
3310+632301544+634548299+637067044+639788623+642568798+645201710+647680596
3296+650211704+652865865+655605925+658472256+661452046+664408912+667277754
3283+670151491+673137269+676201927+679251259+682272710+685303047+688429135
3269+691741443+695139585+698479131+701851839+705369363+708917925+712388508
3256+715878344+719469081+723118931+726843732+730669113+734551030+738466946
3242+742408683+746323633+750206516+754122174+758096815+762179377+766384154
3229+770611661+774834597+779036605+783155869+787248734+791425243+795683980
3215+799940721+804136805+808297474+812494524+816686165+820811418+824957405
3202+829143187+833271917+837351130+841457388+845555532+849579497+853543771
3188+857472115+861401360+865334854+869194621+872980079+876764314+880514614
3175+884165172+887723843+891221664+894702227+898155875+901534442+904863557
3161+908152748+911370530+914535832+917645113+920703589+923754403+926728011
3148+929552616+932322940+935101570+937821732+940460052+943028701+945480414
3134+947842881+950233036+952602392+954832083+956977292+959142334+961305765
3121+963365333+965310477+967229993+969126972+970908884+972581586+974279273
3107+976040643+977754428+979332539+980784378+982143301+983417612+984668034
3094+985956834+987219812+988387942+989488653+990520144+991464254+992389048
3080+993309269+994141596+994879782+995556475+996162014+996718680+997225314
3067+997632012+997985265+998385845+998822228+999201752+999399821+999405359
3053+999408450+999472004+999408256+999150690+998837295+998512246+998077667
3040+997453067+996667296+995814363+994855571+993681840+992362712+991058007
3026+989687301+988007838+985995726+983802224+981421148+978664862+975467171
3013+971921121+967996448+963550331+958457270+952558992+945751503+937985416
2999+928814301+917953292+904933744+889384633+870785289+848464362+821842393
2986+790875467+756320185+720063352+685592939+657523251+640002467+635119260
2972+642114579+657903677+678719706+701732457+725721128+750406581+775126291
2959+798221721+817549400+831512157+839626861+842237493+840022419+833781964
2945+824549548+813919834+803977371+796634337+792810372+792009146+792991635
2932+794977539+798032667+802571314+808767018+816240961+824133642+831573715
2918+837933811+842762736+845784123+846844267+846000350+843684696+840434075
2905+836655120+832799797+829342736+826502097+824171891+821981737+819419656
2891+816046433+811642944+806226251+800106658+794126345+789942367+789681065
2878+794570970+803932361+815992151+829400174+843508521+857757370+871500487
2864+884253131+895791799+906107475+915385544+923921113+931903492+939401131
2851+946535021+953339355+959597905+965122196+970001412+974438642+978502208
2837+982204151+985701521+989158131+992596904+995996077+999308642+1002445033
2824+1005358434+1008059472+1010578282+1012952918+1015175333+1017253961
2812+1019340767+1021525641+1023773554+1026114192+1028541952+1030967265
2801+1033306421+1035482023+1037470825+1039269091+1040855831+1042250104
2789+1043455774+1044447857+1045269237+1045973296+1046564476+1047098283
2777+1047598413+1047951666+1048120694+1048234989+1048368409+1048443683
2766+1048401120+1048293006+1048216187+1048203888+1048160810+1047986437
2754+1047764994+1047634279+1047578902+1047540267+1047517923+1047545354
2743+1047654369+1047831318+1048091396+1048457398+1048863645+1049271889
2731+1049718960+1050162297+1050561783+1051015873+1051606667+1052389347
2720+1053399589+1054498046+1055552074+1056559031+1057425807+1058073588
2708+1058598444+1059124524+1059732446+1060438694+1061201414+1061980102
2696+1062733614+1063472122+1064203418+1064855320+1065389835+1065844763
2685+1066270649+1066697437+1067114631+1067493512+1067866017+1068261060
2673+1068653077+1069095255+1069625520+1070168857+1070679161+1071102859
2662+1071376137+1071559782+1071736151+1071929970+1072178844+1072422759
2650+1072567447+1072672857+1072796875+1072943495+1073145685+1073344398
2639+1073430554+1073416130+1073376851+1073351352+1073351867+1073367707
2627+1073387411+1073432807+1073502222+1073541822+1073567708+1073652125
2615+1073741823+1073726691+1073635190+1073552447+1073485093+1073395782
2604+1073270025+1073143495+1073062555+1073008917+1072924049+1072790243
2592+1072661524+1072580261+1072505889+1072397003+1072276139+1072170537
2581+1072065064+1071929197+1071747419+1071540658+1071362615+1071218699
2569+1071081352+1070948190+1070801377+1070595517+1070295838+1069928032
2558+1069554174+1069185596+1068795383+1068390874+1068029250+1067721844
2546+1067456358+1067284818+1067193961+1067134850+1067149338+1067240967
2534+1067351335+1067460929+1067577736+1067729700+1067916372+1068072328
2523+1068151981+1068177222+1068186495+1068153591+1068077673+1068064666
2511+1068127898+1068173938+1068199244+1068262348+1068375935+1068488749
2500+1068575614+1068698473+1068912318+1069187721+1069441811+1069609680
2488+1069735437+1069903950+1070085534+1070240332+1070381221+1070492683
2476+1070605948+1070811615+1071105048+1071370149+1071562165+1071746389
2465+1071963325+1072201123+1072451800+1072724628+1072970153+1073115421
2453+1073197069+1073306728+1073421474+1073457856+1073476143+1073527978
2442+1073487476+1073307244+1073118576+1073029329+1073003186+1072958241
2430+1072859399+1072655728+1072366223+1072082256+1071769377+1071433124
2419+1071188113+1071000218+1070830933+1070749284+1070750701+1070810263
2407+1070944519+1071130096+1071312325+1071478327+1071666286+1071813614
2395+1071970279+1072138792+1072313873+1072523404+1072794428+1073090630
2384+1073336477+1073463071+1073425789+1073226239+1072864293+1072290499
2372+1071508977+1070670533+1069864413+1068945737+1067789520+1066555775
2361+1065395759+1063960533+1062069800+1060669860+1061384801+1064324990
2349+1067575482+1069642133+1070149604+1069242905+1067879153+1067043993
2338+1066791771+1066846826+1066842640+1066496921+1066044634+1065895117
2326+1065987454+1065918813+1065664595+1065719070+1066347919+1067159254
2314+1067648760+1067782373+1067856294+1068078639+1068443353+1068822813
2303+1069128288+1069359003+1069511805+1069602339+1069683086+1069765508
2291+1069827968+1069867891+1069900988+1069951278+1070014382+1070015154
2280+1069869693+1069609100+1069317857+1069002016+1068649793+1068300919
2268+1067975998+1067642643+1067256743+1066804005+1066351332+1066024737
2257+1065876958+1065858349+1065961054+1066156096+1066121389+1066276316
2245+1066390289+1066455582+1066443219+1066347726+1066225575+1066149979
2233+1066119908+1066035040+1065858929+1065680886+1065541671+1065408251
2222+1065263628+1065107027+1064958218+1064821514+1064659118+1064455319
2210+1064234262+1064025762+1063833875+1063654415+1063494402+1063342952
2199+1063194401+1063057504+1062959307+1062896654+1062749004+1062484933
2187+1062265680+1062162846+1062110496+1062039794+1061905859+1061727172
2176+1061560913+1061414808+1061268124+1061107981+1060921761+1060704890
2164+1060466898+1060229679+1060000187+1059776555+1059577520+1059390462
2152+1059167796+1058910165+1058647124+1058358972+1058020143+1057668822
2141+1057354011+1057090777+1056893610+1056785818+1056754395+1056762251
2129+1056786656+1056800049+1056813056+1056861865+1056927416+1056991164
2118+1057052593+1057103978+1057124841+1057061672+1056931859+1056846926
2106+1056803591+1056709772+1056592837+1056503590+1056434562+1056232887
2095+1056063666+1055932307+1055772165+1055556839+1055353039+1055197276
2083+1055061216+1054941254+1054868492+1054809509+1054706547+1054589547
2071+1054513114+1054460506+1054377248+1054265077+1054138226+1054003969
2060+1053940028+1053978405+1054022449+1054019423+1054030112+1054071387
2048+1054085424+1054063467+1054033847+1053978727+1053839126+1053651167
2037+1053551811+1053554708+1053542731+1053454064+1053350071+1053289672
2025+1053267586+1053309118+1053417232+1053488320+1053437000+1053338481
2014+1053323671+1053373446+1053371385+1053329724+1053301327+1053232685
2002+1053126761+1053045370+1052992569+1052953934+1052863914+1052648782
1990+1052366488+1052166617+1052074150+1051982972+1051842598+1051689925
1979+1051552256+1051393788+1051210851+1051099067+1051064360+1050969060
1967+1050772794+1050605505+1050545298+1050514133+1050413360+1050224113
1956+1049985348+1049737118+1049490176+1049244908+1049027007+1048743555
1944+1048172207+1047283538+1046304848+1045426803+1044603620+1043687262
1933+1042633814+1041564590+1040768516+1040442436+1040551838+1041035226
1921+1041789575+1042608315+1043361376+1044087778+1044871683+1045599116
1909+1046077675+1046354108+1046589975+1046838720+1047075424+1047280704
1898+1047411484+1047446255+1047471690+1047481349+1047321078+1046992616
1886+1046707747+1046583858+1046529189+1046467695+1046386690+1046284436
1875+1046305235+1046497766+1046505622+1045984500+1045222296+1044762281
1863+1044660800+1044608772+1044438456+1044224675+1044052685+1043897050
1852+1043755324+1043774384+1043888873+1043565111+1042606255+1041688222
1840+1041366135+1041403482+1041457571+1041543277+1041558795+1041227307
1828+1040588734+1039934772+1039409723+1039008756+1038725303+1038487827
1817+1038249191+1038064001+1037848739+1037421758+1036856657+1036485246
1805+1036401279+1036288078+1035881831+1035392776+1035258198+1035344998
1794+1034888589+1033692771+1032644539+1032290385+1032195150+1031907963
1782+1031441574+1031026054+1030968617+1031285875+1031336165+1030439060
1771+1028870221+1027658176+1027359592+1027503571+1027322953+1026685089
1759+1026031835+1025776780+1025947482+1026128745+1025806142+1024994678
1747+1024299119+1024099119+1024172976+1024177934+1024244193+1024516956
1736+1024245739+1022724614+1020894860+1020022159+1019916042+1019928341
1724+1020055643+1020579598+1021062407+1020361439+1018271607+1016301865
1713+1015537858+1015648419+1015859688+1015825045+1015806178+1015819057
1701+1015097677+1013165475+1010683884+1008578340+1007426180+1007256830
1690+1007709182+1007992891+1006798168+1003808140+1001042260+1000045026
1678+999925579+999290870+998054936+996784038+995372057+993887571+993014935
1664+992610941+991965672+991413964+991978808+993298773+993149642+990422848
1651+987851366+987086650+986347047+984821286+984012784+984737191+986133138
1637+986686069+985750523+984620771+984692567+985649428+986601974+987248660
1624+987781114+988586654+989772427+990736371+991084408+991567410+992820601
1610+994338699+995460789+996203354+996849782+997488354+998111601+998715724
1597+999241096+999653138+1000010319+1000351337+1000651209+1000890617+1001069755
1583+1001327773+1001970723+1002806592+1002860874+1001870466+1001114314
1572+1001097315+1000810900+999942257+999599049+1000583211+1002117601+1001961451
1558+998919717+995560274+994087250+993814293+993783192+993934448+994470766
1545+995203286+995112558+992988663+989732633+987852976+987396954+986748079
1531+985721546+985109117+984846399+984436160+983463137+981514580+978993453
1518+976783916+975106191+974037933+973749716+973551261+971514165+966948473
1504+962681301+960687798+959390370+956567954+951921128+947010812+942391481
1491+936613937+929188546+922023876+916657409+912697771+909284819+906273670
1477+903578363+900121238+894407957+886875740+879987697+874522260+869002991
1464+862690481+856527489+851017042+846384060+844699252+847544012+853064955
1450+858549259+862844120+866189396+868959656+871219031+872838546+873423995
1437+872686260+871349810+870392370+869638923+868657143+867740399+867329258
1423+867426811+867623206+867495324+867385601+868094618+869600868+871327660
1410+873009764+874624128+876016920+877105010+877970563+878448414+878067666
1396+876431216+873506867+869699709+865006135+858584545+850621483+843411482
1383+839280305+839332269+843523331+850620324+859154798+868357980+877910100
1369+887346314+895616010+901506239+904551064+905271414+904891374+904304830
1356+903606696+902664195+901435730+899919757+898276996+896908479+896112019
1342+895639899+894953870+894016327+893314844+893157278+893441052+894002096
1329+894848718+895999655+897421874+899073972+900836308+902599481+904428591
1315+906425957+908544894+910677224+912768666+914800224+916733455+918537389
1302+920226576+921786142+923167279+924346355+925341078+926137088+926640567
1288+926743722+926324790+925278296+923528903+921083564+918309442+915999970
1275+915001770+915760626+918176344+921757295+925851060+929851265+933343419
1261+936199062+938501129+940343375+941732303+942668494+943189938+943302816
1248+943014986+942363277+941382914+940142537+938793338+937634932+937039309
1234+937315098+938575887+940565977+942813182+944982216+946907012+948474370
1221+949680620+950627435+951394533+952006705+952445083+952716044+952876636
1207+952976765+953045471+953066785+953017976+952983655+952924673+952822032
1194+952678439+952499816+952263885+952011405+951764463+951436516+950984873
1180+950458600+949899229+949272376+948507789+947547645+946396515+945116344
1167+943684852+942025028+940154256+938213427+936360556+934687531+933212382
1153+931868721+930577732+929248945+927779849+926107082+924190528+922075325
1140+919872164+917650844+915425081+913183349+910909485+908604392+906283329
1126+903918995+901470373+898873521+895941574+892394558+887883470+881986930
1113+874202684+863933949+850501457+833226328+811826717+786800890+759326503
1099+730890428+703256672+678948232+661167112+652602632+654212424+664814129
1086+681550879+700942242+719677324+734906151+744263550+745899614+739588392
1072+728749662+719922592+717276351+717328380+711028233+690737512+654530262
1059+606259358+553833967+506903215+474409787+462549000+473675915+506162646
1045+554814202+612162401+670540867+723818611+768230070+802701064+828384588
1032+847255988+860877662+869807436+873486520+870498810+859856474+844134408
1018+831311126+829791289+840454809+856876814+872777760+885934978+896503456
1005+904970898+911651471+916691279+920236041+922508552+923757944+924240109
991+924094069+923299025+921746541+919304937+915705313+910348054+902089692
978+889024555+869069894+842240519+814072442+795416948+795135685+812596842
964+838973929+864994609+885949337+901183637+911727388+918800686+923434569
951+926415969+928311724+929495952+930216945+930649142+930837037+930836458
937+930725575+930529889+930217654+929727182+929096272+928410630+927666004
924+926758210+925618993+924196258+922471914+920559545+918422127+915915617
910+913132093+910332021+907743411+905516167+903508691+901009843+897126445
897+891087600+881952416+868589532+850249943+827347496+801738472+776559650
883+756871635+750237038+762520138+790912105+824768609+854232698+875416596
870+888927645+896875447+901078356+902578554+902208495+901240366+901218022
856+902811458+905276952+907430725+908722035+909291773+909393190+909187265
843+908798275+908289259+907650236+906809731+905806187+904751065+903664326
829+902570183+901475782+900289043+898978221+897513117+895808734+893906475
816+891829070+889490751+886725128+883395176+879793878+876693676+874983240
802+875075771+876482729+878138819+879289047+879845392+879917768+879678553
789+879275847+878591750+877550343+876410482+875359867+874204487+872914400
775+871653675+870352383+869006855+867790174+866756880+865777225+864663120
762+863207096+861364270+859485128+858042947+857278811+857075913+857079712
748+856954341+856490206+855740429+854961161+854235338+853404878+852426962
735+851428955+850479113+849557733+848628303+847746588+846966161+845935314
721+844879033+843717343+842720302+841927190+841091514+840160604+839257832
708+838455319+837701614+836953447+836228719+835475916+834651444+833843908
694+833113835+832395804+831658712+830966115+830331986+829703459+829078988
681+828462438+827818972+827234166+826993470+827347946+827605900+826157344
667+823620827+823025333+824129586+825025854+825116131+824864102+824701706
654+824701641+824745879+824783290+824851932+824949163+825069897+825304219
640+825697652+826120705+826441440+826705124+827078854+827634554+828233461
627+828748916+829180985+829705841+830293608+830780603+831101660+831482794
613+832075455+832750795+833367024+834012035+834862520+835875466+836847394
600+837686740+838455254+839280434+840192349+841144637+842165954+843166794
586+843962675+844737178+845793395+847037185+848243048+849301390+850156189
573+850888967+851713888+852694896+853725420+854767084+855790590+856779131
559+857720151+858558918+859336833+860085966+860799748+861527632+862329051
546+863318107+864492160+865624617+866534278+867239496+867871951+868473820
532+869133449+870064037+871149874+872036161+872771965+873618909+874568751
519+875482597+876299342+877072364+877927550+878857494+879689371+880258142
505+880703733+881309337+882007729+882657441+883311789+883887580+884189641
492+884317974+884539223+884812824+885066205+885385201+885776638+886337426
478+887094285+887828673+888327322+888331507+887859130+887429187+887434209
465+888037559+889262804+890975237+892866871+894329593+895137000+895600427
451+895813306+895919359+896099591+896144215+895839256+895194244+894395465
438+893784388+893278270+892664166+892690567+894296044+897156581+899979963
424+902130516+904342886+907755452+912128999+915453478+917136869+918770551
411+921050467+922453884+922160837+921889620+922942874+924561617+925463938
##END=
