##TITLE=15
##JCAMP-DX=4.24
##DATA TYPE=INFRARED SPECTRUM
##DATE=16/11/2015
##SAMPLING PROCEDURE=Instrument type and / or accessory
##ORIGIN=Default
##XUNITS=1/CM
##YUNITS=TRANSMITTANCE
##RESOLUTION=4
##FIRSTX=3996.3359
##LASTX=399.24785
##DELTAX=-1.9287336
##MAXY=0.99891883
##MINY=0.42587933
##XFACTOR=1
##YFACTOR=9.3031566e-010
##NPOINTS=1866
##FIRSTY=0.93230331
##XYDATA=(X++(Y..Y))
3996+1002136534+1002233150+1002265121+1002329126+1002561697+1002726099
3985+1002685159+1002642809+1002701817+1002831045+1003030044+1003283181
3973+1003482437+1003557270+1003656257+1003865058+1003980383+1003932075
3962+1003868390+1003792981+1003797401+1004023950+1004200717+1004085457
3950+1004025104+1004310917+1004448986+1004265556+1004275614+1004403369
3938+1004441169+1004414517+1004170989+1004107817+1004533942+1004759594
3927+1004591091+1004744794+1005130363+1005063026+1004746267+1004715642
3915+1004850252+1004918870+1005141511+1005424569+1005316612+1005156503
3904+1005372865+1005499209+1005493827+1005668865+1005475632+1004859157
3892+1005011514+1005721402+1005445904+1005020612+1005338588+1005125493
3881+1004852046+1005167266+1005163743+1005065396+1004929057+1004810465
3869+1005257027+1005223455+1004643116+1004683672+1005235756+1005686612
3857+1005129722+1003769083+1003868903+1005088205+1004971727+1004076679
3846+1003831999+1004337954+1004730762+1004474870+1004377100+1004620051
3834+1004399012+1004102051+1004149846+1004217183+1004369924+1004210200
3823+1003967441+1004581097+1004437902+1003315600+1003366471+1003820210
3811+1003343727+1002829955+1003452581+1004007549+1003178044+1002870063
3800+1003405169+1003206362+1002859876+1002671192+1002257625+1001971107
3788+1001871479+1001828745+1001806064+1001536076+1001288000+1001440998
3776+1001579836+1001395893+1001050367+1000929853+1000953815+1000717720
3765+1000548705+1000377832+1000068506+1000359380+1000954840+1000720667
3753+999997197+1000361559+1001355529+1000387507+998598372+998938388+999712985
3740+998922819+997911806+997696854+997705695+997458003+996799051+995902466
3726+995472048+995482171+995342564+995290412+995564692+995661309+995001524
3713+994139087+993885885+993678813+993015056+992074263+991316708+990916979
3699+990283398+989366311+988627592+987867667+986705514+985606085+984968853
3686+984217384+983355332+983034409+982862191+982113734+981870335+982142693
3672+981010397+979674104+979465494+978945444+977923411+977263306+976691872
3659+975760945+975203222+975059323+973916263+972002770+970677241+969671802
3645+968126131+966315021+964826499+963572151+962293457+961224781+960213512
3632+958315203+956038822+954730336+953494247+951633355+949724988+948113197
3618+946695921+944876418+942680828+940465056+938006655+935637757+933648086
3605+931535274+929249346+927125066+924966124+922525725+920174575+918113851
3591+915731307+912928853+910491786+908257242+905548394+902721209+900191754
3578+897727202+895166545+892718394+890229047+887229196+884027975+881202007
3564+878382767+875230623+872083028+869154550+866267396+863267225+860300689
3551+857330566+854011970+850526602+847271499+844124160+840818250+837354216
3537+833974050+830798649+827643814+824321181+820865221+817337887+813761028
3524+810238308+806730259+803131616+799586407+796195349+792740349+789084557
3510+785484569+782075443+778562461+774899749+771393366+767981549+764467029
3497+760934442+757456954+754012270+750547788+747039739+743492864+739880575
3483+736238814+732638697+729047423+725438721+721906262+718414551+714793035
3470+711030631+707287192+703665613+700129694+696664892+693233790+689732212
3456+686174574+682734310+679508871+676313737+673000907+669698200+666497748
3443+663320040+660118499+656874864+653660957+650654379+647838470+645105531
3429+642497848+640017214+637525560+634961188+632365421+629763376+627263329
3416+624947353+622731517+620507481+618317080+616264685+614202039+611966855
3402+609798623+608042932+606499440+604886368+603153486+601466030+600072075
3389+598897621+597786083+596701647+595632010+594629326+593756446+593046879
3375+592484607+591974360+591467572+591101288+591049007+591256784+591520108
3362+591772477+592104036+592553161+593084552+593658420+594313016+595177759
3348+596211965+597232012+598211311+599250771+600412090+601724421+603198270
3335+604759703+606384051+608102965+609819830+611500366+613298791+615311143
3321+617468355+619621595+621662457+623660393+625755715+627956366+630199623
3308+632466843+634828244+637417475+640189176+642914106+645508143+648073028
3294+650708133+653436907+656253008+659159062+662107978+665037865+668004657
3281+671089977+674179781+677114346+679982727+683003593+686249279+689618233
3267+692964058+696273877+699681978+703243524+706852867+710417424+713991529
3254+717654241+721331176+724955062+728652371+732546566+736536608+740465720
3240+744355237+748278519+752197187+756123032+760229616+764517644+768736605
3227+772827877+776950157+781171425+785452342+789744214+794018339+798290158
3213+802528596+806650749+810719980+814830665+818959481+823115718+827329682
3200+831558318+835716478+839810568+843909079+847973313+851943686+855879910
3186+859857907+863828536+867675959+871396846+875109276+878848166+882549384
3173+886202486+889815031+893377475+896867776+900224430+903464541+906704716
3159+909965842+913187437+916347525+919425413+922399893+925286085+928131274
3146+930989340+933800635+936445158+938975126+941522071+944054794+946502560
3132+948897854+951235613+953496682+955739939+957971087+960124776+962196712
3119+964234307+966194699+967996198+969678081+971335232+973008337+974713028
3105+976438798+978078907+979546222+980881489+982129238+983332716+984574122
3092+985848972+987085381+988254773+989339017+990340933+991296974+992171584
3078+992912609+993597317+994307333+994981662+995577763+996141957+996614531
3065+996931931+997241001+997655016+998064419+998297247+998323387+998296029
3051+998320376+998287380+998090431+997793598+997421804+996874909+996130873
3038+995315847+994513508+993617051+992516277+991232200+989812041+988256375
3024+986511192+984539204+982390961+980050895+977338459+974156394+970573897
3011+966582894+962071136+956956999+951114715+944356752+936518966+927186252
2997+916230599+903207303+887637317+868920120+846454744+819775851+788785610
2984+754155913+717831136+683330090+655207782+637621344+632758742+639872161
2970+655734815+676490311+699392513+723348397+748149035+773070443+796276781
2957+815571626+829468058+837590760+840322674+838247278+832059532+822813375
2943+812112141+802055829+794654226+790834289+790002798+790914888+792866181
2930+795912995+800434492+806671507+814275568+822304409+829828256+836249854
2916+841140134+844181181+845215580+844316944+841908580+838602286+834848659
2903+831017125+827544635+824654214+822222272+819921481+817312836+813971368
2889+809633814+804267500+798155035+792149310+787969495+787757938+792702933
2876+802134057+814241099+827623760+841715988+855998182+869780443+882587761
2862+894208133+904631050+914009894+922558593+930524005+938099939+945354695
2849+952212990+958455451+963968420+968866771+973282874+977317060+981089010
2835+984665933+988102160+991502380+994905548+998235997+1001400250+1004366465
2822+1007142970+1009708945+1012066309+1014272663+1016392651+1018499377
2810+1020628142+1022825077+1025194936+1027712089+1030206818+1032559442
2799+1034723446+1036701264+1038518461+1040146973+1041522028+1042626710
2787+1043544374+1044395407+1045168210+1045776035+1046270330+1046742712
2775+1047123412+1047337660+1047484250+1047617771+1047635902+1047522564
2764+1047386545+1047307035+1047280190+1047207022+1047036790+1046873286
2752+1046777310+1046678451+1046551081+1046483040+1046551786+1046708307
2741+1046896286+1047167940+1047537492+1047946638+1048369111+1048810740
2729+1049259866+1049691180+1050137230+1050720197+1051570716+1052636765
2718+1053726135+1054777191+1055796918+1056686904+1057372445+1057900952
2706+1058366864+1058867822+1059504478+1060300987+1061146189+1061915853
2694+1062612606+1063283284+1063920773+1064502201+1065014756+1065473812
2683+1065912879+1066329201+1066712463+1067080797+1067454193+1067874231
2671+1068357890+1068839307+1069311946+1069820720+1070280417+1070607170
2660+1070848391+1071043802+1071222491+1071431870+1071632214+1071774768
2648+1071893104+1072010479+1072140027+1072293089+1072416678+1072474405
2637+1072501442+1072512462+1072525340+1072562820+1072577556+1072556734
2625+1072571021+1072663473+1072770789+1072811089+1072824543+1072847544
2613+1072819930+1072746379+1072698327+1072677248+1072632464+1072539243
2602+1072428723+1072351904+1072287963+1072169563+1072010992+1071891567
2590+1071805137+1071651499+1071426424+1071252540+1071183281+1071139586
2579+1071045916+1070907142+1070736077+1070539769+1070344870+1070153495
2567+1069959494+1069775166+1069595196+1069383319+1069082449+1068688936
2556+1068282096+1067877114+1067444519+1067065357+1066795689+1066593038
2544+1066430430+1066313824+1066274357+1066318309+1066418321+1066544345
2532+1066653712+1066750392+1066875391+1067009168+1067124172+1067234948
2521+1067318558+1067339637+1067293635+1067214702+1067194136+1067228221
2509+1067246545+1067287613+1067397107+1067530884+1067622759+1067702974
2498+1067858598+1068059071+1068270692+1068510503+1068692011+1068804325
2486+1068952709+1069113203+1069252041+1069413944+1069574245+1069708342
2475+1069883508+1070143501+1070403430+1070607298+1070832117+1071109281
2463+1071354282+1071520926+1071695835+1071924498+1072118244+1072248881
2451+1072388296+1072523482+1072545265+1072485809+1072446663+1072363949
2440+1072201726+1072075381+1072040912+1072024638+1071944616+1071767144
2428+1071528678+1071332754+1071151118+1070841792+1070475636+1070208915
2417+1069993643+1069806753+1069737109+1069759918+1069820720+1069965772
2405+1070183224+1070364347+1070498380+1070687769+1070833591+1070952375
2394+1071101977+1071363315+1071783738+1072356453+1072964919+1073430895
2382+1073672180+1073741823+1073646488+1073278730+1072677376+1072013490
2370+1071249464+1070246844+1069198799+1068210018+1067225466+1065717595
2359+1063019254+1059508450+1057392883+1059767739+1066283519+1071804112
2347+1072563269+1070014850+1067648451+1066850853+1066967971+1067241227
2336+1067357577+1067265893+1066873597+1066397370+1066266285+1066391732
2324+1066144745+1065406411+1065090165+1065892376+1067066830+1067521978
2313+1067288510+1067091177+1067294853+1067776974+1068272358+1068553237
2301+1068638642+1068692460+1068771009+1068840332+1068912025+1068952645
2289+1068935410+1068936884+1069056758+1069228015+1069255244+1069041317
2278+1068671125+1068278700+1067938364+1067648707+1067321954+1066896278
2266+1066431968+1066030766+1065673260+1065282629+1064922688+1064721639
2255+1064694666+1064826776+1065040768+1064976378+1065135718+1065244636
2243+1065291471+1065302811+1065246366+1065098558+1064960361+1064902570
2232+1064837284+1064717154+1064589976+1064450754+1064299358+1064184866
2220+1064079344+1063923848+1063744454+1063568904+1063376568+1063142523
2208+1062859786+1062587940+1062397462+1062268939+1062151500+1062037777
2197+1061920402+1061801682+1061722300+1061635614+1061474544+1061306362
2185+1061170599+1061052328+1060953597+1060838849+1060677330+1060474487
2174+1060255626+1060071107+1059944250+1059821237+1059615766+1059332644
2162+1059071498+1058863978+1058658828+1058454575+1058253974+1058009358
2151+1057730592+1057459707+1057161849+1056809340+1056472976+1056200618
2139+1055949915+1055717023+1055571073+1055521099+1055520202+1055572611
2127+1055662628+1055736436+1055788268+1055834078+1055881937+1055917688
2116+1055918137+1055884308+1055834206+1055769560+1055677236+1055572098
2104+1055474713+1055387323+1055298459+1055200048+1054952036+1054756176
2093+1054626756+1054497272+1054331397+1054156104+1054000607+1053875993
2081+1053764704+1053660336+1053584413+1053525534+1053438976+1053311671
2070+1053169181+1053042131+1052954164+1052862801+1052746131+1052681806
2058+1052684561+1052690967+1052697503+1052729665+1052757087+1052748758
2046+1052735560+1052728832+1052673092+1052530538+1052365944+1052269968
2035+1052248377+1052254528+1052226593+1052143496+1052037589+1051969868
2023+1052015037+1052135295+1052179374+1052096277+1052011321+1052019522
2012+1052052005+1052019586+1051957695+1051905606+1051819689+1051702635
2000+1051600573+1051552521+1051552841+1051482749+1051268950+1050989160
1989+1050764276+1050632422+1050538496+1050432654+1050330399+1050225582
1977+1050049968+1049834759+1049715911+1049689386+1049604494+1049401010
1965+1049194964+1049099885+1049068811+1048979627+1048790815+1048558115
1954+1048339383+1048130325+1047896344+1047657622+1047358354+1046785383
1942+1045865156+1044829156+1043912773+1043058793+1042114477+1041098466
1931+1040132173+1039389098+1039018906+1039082078+1039599886+1040427661
1919+1041260689+1041963722+1042660795+1043441095+1044124137+1044545201
1908+1044831846+1045116698+1045378998+1045604458+1045815374+1045981570
1896+1046067230+1046112719+1046084273+1045878418+1045552177+1045295516
1884+1045184035+1045121568+1045043659+1044966776+1044917059+1044993685
1873+1045179999+1045119902+1044510859+1043713453+1043304499+1043272849
1861+1043243890+1043046108+1042766381+1042520676+1042341410+1042253443
1850+1042362553+1042497034+1042040989+1040900940+1039946501+1039714954
1838+1039824320+1039913249+1040058301+1040117758+1039736417+1039001991
1827+1038287299+1037744376+1037374183+1037164228+1036993356+1036779364
1815+1036580686+1036335044+1035887905+1035334282+1035003877+1034960053
1803+1034841013+1034372602+1033814495+1033647402+1033721787+1033237039
1792+1032017096+1030997689+1030691118+1030605650+1030322527+1029888394
1780+1029483348+1029404287+1029710858+1029719187+1028712915+1027048011
1769+1025800198+1025512719+1025708387+1025581786+1024979086+1024359088
1757+1024131770+1024333076+1024526949+1024135486+1023213658+1022482435
1746+1022339689+1022485895+1022503258+1022545607+1022826103+1022527219
1734+1020860906+1018909164+1018072291+1018081132+1018196073+1018421725
1722+1019051269+1019545948+1018650452+1016289371+1014233965+1013590133
1711+1013871269+1014180852+1014156377+1014123638+1014069563+1013141584
1699+1010980399+1008407442+1006322307+1005302645+1005360948+1006020413
1688+1006359467+1004972560+1001676837+998836838+998027707+998078771+997423790
1674+996063792+994695336+993215272+991732069+990973745+990667494+989995407
1661+989424678+990144176+991647561+991362453+988207234+985431753+984767355
1647+984131019+982660629+981959519+982824518+984299969+984769533+983639351
1634+982463744+982706503+983853983+984874158+985459047+985876906+986645481
1620+987878110+988811151+989046797+989529880+990896029+992488022+993611028
1607+994330846+994954433+995574559+996181679+996782713+997329993+997760731
1593+998114713+998450629+998740094+998960236+999145075+999439089+1000114892
1580+1000934722+1000850023+999655515+998851126+998938644+998718758+997847480
1566+997561347+998724973+1000401410+1000058959+996564301+993011468+991715987
1553+991660183+991692410+991815807+992348607+993101485+992923885+990538010
1539+987086854+985304576+985033755+984448162+983442594+982901273+982710154
1526+982314335+981264431+979163984+976533044+974325153+972718167+971766418
1512+971627196+971498865+969272010+964321121+959895408+958095510+957033818
1499+954223355+949404065+944379368+939793354+934036859+926508015+919229874
1485+913862278+909972505+906605024+903594089+900897221+897415633+891579691
1472+883896953+876986121+871573037+866017975+859614507+853462640+848011114
1458+843302535+841460224+844300863+849967405+855572441+859889749+863228142
1445+866035914+868366882+870045946+870617892+869772946+868340358+867373232
1431+866643547+865683725+864790856+864416115+864588333+864841855+864636001
1418+864371074+865035921+866619713+868433771+870158900+871776841+873164709
1404+874276952+875175075+875653352+875258621+873594038+870609563+866770725
1391+862099498+855656116+847581658+840273020+836115886+836167269+840366946
1377+847504775+856102743+865380742+875036301+884588965+892946481+898879423
1364+901910220+902571671+902149135+901561299+900865507+899909401+898670942
1350+897156088+895529049+894197626+893435586+892992611+892340001+891403116
1337+890663116+890461682+890701494+891217892+892039644+893198465+894632015
1323+896285195+898087912+899920613+901777020+903769703+905884309+908005835
1310+910109549+912187828+914158855+915984701+917705474+919282731+920641832
1296+921801166+922791164+923568901+924063452+924195050+923813517+922764191
1283+920957437+918458223+915695556+913419880+912401627+913117922+915545955
1269+919179900+923300963+927301705+930803282+933671215+935978029+937828990
1256+939232364+940180269+940709417+940816220+940492927+939798224+938797846
1242+937566242+936232448+935056649+934430820+934696003+935940613+937923236
1229+940217301+942452229+944408392+945989621+947216932+948176113+948934245
1215+949520351+949931547+950223383+950468704+950627532+950668088+950640602
1202+950582299+950555390+950481390+950339605+950138171+949943849+949766249
1188+949558088+949302323+948987615+948574624+948043682+947439957+946753071
1175+945923694+944945613+943829975+942565055+941092615+939371843+937479172
1161+935570613+933757837+932084924+930556295+929126654+927758519+926387692
1148+924906859+923239713+921351784+919282603+917099699+914837861+912532777
1134+910232882+907944777+905621240+903255675+900867877+898420752+895801600
1121+892809116+889184590+884624075+878711891+870897426+860546843+846973128
1107+829533217+807976086+782804807+755188453+726586266+698821463+674480330
1094+656693868+648095516+649679885+660302378+677120753+696641378+715505742
1080+730816311+740193361+741797335+735410206+724459294+715549309+712902607
1067+712978722+706671550+686328020+649984278+601525037+548989582+502082579
1053+469645397+457779384+468858274+501290331+549958309+607468808+666060347
1040+719536980+764226513+799009271+824891654+843888705+857641046+866668470
1026+870364498+867311469+856558339+840704078+827749144+826190018+836962625
1013+853560602+869584775+882780225+893371196+901934759+908760827+913896107
999+917476106+919764980+921013690+921464225+921259780+920422331+918875763
986+916441579+912765733+907234184+898804655+885655462+865625807+838614523
972+810188974+791332940+791017911+808626709+835257678+861555999+882744219
959+898120139+908726165+915833882+920525098+923589787+925539031+926752375
945+927514671+927964117+928133900+928099495+927940091+927730392+927476486
932+927035112+926370842+925623474+924833052+923866887+922668215+921228066
918+919506717+917578296+915420763+912904122+910070082+907151599+904487150
905+902298224+900320213+897756289+893768682+887635971+878421081+864984281
891+846538738+823445803+797583602+772161428+752285603+745589980+758020507
878+786728858+820915964+850616811+871965397+885636113+893704036+897905763
864+899336494+898958293+898044793+898012694+899536069+901993254+904166932
851+905426278+905945944+906014177+905799994+905427623+904947424+904385985
837+903663924+902664316+901490951+900353529+899280817+898148842+896843238
824+895446720+894088131+892569177+890650238+888382186+885858305+882976726
810+879629043+876024249+872841929+871055805+871132240+872569954+874380360
797+875756440+876386625+876347607+875944291+875394448+874609279+873539323
783+872453989+871486799+870395123+869157305+867899177+866475557+864876132
770+863426821+862346357+861444005+860383018+858935181+857073905+855117037
756+853583347+852814644+852714375+852832391+852739426+852333355+851728477
743+850953239+850006936+849023024+848114394+847228444+846319493+845411119
729+844482627+843511401+842544404+841433315+840256811+839077680+838167448
716+837451922+836750940+835951163+834988010+833951369+832975210+832151856
702+831485856+830877069+830247076+829607601+828936732+828202049+827466342
689+826791244+826150551+825559961+825022291+824403767+823638139+823112387
675+823644097+824929968+823855526+819169756+816630306+819131058+821367652
662+821147895+820358497+820015022+819990483+820111190+820193583+820127143
648+820082423+820243493+820504063+820728882+821004379+821407439+821841637
635+822237777+822678638+823141026+823421136+823610910+823969569+824665874
621+825494866+826056562+826147796+826245694+826843076+827817506+828790205
608+829587419+830322358+831190112+832147179+832937473+833558048+834304519
594+835248003+836205326+837164379+838270599+839470104+840546083+841447089
581+842383718+843529277+844690532+845597817+846319301+847070449+847944803
567+848909301+849870597+850846884+851905180+852883710+853674966+854412723
554+855181427+856036175+857032900+858117273+859174352+860097077+860934911
540+861786904+862506786+863051183+863695912+864596085+865703523+866768867
527+867440761+867956198+868818763+869886798+870722581+871320732+872007042
513+872940339+874011962+874984341+875590244+875982027+876616890+877410836
500+877964074+878270133+878589198+879029162+879442985+879799787+880159728
486+880342198+880274733+880335470+880850587+881512231+881950208+882315531
473+882603394+882572705+882462890+882638825+883208849+884346847+886144567
459+888092657+889572914+890573419+891016138+890838153+890705850+890869611
446+890923173+890751660+890255187+889430167+888466822+887240536+885940891
432+885852283+888317028+892692318+896658014+899261789+901491912+904101517
419+906946577+909535232+911647340+913467099+915155517+916630904+917856549
405+919131720+920012095+919575976+918227190
##END=
