##TITLE=15
##JCAMP-DX=4.24
##DATA TYPE=INFRARED SPECTRUM
##DATE=16/11/2015
##SAMPLING PROCEDURE=Instrument type and / or accessory
##ORIGIN=Default
##XUNITS=1/CM
##YUNITS=TRANSMITTANCE
##RESOLUTION=4
##FIRSTX=3996.3359
##LASTX=399.24785
##DELTAX=-1.9287336
##MAXY=1.0024986
##MINY=0.42309701
##XFACTOR=1
##YFACTOR=9.336496e-010
##NPOINTS=1866
##FIRSTY=0.93652916
##XYDATA=(X++(Y..Y))
3996+1003084194+1002983390+1002934105+1003014927+1003212450+1003341535
3985+1003364837+1003382968+1003427145+1003574489+1003866942+1004205680
3973+1004464936+1004595618+1004642349+1004620132+1004541162+1004575253
3962+1004756623+1004795438+1004703955+1004751452+1004793587+1004642987
3950+1004629517+1004985045+1005173119+1005074677+1005265049+1005530817
3938+1005459571+1005128750+1004749984+1004939016+1005666861+1005851615
3927+1005402370+1005323910+1005646560+1005679118+1005597913+1005829527
3915+1006002343+1005789818+1005647900+1005629195+1005245003+1005008538
3904+1005580357+1006372362+1006950502+1007202289+1006489254+1005304566
3892+1005371663+1006187799+1005869171+1005591465+1006318098+1006410922
3881+1006279538+1006512747+1006103849+1005494045+1005079337+1005128303
3869+1005908050+1005889983+1005259495+1005514155+1006057118+1005786434
3857+1004269457+1003035611+1004892284+1007688945+1007427071+1005474573
3846+1004371921+1004405245+1004558973+1004433654+1004929056+1005724190
3834+1005584507+1005163926+1005142667+1005080550+1004893817+1004317784
3823+1004030246+1005061717+1005342232+1004543588+1004812484+1005029541
3811+1003968449+1003132904+1003859601+1004462957+1003573404+1003491050
3800+1004340766+1004232493+1003864580+1003583682+1003022205+1002613371
3788+1002445087+1002440299+1002495138+1002215708+1001989777+1002250693
3776+1002322960+1001797744+1001144975+1001094095+1001529040+1001694578
3765+1001589624+1001117333+1000525084+1000768253+1001143890+1000306431
3753+999248594+1000110185+1001731733+1000836945+999246615+1000243867+1001020167
3740+999340780+997743554+997941651+998760086+998922880+998139940+996934951
3726+996388540+996548141+996610450+996540097+996334212+995544952+994219560
3713+993652145+994433681+994898822+994082877+992730863+991929601+991764893
3699+991168687+989920541+988601724+987302379+986142397+985804873+985993266
3686+985298745+983867314+982887809+982168136+981272645+981592869+982585780
3672+981749087+980680971+980794480+980157479+978638204+977476690+976491439
3659+975345950+974908515+974802412+973329229+971450914+971015266+970828788
3645+969215156+966868508+965018474+963690975+962412825+961205601+959864696
3632+957808393+956139092+955835595+954829469+952281786+949661964+948001154
3618+946997901+945281294+942711268+940235342+938024227+936161361+934456054
3605+932221765+929629714+927258869+924953589+922501859+920258632+918161792
3591+915520838+912700493+910677963+908785412+905992773+902859099+900101637
3578+897585492+895059260+892505960+889676103+886451201+883518752+881172358
3564+878507912+875206976+871934895+868964653+866028948+862994610+860027623
3551+857035866+853724333+850352789+847170596+843882300+840359263+836809796
3537+833433145+830210924+826949888+823556766+820145450+816737453+813225843
3524+809662267+806093776+802496364+798943641+795452780+791902610+788252722
3510+784683975+781277893+777836636+774319153+770850508+767330024+763703948
3497+760130158+756658321+753186356+749627121+746050330+742548232+739017598
3483+735338152+731594482+727926271+724375783+720924311+717419723+713719912
3470+709923254+706213739+702605794+699028875+695560613+692211924+688797735
3456+685239458+681704355+678327512+674967843+671619281+668479606+665447886
3443+662301699+659037088+655728746+652525294+649580652+646825296+644099818
3429+641387236+638751262+636167446+633607443+631140966+628726838+626210246
3416+623628536+621243967+619137550+617099442+615014093+612910804+610730205
3402+608522409+606646967+605081790+603504802+601748550+600018090+598641881
3389+597544080+596466452+595345924+594239313+593221504+592342676+591629833
3375+591061270+590526223+589965640+589575766+589552847+589775076+590036183
3362+590293907+590576210+590908819+591412393+592148027+592952608+593768490
3348+594733247+595811449+596848665+597885371+599025307+600319162+601815902
3335+603387719+604912676+606507284+608205760+609922239+611748205+613781333
3321+615911435+618031705+620122545+622212044+624355233+626529193+628704366
3308+630960999+633417709+636090582+638823338+641466845+644015996+646529332
3294+649122724+651909042+654893457+657960482+660914892+663710275+666516575
3281+669475199+672551289+675592586+678558870+681631577+684938386+688376260
3267+691804941+695200808+698618317+702110966+705626598+709086752+712591531
3254+716263189+720027990+723771149+727518841+731356101+735270289+739225463
3240+743223792+747221803+751164911+755129213+759283824+763605251+767896800
3227+772089205+776225238+780370656+784587257+788840629+793074019+797315964
3213+801573103+805789895+809960786+814095351+818218169+822393401+826623153
3200+830879206+835124918+839298553+843387792+847400486+851331719+855251206
3186+859243981+863256483+867150562+870912298+874688527+878514296+882263392
3173+885897001+889465940+892991403+896440258+899766092+903027447+906333235
3159+909668645+912965112+916169777+919258380+922273693+925206972+928016784
3146+930784269+933554563+936234076+938821722+941409177+943969500+946447468
3132+948869576+951235313+953536763+955798950+958036049+960218436+962277291
3119+964248622+966220080+968104715+969816023+971485962+973229957+974992593
3105+976693686+978281782+979752092+981130408+982420305+983672090+984942132
3092+986222645+987496965+988689186+989711081+990640790+991571775+992431451
3078+993168426+993878843+994624117+995318957+995909290+996463042+996980469
3065+997381898+997699824+998029177+998360190+998550498+998560457+998571693
3051+998658069+998660814+998477784+998132662+997651560+997081145+996466298
3038+995774778+994940957+993910380+992696389+991369209+989976465+988483428
3024+986765800+984771870+982588525+980216277+977475030+974260917+970636820
3011+966611741+962091643+956948909+950996741+944109885+936226734+926926707
2997+915925779+902772021+887036873+868122916+845441796+818565398+787383278
2984+752585808+716183325+681668349+653552488+635990608+631113195+638205554
2970+654172698+675146596+698294518+722477997+747392959+772302943+795533666
2957+814951133+828995784+837183263+839778315+837469970+831163871+821891806
2943+811157092+801069657+793674311+789905616+789126507+790052066+791996009
2930+795050457+799632863+805930216+813503230+821481887+829063774+835614383
2916+840548997+843495427+844413709+843524794+841239751+837977694+834130475
2903+830214308+826734810+823873287+821446902+819090231+816405163+813024937
2889+808681167+803287157+797085309+790985159+786789306+786637366+791682424
2876+801228556+813479226+827019985+841208852+855520230+869330459+882221002
2862+893952138+904420957+913805572+922447850+930583235+938242242+945420019
2849+952158830+958404025+964054036+969096796+973595060+977661763+981417180
2835+984969775+988440527+991911024+995347174+998655580+1001796978+1004796907
2822+1007626509+1010195960+1012528373+1014727486+1016868823+1019060276
2810+1021313526+1023554327+1025876525+1028343257+1030835334+1033248377
2799+1035472133+1037423481+1039177626+1040775107+1042144230+1043283463
2787+1044246241+1045073678+1045823165+1046512132+1047113765+1047591164
2775+1047896960+1048091162+1048275215+1048410493+1048437050+1048353738
2764+1048197840+1048075011+1047995083+1047863380+1047681434+1047515257
2752+1047399387+1047349591+1047335291+1047317671+1047347421+1047462781
2741+1047640959+1047894087+1048224398+1048612612+1049038874+1049486843
2729+1049971073+1050484478+1050994819+1051560638+1052331575+1053334509
2718+1054432183+1055516258+1056535344+1057408107+1058068664+1058580218
2706+1059085324+1059664677+1060355175+1061177824+1062054034+1062843039
2694+1063511066+1064131276+1064737442+1065299940+1065811558+1066311301
2683+1066809959+1067227284+1067517631+1067810276+1068210875+1068660695
2671+1069108600+1069561229+1070064100+1070654114+1071211441+1071564352
2660+1071752426+1071908835+1072051199+1072217057+1072443818+1072625508
2648+1072720886+1072841034+1073021319+1073212330+1073388913+1073496420
2637+1073478417+1073392999+1073333882+1073315369+1073329797+1073399127
2625+1073500506+1073556941+1073558218+1073588734+1073676578+1073741823
2613+1073720628+1073634316+1073544556+1073473310+1073403213+1073341032
2602+1073297238+1073246421+1073147723+1072965523+1072741060+1072597035
2590+1072533706+1072409727+1072209779+1072048007+1071960163+1071880617
2579+1071755745+1071585419+1071383811+1071188714+1071034795+1070911647
2567+1070766601+1070569398+1070355468+1070105277+1069757602+1069346342
2556+1068964001+1068632477+1068268012+1067854773+1067487626+1067233924
2544+1067085559+1066992288+1066946386+1066988138+1067112435+1067244394
2532+1067341112+1067459408+1067633310+1067800572+1067903036+1067939680
2521+1067940063+1067939297+1067920464+1067860199+1067825597+1067847048
2509+1067870988+1067898120+1067969430+1068086833+1068222558+1068370029
2498+1068553251+1068759265+1068950275+1069130050+1069297376+1069457807
2486+1069646520+1069860577+1070081593+1070261559+1070351702+1070430864
2475+1070635664+1070948929+1071223827+1071426967+1071615935+1071814606
2463+1072026557+1072233783+1072477654+1072779875+1073028214+1073151171
2451+1073214373+1073263530+1073269659+1073277958+1073332989+1073315113
2440+1073126784+1072892872+1072793409+1072814476+1072808475+1072658322
2428+1072368614+1072055923+1071762896+1071433223+1071126534+1070940949
2417+1070799160+1070627556+1070489278+1070429523+1070483277+1070674160
2405+1070894282+1071037029+1071164838+1071354444+1071509704+1071627554
2394+1071698800+1071727911+1071693565+1071548775+1071389173+1071401686
2382+1071610189+1071771706+1071786900+1071805158+1071714505+1071118234
2370+1070249685+1069468277+1068256202+1066750524+1065578859+1064996059
2359+1065624952+1066855733+1066891866+1064222377+1059872988+1058610925
2347+1063558563+1070216104+1071641982+1068433933+1065457435+1064323883
2336+1064565455+1065125528+1065528617+1065849862+1065931706+1065680940
2324+1065647232+1066254228+1066773379+1066670212+1066557470+1067062959
2313+1067790549+1068214897+1068304593+1068295910+1068424038+1068790419
2301+1069206786+1069389817+1069430675+1069490557+1069493239+1069463425
2289+1069494196+1069514434+1069445294+1069376027+1069374815+1069329743
2278+1069145180+1068847109+1068502562+1068175571+1067868881+1067520631
2266+1067113968+1066703473+1066302363+1065888805+1065519041+1065337478
2255+1065346416+1065454817+1065624377+1065614482+1065738269+1065838882
2243+1065906872+1065881718+1065759975+1065618313+1065551727+1065539917
2232+1065449710+1065285831+1065172770+1065062134+1064846290+1064617166
2220+1064484186+1064367805+1064187839+1064009149+1063878596+1063716760
2208+1063457504+1063169392+1062942694+1062781816+1062644495+1062508196
2197+1062382047+1062297969+1062263687+1062195313+1062013623+1061783606
2185+1061604597+1061490961+1061372473+1061194486+1061002645+1060813295
2174+1060610154+1060431720+1060261011+1060069489+1059904206+1059753670
2162+1059552636+1059316682+1059099752+1058908614+1058713773+1058481457
2151+1058200878+1057873632+1057516700+1057202732+1056966075+1056720736
2139+1056424006+1056162451+1055996466+1055903323+1055881170+1055949799
2127+1056047092+1056099249+1056130276+1056170751+1056212566+1056244550
2116+1056250551+1056234527+1056200692+1056124339+1056036239+1055981719
2104+1055922794+1055839291+1055748190+1055626893+1055340058+1055085845
2093+1054924010+1054799457+1054669414+1054543776+1054411243+1054281647
2081+1054178991+1054095233+1054011282+1053915585+1053809419+1053689015
2070+1053555078+1053426695+1053331956+1053255858+1053167183+1053096703
2058+1053065996+1053048823+1053045440+1053079020+1053123325+1053133412
2046+1053121665+1053100342+1053026479+1052860494+1052672994+1052587065
2035+1052584511+1052564785+1052495071+1052402566+1052315679+1052264862
2023+1052278524+1052325000+1052363240+1052394522+1052422037+1052441445
2012+1052440551+1052386287+1052304571+1052225536+1052112219+1051992838
2000+1051918974+1051874541+1051838344+1051755159+1051570405+1051307446
1989+1051087388+1050990478+1050938640+1050840134+1050700387+1050530571
1977+1050309619+1050082156+1049954985+1049921405+1049849712+1049677982
1965+1049492206+1049393508+1049364525+1049289895+1049108269+1048874868
1954+1048629976+1048343141+1048024641+1047737422+1047398493+1046827504
1942+1046006834+1045057335+1044116071+1043218537+1042282444+1041263359
1931+1040243251+1039451757+1039098464+1039240254+1039813733+1040619974
1919+1041454944+1042248928+1043013737+1043783206+1044453532+1044884519
1908+1045145626+1045368876+1045595702+1045817164+1046010984+1046134324
1896+1046185779+1046232830+1046236916+1046082932+1045795139+1045530201
1884+1045379538+1045287991+1045210935+1045129475+1045030139+1045020435
1873+1045110450+1045057718+1044664205+1044088683+1043671422+1043499116
1861+1043376479+1043162932+1042900165+1042664785+1042459346+1042314237
1850+1042355669+1042445174+1042116459+1041303131+1040536215+1040194158
1838+1040117230+1040060476+1040055114+1040053645+1039800582+1039227230
1827+1038563161+1038002642+1037568399+1037269753+1037049312+1036822295
1815+1036606387+1036361750+1035975323+1035487327+1035129820+1034966708
1803+1034755906+1034323770+1033859075+1033690792+1033696984+1033286426
1792+1032283173+1031315223+1030838463+1030611893+1030310310+1029902050
1780+1029516007+1029359661+1029467680+1029380090+1028566443+1027199491
1769+1026081772+1025698154+1025704602+1025501270+1024948922+1024365803
1757+1024109548+1024191838+1024268000+1023972865+1023300050+1022674605
1746+1022419435+1022381449+1022288434+1022269920+1022449886+1022235765
1734+1021025797+1019445170+1018525101+1018240564+1018124630+1018149464
1722+1018485456+1018774207+1018144676+1016401575+1014665561+1013816354
1711+1013684843+1013717721+1013623875+1013523390+1013371003+1012626112
1699+1010917549+1008685558+1006707908+1005522390+1005176183+1005380090
1688+1005453378+1004315230+1001697068+999176007+998032943+997614022+996816846
1674+995543420+994230476+992845457+991464970+990579630+990070630+989399092
1661+988827017+989189759+990189118+989989872+987681528+985428852+984591201
1647+983838458+982528962+981820971+982385449+983519256+983971502+983248508
1634+982398408+982521812+983392788+984303217+984965051+985534827+986333855
1620+987423038+988373048+988925332+989577845+990761001+992138743+993229968
1607+994002566+994653228+995275864+995864027+996401436+996868940+997276753
1593+997675054+998067289+998401750+998651238+998817734+999011809+999486017
1580+1000106993+1000116952+999312626+998682456+998617722+998333121+997566525
1566+997199761+997893580+999021449+998783771+996187762+993275933+991899532
1553+991510552+991277088+991175964+991458522+991991527+991856185+989961016
1539+987046506+985260952+984696091+983987206+982928603+982202546+981829653
1526+981369427+980381240+978507650+976128059+973997894+972289331+971090854
1512+970609943+970261757+968292023+963991153+959817709+957609339+956025648
1499+953071174+948425630+943460244+938684720+932800926+925373404+918191988
1485+912748246+908704653+905189660+902007531+899125261+895595265+889964662
1472+882508221+875510665+869837480+864191172+857787205+851403476+845645702
1458+841059912+839737904+842863917+848407761+853821115+858110366+861512872
1445+864318534+866536863+868067119+868640216+868040051+866821592+865807869
1431+864951385+863951515+863043129+862607098+862682430+862935430+862975330
1418+863004058+863683959+865093557+866785841+868462547+870049303+871448367
1404+872602348+873520502+874016351+873664653+872074706+869155217+865237135
1391+860355189+853794813+845760871+838465307+834239897+834252984+838479161
1377+845698754+854444517+863868969+873587279+883145285+891499004+897474218
1364+900643196+901430924+900982572+900283519+899522349+898548526+897287038
1350+895742673+894068839+892652857+891822931+891392837+890812719+889923165
1337+889159378+888927126+889205662+889796953+890642073+891761580+893160261
1323+894812708+896621501+898478110+900385983+902401108+904501460+906625816
1310+908763131+910895084+912927127+914777544+916460251+918003276+919381145
1296+920546936+921509267+922288696+922812699+922950913+922554272+921490945
1283+919676471+917171562+914370050+912015740+910963011+911732927+914232346
1269+917901259+922043485+926076224+929625947+932562801+934917557+936767335
1256+938169400+939135179+939674503+939795673+939498878+938812210+937783165
1242+936494864+935110547+933922412+933298243+933563309+934837501+936857542
1229+939142904+941352231+943319221+944927043+946170975+947148820+947911969
1215+948480979+948887579+949176521+949384641+949520430+949599720+949623915
1202+949569459+949487808+949380939+949255747+949066141+948848062+948651816
1188+948438781+948161266+947805483+947367154+946850940+946279504+945620734
1175+944813343+943824773+942642831+941296435+939797396+938118072+936267847
1161+934326075+932411563+930657865+929126778+927716861+926356101+925037093
1148+923605598+921898950+919945239+917831417+915586658+913253543+910881550
1134+908509110+906156014+903789447+901422880+899067038+896615500+893944031
1121+890911863+887257761+882636540+876659666+868777217+858292758+844527217
1107+826877302+805107887+779747637+751957618+723157259+695178655+670663653
1094+652771846+644153317+645813680+656581783+673555244+693175022+712085085
1080+727438147+736861386+738477380+732065561+721096425+712141903+709405380
1067+709439854+703097749+682595632+646039675+597412632+544678220+497539330
1053+464991886+453164670+464309112+496823359+545651277+603395380+662303295
1040+716151404+761179057+796269938+822473585+841732344+855594029+864623181
1026+868322226+865268927+854408256+838349054+825245283+823642440+834425737
1013+851129281+867385112+880844857+891633516+900308417+907184165+912328878
999+915922203+918274534+919596862+920081220+919883633+919027788+917440266
986+914951573+911216202+905633671+897104071+883721509+863340944+835987084
972+807330111+788373061+788103080+805869185+832707151+859245003+880668529
959+896256525+907065613+914316679+919032959+922072085+924033137+925259066
945+926010852+926446116+926606547+926633807+926605015+926442541+926076480
932+925502490+924818375+924092637+923290289+922310210+921092708+919639507
918+917924688+915964338+913779461+911292364+908443993+905453832+902720182
905+900433288+898329808+895676853+891657009+885484528+876148814+862486503
891+843734382+820351080+794268922+768662503+748661534+741986308+754615170
878+783607624+818055632+847989861+869554922+883406967+891637346+895970583
864+897415357+896922445+895841434+895686301+897228879+899771518+901957097
851+903224522+903839242+904016208+903828134+903414192+902859099+902159663
837+901297050+900298649+899272668+898275097+897206471+895988395+894615186
824+893141300+891647561+890057039+888209368+886012042+883478277+880564342
810+877157941+873480537+870265530+868475252+868512981+869800261+871371503
797+872613456+873354708+873548528+873294059+872781676+872034487+871032765
783+869921366+868820693+867619151+866287630+864969005+863640037+862183261
770+860766449+859657285+858725277+857645543+856185575+854315368+852357316
756+850767433+849869133+849655332+849737814+849673399+849265841+848578917
743+847769611+846916256+845984057+844947096+843849806+842805248+841873368
729+840961024+840019376+839109522+838001634+837243400+836007193+834502856
716+833586490+833045378+832310382+831355073+830383549+829497698+828699054
702+827923583+827077505+826149839+825242730+824437063+823679021+822871694
689+822031426+821297388+820750211+820268215+819718932+819093295+818146540
675+816244669+814548491+817273841+822594371+820224676+813015298+811473741
662+814307365+816011970+815949853+815506864+815281635+815404145+815722326
648+815859200+815802509+815878096+816212238+816679039+817170547+817613919
635+817998367+818373430+818754685+819130642+819547392+820154196+820898768
621+821629422+822111482+822275169+822532893+823151698+823974858+824748285
608+825408779+826130112+827054778+828096463+829012064+829718395+830514805
594+831608967+832751648+833757518+834794033+835868851+836777876+837532023
581+838357928+839373694+840420422+841358494+842254368+843219445+844249447
567+845216375+846085627+846953347+847924297+848952959+849875964+850632474
554+851360128+852301903+853368103+854314155+855188067+855990351+856775844
540+857799718+858942080+859809161+860358189+860892598+861620252+862415896
527+863139655+863993650+865069745+866163141+867115641+867948440+868754937
513+869553709+870422450+871412489+872263419+872815766+873268970+873755754
500+874290226+874884645+875473574+875938907+876113128+876001790+875854765
486+875870406+876077505+876462207+877136618+878063837+878948347+879459965
473+879348946+878873654+878698603+879135336+880012121+881114136+882549206
459+884334378+885860676+886625613+886803281+886735291+886714543+886538981
446+886022384+885552071+885073970+884407092+883708932+882827998+882117772
432+882939144+885719525+889384799+893096101+896547446+899485960+901885468
419+903945217+905939977+908238043+910939900+913025505+913543507+913339920
405+914231133+916480616+918308305+918609760
##END=
