##TITLE=13
##JCAMP-DX=4.24
##DATA TYPE=INFRARED SPECTRUM
##DATE=16/11/2015
##SAMPLING PROCEDURE=Instrument type and / or accessory
##ORIGIN=Default
##XUNITS=1/CM
##YUNITS=TRANSMITTANCE
##RESOLUTION=4
##FIRSTX=3996.3359
##LASTX=399.24785
##DELTAX=-1.9287336
##MAXY=0.67308038
##MINY=0.067130208
##XFACTOR=1
##YFACTOR=6.2685496e-010
##NPOINTS=1866
##FIRSTY=0.16272198
##XYDATA=(X++(Y..Y))
3996+259584733+259716355+259734516+259722583+259763493+259798960+259832501
3983+259940494+260124437+260328347+260498264+260637683+260763623+260833535
3969+260831823+260862179+261000837+261159701+261285118+261390473+261482040
3956+261607243+261724459+261787501+261823871+261842959+261826391+261770172
3942+261858934+262108865+262296040+262351618+262229980+262074159+262134348
3929+262308544+262405270+262458636+262542549+262562731+262537795+262569624
3915+262700319+262850578+262971859+263056366+263002167+262823502+262771372
3902+262889729+262990686+263122046+263194120+263081183+262982746+263154613
3888+263220150+263025106+263083417+263121047+262986288+263052348+263067110
3875+262952105+262910291+262831204+262965821+263128868+262971764+262885070
3861+262934847+262992468+262883715+262486306+262443660+263104598+263432119
3848+263197781+262895886+262816894+262933682+262980250+262976732+263104312
3834+263141110+263034235+262997318+262968008+262997555+263105073+263001288
3821+263086341+263406612+263314641+263257709+263341978+263165785+262826046
3807+262612746+262708948+262592041+262453169+262797781+262991113+262918968
3794+262849199+262720311+262612294+262552081+262480815+262437385+262392409
3780+262287792+262268656+262297657+262281445+262227318+262131282+262145711
3767+262144071+262080031+261991387+261750964+261615991+261732874+261789141
3753+261571895+261458625+261787430+261970706+261463926+261214066+261438134
3740+261239596+260732150+260383829+260322665+260357752+260372062+260117662
3726+259745142+259605390+259583544+259503863+259299097+259045861+258701510
3713+258272367+258021817+257866281+257497160+256827570+255966074+255161962
3699+254414379+253493787+252466154+251414202+250303987+249277447+248665692
3686+248347276+247924241+247481762+247113117+246616938+246104976+246092211
3672+245952126+245399562+245237323+245230976+244958676+244617130+244393798
3659+244192551+244009916+244068179+243992824+243497501+243083358+242900889
3645+242635102+242158202+241662142+241265257+240883109+240436446+239964538
3632+239371112+238541707+238004143+237717746+237128384+236202182+235181134
3618+234445935+233877301+233046233+232065928+231110583+230198478+229352385
3605+228375361+227227088+226138434+225146742+224062747+222918729+221920619
3591+220951986+219774165+218578017+217519338+216347793+215040633+213821355
3578+212717558+211606559+210442501+209244309+207949819+206598990+205442350
3564+204393108+203182887+201900806+200665126+199421696+198081113+196673685
3551+195328491+193998629+192659805+191427976+190232161+188941830+187573055
3537+186170548+184781899+183405778+182016025+180644420+179286413+177915771
3524+176595656+175376140+174170055+172928254+171686275+170441978+169179709
3510+167901063+166611446+165241612+163788472+162443801+161273979+160164168
3497+159021945+157806316+156580644+155398342+154186481+152935944+151722181
3483+150514527+149274592+148050441+146848611+145670969+144531230+143340822
3470+142067738+140835065+139731352+138688374+137621755+136547827+135465115
3456+134329203+133165051+132045779+130999414+130003955+129070931+128208900
3443+127343744+126371200+125262292+124199037+123363001+122635159+121822026
3429+120941786+120103443+119338043+118609750+117869559+117103172+116339400
3416+115614030+114944190+114315261+113710234+113150099+112641143+112096031
3402+111491004+111004096+110703235+110388099+109887344+109324214+108992889
3389+108871073+108656062+108285027+107984380+107854695+107753026+107592272
3375+107421131+107251570+107107183+107090496+107217827+107396432+107589420
3362+107822497+108110736+108416780+108667484+108848146+109038091+109314646
3348+109658950+110020202+110403372+110854896+111395027+111999876+112628925
3335+113217633+113741945+114255072+114817596+115463415+116200635+117002560
3321+117793146+118513904+119217000+120002106+120859739+121693268+122471137
3308+123231997+124064349+125065918+126165970+127185367+128105626+129048372
3294+130069849+131156091+132290957+133432633+134566988+135711077+136844326
3281+137974842+139147695+140355646+141571072+142823915+144142474+145481500
3267+146834159+148260556+149735197+151179969+152607852+154080532+155602443
3254+157142467+158690145+160246524+161834661+163471731+165149154+166868675
3240+168622260+170379554+172134934+173939925+175845303+177785647+179651873
3227+181465659+183315756+185228479+187182397+189180851+191216376+193245827
3213+195277525+197329702+199382794+201422456+203466645+205522293+207563535
3200+209609602+211673023+213705232+215689922+217689018+219751844+221832143
3186+223868939+225882084+227903596+229920496+231931810+233944170+235924819
3173+237877798+239830516+241737331+243560662+245355657+247181602+249021406
3159+250826076+252571960+254298993+256047444+257768367+259428413+261059053
3146+262656984+264212959+265750701+267270020+268755037+270224104+271684399
3132+273102262+274457274+275773230+277058545+278283195+279479866+280707416
3119+281930617+283091774+284189485+285250755+286295219+287319025+288299116
3105+289229263+290122708+290974648+291769156+292516597+293282223+294089735
3092+294853150+295522645+296127387+296721979+297351087+297958348+298457356
3078+298883647+299305302+299726506+300116189+300432751+300676288+300881268
3065+301052469+301190581+301290230+301320610+301282766+301216206+301127515
3051+300979420+300742206+300395169+299941303+299435450+298898765+298253636
3038+297459199+296564138+295580196+294465226+293203089+291802697+290280121
3024+288612588+286736010+284655664+282409632+279958121+277237210+274219157
3011+270877054+267185584+263106785+258563018+253493122+247889773+241723591
2997+234888152+227250669+218560617+208494253+197215695+185254283+172784248
2984+159813339+146830236+134954793+125554763+119561410+117237503+118397115
2970+122341417+127977914+134518768+141927036+150582454+160472720+170738002
2957+180004758+187013098+191145312+192534733+191579483+188577844+183937768
2943+178559712+173893571+171234751+170903034+172361903+174787265+177550561
2930+180577397+184107436+188208331+192720850+197370482+201801917+205656719
2916+208600772+210358280+210939560+210619170+209617970+208125488+206369241
2903+204575553+203163514+202370812+201716982+200610974+198934919+196778255
2889+194106135+190753240+186860189+183157903+180816703+181102767+184633020
2876+190866213+198652314+207146491+215990819+224933704+233689603+242045502
2862+249863005+257059768+263680196+269904879+275958409+281939602+287715055
2849+293075057+297919411+302230409+306037859+309451300+312604635+315610350
2835+318527945+321346128+324089932+326804329+329471042+332053985+334495797
2822+336737241+338809291+340774370+342613817+344326040+346015206+347753578
2808+349549428+351428455+353369335+355274866+357084005+358789240+360349185
2795+361708737+362873317+363892298+364817025+365665328+366402571+366992813
2781+367472114+367924268+368369718+368747753+369018271+369202950+369325563
2768+369409618+369491938+369563799+369614527+369680207+369752495+369786536
2754+369810212+369907769+370074905+370216678+370318443+370450088+370661962
2741+370967898+371352375+371810829+372370287+373028704+373715077+374372140
2727+375006073+375623865+376267901+377031650+377959182+379028439+380153797
2714+381195004+382069930+382817681+383498515+384124104+384734575+385410060
2700+386153817+386887423+387566070+388195416+388774176+389301518+389782388
2687+390213600+390591254+390912738+391199301+391518359+391928224+392432223
2673+393013574+393646129+394281369+394882783+395448945+395967468+396421928
2660+396863385+397329802+397771924+398147107+398467900+398793306+399172672
2646+399567751+399917665+400234299+400548270+400845602+401111365+401353547
2633+401588645+401835344+402091028+402319328+402505742+402718020+402992674
2619+403260624+403488068+403701058+403871451+403945950+403976568+404081732
2606+404268099+404449189+404573703+404638409+404686284+404771005+404872556
2592+404956041+405049842+405167130+405268871+405340756+405410881+405506299
2579+405637469+405797117+405981583+406170422+406298216+406366012+406460669
2565+406586562+406685879+406758001+406815147+406862785+406903909+406916128
2552+406910137+406931579+406982640+407040642+407150418+407384232+407718457
2538+408090002+408480042+408865945+409238251+409642554+410085841+410504501
2525+410878662+411237608+411592657+411949179+412309267+412676058+413047651
2511+413409070+413779522+414186201+414598919+414998182+415417793+415869162
2498+416341783+416827193+417287501+417701835+418108895+418548569+419015390
2484+419480309+419915799+420318390+420742613+421216898+421669218+422083505
2471+422526507+422969842+423383985+423839776+424337405+424822672+425300808
2457+425750324+426160141+426575616+426984007+427352415+427694104+428019628
2444+428317245+428577065+428823716+429079780+429319681+429512608+429670355
2430+429816311+429943012+430044373+430120013+430171074+430224987+430301055
2417+430400704+430541954+430746482+431041912+431447165+431879280+432226198
2403+432521248+432834363+433169444+433531433+433915672+434284556+434609509
2390+434880692+435080989+435205979+435287562+435364866+435428383+435470221
2376+435530600+435587889+435529744+435371189+435237737+435165805+435251335
2363+435419112+435479539+435815142+436765852+437802424+437949901+437119807
2349+436620039+437513079+439075234+439840861+439708502+439572197+439815948
2336+440282769+440618991+440830888+441183559+441618146+441949613+442296912
2322+442746332+443116642+443320552+443511816+443846278+444277870+444687355
2309+445045350+445393172+445743847+446086724+446427842+446750038+447043709
2295+447312040+447562399+447812758+448050376+448238550+448387454+448541539
2282+448693628+448805115+448885938+448974795+449069024+449135869+449162160
2268+449153032+449112526+449059563+449061180+449172620+449362505+449596272
2255+449890180+450258541+450714427+451258124+451735642+452143320+452484628
2241+452796270+453098213+453386274+453664113+453944805+454220742+454510467
2228+454843170+455174732+455452666+455684579+455907411+456171843+456473501
2214+456735889+456924823+457083615+457282201+457516681+457731811+457965008
2201+458281309+458666071+459085302+459504010+459882782+460220952+460543339
2187+460860305+461169713+461488153+461852710+462243795+462600365+462929883
2174+463261921+463578079+463876124+464174786+464463227+464748578+465073294
2160+465451923+465837161+466170387+466457783+466717888+466935110+467112349
2147+467303993+467560533+467847453+468114785+468360485+468612414+468929048
2133+469325125+469777208+470272887+470770516+471244325+471720464+472210153
2120+472695278+473163288+473613801+474055615+474492864+474911857+475308268
2106+475680574+476011566+476310656+476632615+476996744+477361395+477726142
2093+478117751+478508599+478865073+479196730+479522968+479823675+480071942
2079+480299672+480546418+480803053+481045948+481276720+481511485+481743683
2066+481979162+482292896+482664394+483045020+483466390+483908061+484328385
2052+484733115+485142267+485560785+485974643+486326696+486587990+486832645
2039+487087283+487330558+487603881+487912195+488252457+488641974+489073280
2025+489519563+489962327+490384696+490748587+491092700+491522723+491960448
2012+492300996+492600372+492903361+493195938+493482240+493792313+494102623
1998+494375042+494602771+494733894+494838916+495106581+495375482+495559424
1985+495717360+495845821+496009129+496206574+496410389+496620195+496848066
1971+497092055+497260499+497391716+497665847+497961800+498160290+498332965
1958+498473216+498542485+498582754+498603292+498554704+498411125+498161098
1944+497703263+497255792+497017984+496647199+496093945+495526097+495010449
1931+494637287+494539207+494841198+495512832+496648435+498162334+499504795
1917+500944338+502509251+503713790+504684373+505600947+506499312+507300547
1904+507990771+508657461+509311362+509863142+510307047+510848795+511358024
1890+511684690+512232285+512853192+513274657+513668833+514031726+514376980
1877+514767638+515234601+515704180+515859454+516025473+516723018+517413622
1863+517768480+518068426+518447911+518871564+519291888+519691293+520071254
1850+520437427+520799417+520802269+520954738+521799951+522355819+522523074
1836+522912448+523456906+523736361+523906374+524547438+525055051+525343492
1823+525906539+526321776+526524831+526860624+527360535+527732366+528007257
1809+528439277+528918601+529296090+529477179+529616147+530074600+530720942
1796+531047037+530881969+530991412+531750572+532204842+532161435+532282717
1782+532547006+532787429+533220019+533570503+533455878+533362077+533896028
1769+534331661+534621813+534812839+534668833+534919905+535468785+535866384
1755+536468606+536783576+536800311+537360458+538128271+538590480+538795579
1742+538877495+539232638+539845320+539371700+538731111+539482712+540094776
1728+540067629+539981387+540011576+540260224+540056219+539239912+539087301
1715+539556499+539755607+539621394+539333476+539033958+539133417+539064860
1701+538098795+537917039+537821003+537113759+537014966+536587272+535910265
1688+535231405+533687886+532557180+532752913+532492475+531338188+529996487
1674+529519825+529274363+528397392+528134529+528393826+527948304+527407222
1661+527637518+528164766+528196809+527131094+527007816+529126505+529744369
1647+528820331+529090943+530135835+530759166+531178112+531390532+532176934
1634+534212566+535858729+536572011+537489061+538735343+539886444+541444891
1620+542903831+543444058+544515621+546708619+548360630+549357123+550464818
1607+551697883+552818891+553835494+554847011+555774092+556534679+557221337
1593+557911085+558538219+559070316+559535093+559943056+560360243+560871611
1580+561153491+560689951+560606323+561577333+561641896+560858156+560897664
1566+561260177+561477494+561079800+559401118+558921413+560175397+560232923
1553+559445523+558715981+558244168+557860832+557275678+556411781+555048639
1539+554503801+554866551+553852372+552151773+551423182+550645338+549336775
1526+548223327+546954414+545291231+544214534+543019550+541410328+539977631
1512+538512843+536596638+533448081+530340411+528743977+526728075+523160716
1499+518628621+513741621+508946330+503250678+495761480+487666067+480345503
1485+474017486+468269299+462989882+458389326+454215322+449704907+443899621
1472+437270232+431074669+425330237+419841395+414655970+409375650+403996821
1458+401133995+404467017+412670115+421339891+428893699+435480252+441187838
1445+445538462+448369815+450159224+451098333+451855354+453183790+454004803
1431+453868784+453757487+453966674+454266430+454851727+455424711+455977061
1418+457414512+459098519+460264549+461401626+462867364+464528075+466257390
1404+468351357+470556859+472020791+472265683+470422789+466898645+463463026
1391+459347500+452833496+445052387+438786603+436108528+438423045+445727635
1377+456242396+468051316+480380589+492582210+503910522+513774045+521013453
1364+525142910+527172123+527996417+527977923+527571957+527026833+526221176
1350+525051533+523855361+523278716+523645365+524471846+525147711+525891468
1337+526975440+528335586+530030528+532168186+534754267+537690356+540892351
1323+544297305+547824587+551459980+555212233+558962300+562638580+566298220
1310+569818513+573050935+575991826+578644418+581050597+583255766+585251558
1296+587013344+588567275+589940495+591076764+591830409+591988536+591301213
1283+589628854+587112851+584248409+581913020+581163654+582712497+586500597
1269+591723391+597379440+602767778+607489282+611336430+614316401+616537925
1256+618071222+618877259+618895515+618382008+617618711+616194762+613524008
1242+610280081+607859924+606461648+605749080+606338988+608937240+613391317
1229+618943914+624744445+630192068+634994870+639177384+642892411+646160063
1215+648958421+651382238+653511624+655338449+656915485+658363491+659750309
1202+661069901+662298878+663411708+664441624+665447625+666388731+667197051
1188+667870111+668413666+668804799+669023448+669112970+669097662+668902785
1175+668456122+667738894+666721007+665349117+663601355+661557498+659360364
1161+657139506+655061038+653247573+651659697+650177128+648657856+646953882
1148+644909930+642424307+639534477+636341372+632933518+629420214+625957400
1134+622642016+619440687+616301353+613205996+610113396+606876743+603206691
1121+598733074+593031764+585578746+575788533+563071122+546801042+526425609
1107+501746857+473405375+443215340+413570049+386334099+362532460+343204439
1094+329953077+324364799+327229836+337766087+353356974+370525467+385832643
1080+396033624+398176227+390156192+372775540+352032888+336727186+331418982
1067+332259844+329481502+314067640+284285806+246576836+210319651+182400763
1053+166182683+163534678+175839015+203694683+246335415+300831372+361877180
1040+422878750+478365115+525281782+562447791+589798438+607671846+617113523
1026+618127322+606545751+579026138+542717702+515345613+512342346+534100413
1013+568523071+603852985+635304087+662550188+685891757+705124313+719958036
999+730547487+737464604+741343463+742686067+741770919+738679270+733329585
986+725451204+714484882+699296111+677697265+646280393+602104463+547269669
972+493623203+460236451+461120173+495029086+548427189+605980897+657657055
959+699472922+731212085+754405939+771075567+782975673+791471966+797620842
945+802111670+805385264+807847591+809740833+811082010+811906114+812350923
932+812475674+812202019+811489641+810382753+808866144+806816487+804144117
918+800783139+796579089+791460746+785541025+779071759+772569404+766864480
905+762639464+759640808+756316391+750378081+739743417+722739231+698247797
891+666645033+630410526+593609501+560787936+537720498+533426116+555958225
878+602433410+658033402+707564247+744140158+767957057+781854619+788359019
864+789143709+786145720+782708151+782983993+788789517+797716546+805918978
851+811618861+815096794+817071809+818019904+818262371+818013153+817377128
837+816531249+815571174+814362926+812816365+811083056+809366483+807572510
824+805537971+803232345+800596012+797610668+794135494+789882379+784693103
810+778678059+772461625+767311856+764735998+765464303+768609770+772276589
797+775086072+776628354+776992198+776538641+775608993+774358432+772837877
783+771132999+769377203+767448637+765148002+762526550+759763421+757153807
770+755032027+753473533+752164067+750526747+748031663+744497440+740425986
756+737263356+736455370+737839145+739908342+741469641+742198660+742219864
743+741805910+741146589+740288303+739277879+738158441+736984994+735815874
729+734675184+733601767+732578317+731582965+730517583+729237070+727812123
716+726513211+725373519+724250135+723130554+722075679+721132053+720321023
702+719560056+718731056+717885701+717164574+716577946+716050413+715545035
689+715048595+714619428+714363173+714266281+714184366+714002135+713587753
675+712585793+711311080+711920291+714907726+716019320+714045826+713059507
662+713956589+715035331+715849831+716714156+717627829+718544071+719545841
648+720600431+721667478+722835837+724145446+725602152+727180186+728733261
635+730199713+731743944+733553464+735587099+737570767+739592516+741702077
621+743829704+745962941+748031996+750098435+752344444+754774869+757379301
608+760105870+762813755+765515982+768325227+771334817+774523881+777713705
594+780741123+783665422+786587058+789289523+791944873+795148246+798775985
581+802282823+805585704+808763262+811973529+815333461+818819761+822155636
567+825183720+828174435+831242740+834335387+837496115+840650377+843818807
554+847266693+850989755+854683911+858225075+861706525+865036695+868124778
540+871303477+874649526+877853613+880944073+884062868+887152853+890128545
527+893126772+896318498+899156602+901557314+904227877+907303979+910303253
513+912918952+915457727+917883257+919943753+921915916+923920408+925956372
500+927479638+928157500+928315912+928051766+927762706+927552663+926927763
486+926063819+925760592+926484856+928053667+930016321+931585418+931857742
473+931177978+930293970+929225307+929067561+931010342+935509490+941946094
459+948605293+955519035+961545536+964452862+965472936+965767130+965259280
446+963891384+961756055+959642596+957700575+955577227+954538516+955723848
432+958957887+964790319+973208214+982926685+993409166+1003901630+1012772796
419+1021803040+1030767865+1036558365+1040885123+1045602587+1050539887
407+1056238535+1062850476+1068808421+1072364704+1073741823
##END=
