##TITLE=13
##JCAMP-DX=4.24
##DATA TYPE=INFRARED SPECTRUM
##DATE=16/11/2015
##SAMPLING PROCEDURE=Instrument type and / or accessory
##ORIGIN=Default
##XUNITS=1/CM
##YUNITS=TRANSMITTANCE
##RESOLUTION=4
##FIRSTX=3996.3359
##LASTX=399.24785
##DELTAX=-1.9287336
##MAXY=0.66242796
##MINY=0.067360975
##XFACTOR=1
##YFACTOR=6.1693412e-010
##NPOINTS=1866
##FIRSTY=0.16545212
##XYDATA=(X++(Y..Y))
3996+268184428+268317248+268410239+268516249+268679214+268743535+268691049
3983+268714913+268863940+269021784+269139267+269275589+269438336+269563113
3969+269627628+269714484+269869260+269992298+270087391+270193256+270243616
3956+270298566+270430396+270567008+270660748+270793062+270917428+270871222
3942+270839799+270939601+271021748+271065055+270996290+270911003+271038631
3929+271238429+271302436+271335043+271472332+271537330+271474458+271447092
3915+271514287+271562208+271615950+271725800+271713313+271556532+271571169
3902+271815361+272063974+272295462+272326668+272050472+271780822+271863813
3888+271934245+271804251+271925091+271964582+271835167+271972601+272019483
3875+271822173+271680536+271593704+271808526+272052839+271936105+271895938
3861+271996223+272018324+271767803+271269104+271292871+272043105+272325509
3848+272008010+271663822+271559430+271622568+271547426+271443686+271640127
3834+271835385+271829298+271861712+271878475+271860335+271852534+271635272
3821+271635562+271904778+271804444+271819009+272016029+271899319+271563029
3807+271390307+271599163+271569430+271417818+271634620+271644547+271488564
3794+271455884+271358859+271227512+271116260+271008101+270994985+271050539
3780+271079305+271187538+271231449+271041819+270735117+270486601+270486263
3767+270509958+270496987+270525899+270416169+270357307+270474887+270472882
3753+270171832+269936721+270068599+270050677+269526279+269484204+269865371
3740+269604054+269005818+268742472+268845801+268948864+268984515+268811020
3726+268519244+268319470+268133826+267953568+267719133+267396103+266941630
3713+266450540+266190092+266012732+265603426+264894711+264002382+263161161
3699+262322477+261270710+260158245+259054016+257826652+256654600+256008806
3686+255752320+255363568+254898056+254446433+253784649+253147768+253215833
3672+253256652+252798097+252597018+252512312+252234859+251899608+251579742
3659+251261108+251075440+251166064+251020635+250433414+250059033+250030919
3645+249908001+249477488+248933477+248441155+247936200+247349897+246779824
3632+246193907+245475676+245043690+244703245+243963252+242999428+242089805
3618+241458237+240852127+239887555+238817431+237822400+236869687+236049214
3605+235141910+233956935+232731166+231656066+230569832+229375414+228226428
3591+227098191+225822883+224596026+223583001+222519930+221305247+220097400
3578+218925082+217682212+216350022+215000489+213629074+212275218+211092780
3564+209960026+208685007+207353372+206012535+204629043+203217025+201864848
3551+200615010+199280223+197811082+196398726+195061403+193704685+192306930
3537+190885940+189492073+188110392+186718422+185357079+183986050+182541872
3524+181091377+179712051+178356070+177013699+175737195+174488455+173166144
3510+171752713+170378810+169067863+167710698+166364740+165103212+163872297
3497+162667107+161506359+160334536+159095591+157834074+156612097+155368369
3483+154046601+152734398+151498097+150273825+149025448+147822649+146636201
3470+145373694+144136572+143030894+141915664+140700135+139519147+138437200
3456+137361086+136264332+135194909+134132997+133025339+131920361+130918531
3443+129979948+128965353+127842792+126772704+125876969+125057825+124236591
3429+123468266+122750917+122023762+121260859+120473163+119705768+118975642
3416+118239984+117490125+116786797+116164009+115592536+115037499+114455893
3402+113827671+113256040+112828365+112447379+112001661+111569034+111318248
3389+111178507+110916139+110525032+110203560+110021575+109909273+109830702
3375+109751369+109579650+109322535+109186659+109319020+109615035+109918874
3362+110193368+110454492+110680557+110855212+111002404+111171297+111451020
3348+111873067+112353699+112806047+113201465+113574541+114037867+114643772
3335+115288008+115921049+116583871+117231863+117853225+118560007+119367244
3321+120156570+120895054+121648343+122458430+123310314+124151595+124959604
3308+125786550+126707284+127720889+128739239+129696651+130617095+131558927
3294+132557750+133666906+134913133+136169795+137309542+138379823+139492505
3281+140698469+141960674+143230946+144505494+145761081+147034409+148453528
3267+149999175+151505730+152936648+154375754+155847382+157341039+158879561
3254+160473178+162078750+163654855+165262601+166979014+168767839+170555373
3240+172326747+174115428+175949408+177835838+179776360+181704757+183567843
3227+185479827+187494295+189489996+191454261+193488789+195570790+197629338
3213+199695640+201801457+203911320+205968914+208006557+210121661+212295241
3200+214444353+216558878+218671011+220797950+222952255+225121680+227241953
3186+229280370+231303448+233378602+235475325+237521374+239516242+241533306
3173+243599403+245642263+247602664+249500072+251386803+253288124+255171620
3159+257026034+258870811+260658610+262365301+264077065+265840759+267604380
3146+269321119+270978488+272561369+274091425+275638461+277184700+278630895
3132+280001054+281405126+282841901+284228847+285549323+286857987+288173246
3119+289445825+290638021+291768794+292860874+293911651+294939796+295977457
3105+297008332+297952857+298795430+299630298+300482001+301321241+302154709
3092+302939337+303628535+304259499+304881164+305492684+306090122+306657659
3078+307168917+307641337+308074531+308431763+308728272+309008308+309261075
3065+309437058+309537658+309609829+309671614+309686275+309606785+309431286
3051+309189798+308920679+308618639+308216989+307687301+307061700+306357140
3038+305567294+304652671+303569987+302347986+301021037+299540061+297861605
3024+295991805+293964644+291810218+289466935+286843181+283931034+280752762
3011+277253852+273359837+269041445+264251961+258948755+253123059+246702267
2997+239563486+231634449+222637148+212168024+200486525+188227320+175483256
2984+162190219+148919945+136895344+127441830+121368572+118950281+120172934
2970+124356634+130193212+136860285+144483551+153447906+163658285+174230894
2957+183732316+190879080+195120616+196581798+195618143+192526486+187750661
2943+182276605+177522856+174736525+174351698+175856163+178303886+181055219
2930+184126225+187761675+191960351+196525315+201200975+205677453+209616200
2916+212676868+214496139+214994861+214565459+213549367+212049503+210201054
2903+208272537+206789604+206013815+205372297+204220968+202502696+200354912
2889+197690507+194313536+190390791+186654476+184282342+184571242+188175680
2876+194553430+202519857+211239947+220352002+229579850+238618985+247198864
2862+255175508+262550680+269417902+275935091+282294677+288569775+294596719
2849+300127983+305074416+309511258+313495100+317081905+320381282+323481224
2835+326468054+329423872+332382877+335308913+338109060+340737114+343234907
2822+345611328+347803072+349813808+351686893+353463171+355258433+357139465
2808+359054287+361001548+363041800+365097003+367008493+368756293+370381394
2795+371855100+373132340+374228043+375199693+376052145+376766631+377395615
2781+377976653+378473613+378909246+379313046+379607285+379778171+379922489
2768+380052749+380114026+380135596+380181463+380256001+380346021+380422564
2754+380457852+380521014+380686273+380882786+381009834+381106303+381275523
2741+381555294+381947355+382455039+383074699+383792156+384532487+385204923
2727+385818544+386439170+387108490+387877443+388828924+389962330+391143054
2714+392247403+393220116+394041530+394731815+395362996+396031229+396738445
2700+397429068+398130319+398877896+399630425+400311531+400872232+401344676
2687+401797773+402242126+402642882+402981877+403288072+403644941+404116926
2673+404703689+405367284+406024889+406631868+407234790+407852686+408436382
2660+408929887+409339532+409732365+410107181+410441852+410809421+411223124
2646+411605282+411954639+412315783+412677797+412998411+413274825+413547857
2633+413814657+414027208+414195365+414369126+414572258+414811523+415058614
2619+415266625+415443235+415651246+415886598+416050505+416151370+416301025
2606+416492418+416652653+416765160+416826800+416849263+416872595+416922642
2592+417007662+417120556+417228281+417319678+417421751+417538171+417659664
2579+417802121+417958492+418110321+418269638+418424076+418526245+418588368
2565+418682857+418828503+418962169+419014872+418991105+418944827+418898838
2552+418876086+418909176+418994052+419110086+419260031+419480408+419776917
2538+420120236+420509254+420939042+421371633+421774514+422163676+422569505
2525+422982241+423391741+423789502+424151515+424489617+424832501+425184563
2511+425558847+425955014+426348959+426758555+427215106+427696631+428168592
2498+428630118+429096379+429580223+430069092+430542308+431001419+431444637
2484+431869740+432275085+432671445+433112103+433623193+434152880+434632570
2471+435060620+435492293+435947539+436419548+436935275+437495541+438028852
2457+438491200+438921665+439354448+439765397+440140599+440501308+440827913
2444+441101234+441357890+441603870+441820335+442021147+442216115+442384514
2430+442520643+442647498+442767541+442853286+442885459+442906472+442975890
2417+443109217+443317469+443550503+443764600+444057728+444471962+444904456
2403+445302120+445683215+446046340+446395600+446749015+447103445+447454928
2390+447787377+448034565+448152821+448173979+448152628+448120890+448106108
2376+448094804+448006643+447797957+447557532+447372274+447215614+447148226
2363+447199383+447448020+448240885+449559815+450742084+450818940+449750145
2349+449016214+449777004+451254767+451942902+451832231+451844452+452182313
2336+452595145+452874409+453099424+453450182+453905960+454346811+454810269
2322+455370052+455901093+456253348+456507444+456852743+457297121+457735025
2309+458117231+458455913+458780826+459120522+459476497+459800977+460070434
2295+460301825+460531960+460788761+461042132+461236616+461362408+461465061
2282+461596698+461757754+461894994+461967986+461993879+462011560+462030158
2268+462041607+462037162+462000159+461962141+462002913+462149283+462387872
2255+462722399+463133928+463596179+464116302+464568650+464984864+465360307
2241+465690583+465977238+466260752+466587453+466936811+467262739+467569199
2228+467869718+468156083+468425057+468694611+468956677+469178020+469385016
2214+469617953+469856929+470078852+470296717+470505935+470698246+470922150
2201+471212959+471545263+471918194+472348031+472777289+473149205+473477984
2187+473788985+474106218+474451856+474830873+475218248+475569200+475893292
2174+476237867+476591379+476904747+477185363+477489940+477839394+478193630
2160+478514100+478811333+479128083+479470726+479772162+479987757+480160359
2147+480348612+480583143+480850426+481093266+481296253+481538899+481883329
2133+482290607+482723825+483194385+483697021+484210671+484734272+485264249
2120+485775919+486273531+486769838+487222186+487617145+488017756+488431121
2106+488807675+489165389+489526630+489867340+490202350+490556200+490915992
2093+491258248+491615817+492033867+492453559+492783884+493027158+493260820
2079+493529891+493793020+494021609+494248749+494485937+494725154+494981665
2066+495276484+495638256+496010849+496380399+496814438+497265482+497665465
2052+498052067+498474175+498907538+499327665+499704558+499970633+500164200
2039+500374336+500622587+500915859+501229856+501576846+501991997+502441061
2025+502873699+503302908+503743131+504144950+504526480+504967186+505379536
2012+505719714+506072067+506407463+506684408+506941209+507208347+507465003
1998+507714075+507967929+508125941+508219029+508464381+508727365+508925521
1985+509113677+509261207+509401830+509545109+509707034+509910117+510148851
1971+510398937+510585499+510768825+511078957+511349718+511517634+511677531
1958+511784869+511814530+511834432+511847234+511768590+511542947+511193493
1944+510671873+510189622+509903499+509470571+508867408+508256274+507704172
1931+507306942+507172503+507418821+508056862+509212949+510780274+512188379
1917+513727782+515401576+516673503+517704909+518703514+519651880+520460831
1904+521167130+521863864+522545284+523134728+523631760+524211011+524717898
1890+525037836+525602064+526211700+526584148+526961910+527371457+527790087
1877+528240744+528722318+529135924+529200366+529333404+530077768+530806868
1863+531151588+531444039+531835085+532258159+532672876+533093680+533521633
1850+533922244+534261891+534195807+534314449+535175138+535711685+535825207
1836+536183742+536711739+536957333+537114138+537785172+538309788+538618326
1823+539238879+539697362+539904165+540231011+540716498+541051170+541281547
1809+541700369+542196001+542588400+542757861+542865441+543317692+543986457
1796+544281613+544005345+544052734+544873424+545402629+545385914+545516392
1782+545767444+545969513+546353023+546606249+546341333+546160858+546749238
1769+547282066+547622535+547792383+547588913+547814894+548356272+548732150
1755+549317101+549583998+549520909+550056828+550880465+551417157+551649853
1742+551692750+551979308+552520058+551976071+551346677+552195772+552874342
1728+552884293+552820480+552812896+552942069+552551216+551566620+551390057
1715+551969260+552269344+552097418+551642993+551188810+551200548+551000460
1701+549835099+549549217+549493181+548907940+548920355+548483706+547682387
1688+546773682+544942213+543677194+543948197+543742650+542513379+541034745
1674+540449746+540113238+539167143+538929375+539239700+538770397+538213125
1661+538510987+539060384+538925269+537597209+537431323+539732433+540408057
1647+539468580+539867886+541096868+541796211+542147452+542240878+543100649
1634+545456733+547369792+548146088+549029191+550259622+551462953+553133752
1620+554660209+555187288+556284440+558577676+560306879+561333647+562468961
1607+563751709+564916008+565922922+566878292+567767143+568551410+569302731
1593+570053279+570714072+571260136+571730793+572122177+572485447+572902337
1580+573039095+572422889+572288305+573280244+573291451+572419749+572458636
1566+572864754+573057065+572473901+570476208+569828892+571196322+571423946
1553+570749385+570050864+569505573+568931442+568066648+566939546+565484196
1539+565079238+565590810+564549405+562761509+561992460+561151722+559711348
1526+558406814+556900066+555040434+553895120+552694350+551070940+549589215
1512+548005466+545868406+542445797+539209364+537663970+535619902+531853394
1499+527069973+521985984+517000977+511001424+503093835+494601005+486993500
1485+480455322+474521708+469061697+464277696+459901117+455150110+449069256
1472+442175972+435756001+429787654+424064128+418679621+413217001+407598736
1458+404500412+407792786+416171321+425055921+432769074+439490046+445334293
1445+449801060+452693402+454460526+455310683+456002055+457360790+458243699
1431+458102546+457920814+458049553+458270316+458781454+459303027+459808561
1418+461191594+462832201+463970124+465083990+466513833+468127243+469879247
1404+472141567+474569967+476157967+476354336+474296645+470550426+467036903
1391+462868383+456166106+448111228+441600585+438759063+441058048+448550630
1377+459410268+471632796+484403706+497059259+508835670+519094754+526627334
1364+530969566+533146141+534008085+533951083+533521343+532970786+532122271
1350+530869426+529589866+528944773+529263793+530074870+530751991+531492733
1337+532570513+533934659+535654103+537834108+540482063+543520631+546877494
1323+550443334+554067770+557758580+561592525+565460574+569295436+573130395
1310+576780483+580124303+583202289+585976037+588465593+590745352+592818115
1296+594641903+596226377+597606270+598742599+599498026+599665266+598971720
1283+597205466+594458046+591291416+588724520+587881415+589452557+593364662
1269+598770762+604595637+610126080+614965827+618876194+621877613+624115103
1256+625646681+626417035+626397036+625890825+625180662+623777871+621010210
1242+617611416+615116401+613690471+612909006+613455698+616114764+620708918
1229+626438193+632480740+638260496+643406124+647866274+651785964+655226592
1215+658221779+660825631+663056599+664936375+666571233+668096773+669539659
1202+670860714+672068441+673173950+674237770+675310671+676296330+677089147
1188+677708058+678209824+678588456+678796901+678852454+678781201+678531743
1175+678035097+677237112+676086387+674570558+672705660+670535800+668202421
1161+665890972+663725895+661769262+660040736+658479933+656903187+655089979
1148+652886352+650236174+647162004+643757027+640181913+636549699+632910094
1134+629339810+625890342+622562608+619327527+616102253+612720898+608865215
1121+604131647+598121659+590287980+579999526+566697672+549753749+528606091
1107+503116491+473960910+442993232+412688424+384900950+360572049+340755760
1094+327152204+321367521+324099072+334537110+350141620+367398138+382760122
1080+393017008+395280560+387402197+370163166+349605024+334455785+329114609
1067+329764461+326860985+311432844+281585939+243769033+207493222+179599568
1053+163342126+160585552+172699328+200246172+242510391+296719020+357775911
1040+419190903+475449640+523397422+561691748+590052000+608614453+618458385
1026+619770359+608229542+580281398+543343972+515571231+512575802+534693371
1013+569687690+605745444+638058234+666177965+690307961+710247554+725693858
999+736797593+744190517+748483041+750061091+749228372+746177583+740820321
986+732847663+721670212+706074059+683770169+651282652+605761240+549591099
972+494936160+461018461+461849972+496162388+550362564+608968689+661753514
959+704624506+737334768+761348247+778631914+790976851+799787204+806130753
945+810767320+814174519+816696442+818582932+819912731+820719074+821142148
932+821242337+820921288+820177551+819048420+817419310+815141532+812189869
918+808567317+804130209+798750871+792500990+785645917+778718094+772581589
905+768024970+764809937+761255642+754986342+743858406+726070026+700460769
891+667633266+630279046+592416441+558589077+534696124+529959802+552782559
878+600432866+657666199+708690567+746480179+771287151+785846633+792659969
864+793464766+790289199+786750846+787235270+793436796+802720317+811237928
851+817271490+821020607+823117620+824016230+824065503+823615087+822844105
837+821855741+820743711+819450335+817880353+816018693+813952403+811823314
824+809667318+807337272+804728541+801731663+797967426+793217385+787608346
810+781320641+774874101+769474281+766654931+767262442+770461775+774214612
797+777056231+778602736+778921418+778379509+777371194+776096127+774623967
783+772966259+771065566+768794310+766250504+763554386+760675377+757887668
770+755643609+754032469+752644556+750818353+748054267+744285392+740076778
756+736800636+735843913+737133086+739208699+740785395+741486284+741439715
743+740898676+740069725+739062086+737964307+736805757+735592185+734371560
729+733162480+731977361+730805961+729673062+728528666+727209978+725650430
716+724106099+722769682+721610118+720588760+719634018+718636475+717589515
702+716598059+715759109+715051119+714332261+713528865+712749719+712107862
689+711579768+711155293+710868880+710705554+710610775+710474163+710096981
675+709168034+708010160+708573518+711157612+711739375+709577534+708726121
662+709811244+710877189+711428712+712007093+712868216+713983338+715213673
648+716336910+717348559+718472424+719769423+721153374+722611718+724174647
635+725807912+727397506+728938794+730602395+732454926+734591116+736817157
621+738972477+741156877+743337075+745449160+747577572+749798107+752282205
608+755039286+757828541+760597844+763480814+766578509+769769437+772766123
594+775537503+778426125+781645603+784751124+787539750+790555951+793984551
581+797397063+800461185+803350484+806708893+810461053+814037134+817302117
567+820302280+823137330+826037787+829281321+832881363+836353004+839420410
554+842449365+845686909+849117972+852732119+856336798+859728152+862947823
540+866159861+869298376+872298153+875497245+878999223+882386133+885413155
527+888373126+891600140+894605037+897143867+899705981+902530790+905361395
513+907734628+909753963+911826146+914185177+916661594+918775708+920716302
500+922237011+922899302+923108762+923069729+922764911+922197785+921343136
486+920310715+919569104+919905032+921631336+924257699+926507555+926953720
473+925876664+924535948+923245277+922873892+924499524+928691231+935043330
459+941946807+949059550+955042196+958011056+959119609+959325204+959004541
446+958115786+955952592+953051169+950116124+947360008+945991564+946763512
432+949635468+955360057+963735259+973500644+984508005+995725310+1004438662
419+1012881590+1022318003+1028921493+1033148851+1036907629+1040829782
407+1046395441+1054429015+1063245938+1069918603+1073741823
##END=
