##TITLE=13
##JCAMP-DX=4.24
##DATA TYPE=INFRARED SPECTRUM
##DATE=16/11/2015
##SAMPLING PROCEDURE=Instrument type and / or accessory
##ORIGIN=Default
##XUNITS=1/CM
##YUNITS=TRANSMITTANCE
##RESOLUTION=4
##FIRSTX=3996.3359
##LASTX=399.24785
##DELTAX=-1.9287336
##MAXY=0.69135582
##MINY=0.067576312
##XFACTOR=1
##YFACTOR=6.4387529e-010
##NPOINTS=1866
##FIRSTY=0.16081646
##XYDATA=(X++(Y..Y))
3996+249763369+249784128+249799148+249889428+249982185+250048258+250134767
3983+250245876+250326529+250395425+250557148+250743588+250825815+250857775
3969+250939122+251034726+251093625+251155833+251191681+251230075+251369049
3956+251520589+251639451+251781756+251941119+251944683+251796753+251892287
3942+252064262+252036768+252019851+251989788+252061462+252278890+252315687
3929+252233784+252288517+252369355+252297890+252366601+252660146+252861282
3915+252769936+252675490+252678684+252560863+252545357+252874381+253087087
3902+252999723+252941194+252674333+252361232+252561164+253035270+252864360
3888+252673384+253124648+253071281+252964638+253257442+252959338+252612680
3875+252681947+252765192+253107499+252978107+252541539+252811617+253051285
3861+252839550+252342695+252242046+253408589+254343031+253210925+252125568
3848+252235589+252733972+252908748+252762184+252984587+253400720+253142908
3834+252830201+252997015+253020690+252897963+252722493+252538160+253044921
3821+253245593+252769612+253185051+253365867+252715065+252475281+252941194
3807+253325413+252809187+252860796+253434902+252951169+252580188+252696249
3794+252626311+252627515+252704187+252727029+252706270+252537882+252449893
3780+252691389+252701595+252380094+252158963+252218024+252475813+252398978
3767+252210271+252055607+251875300+252076736+252124156+251545768+251091171
3753+251534636+252097542+251506263+250829193+251683700+251925127+250653029
3740+250209171+250789295+251235398+251064603+250646156+250128148+250045180
3726+250250805+250176262+250056983+249936339+249652491+249207314+249080629
3713+249409282+249270702+248411104+247493719+246959672+246759903+246249115
3699+245286948+244371668+243400984+242406370+241800581+241488035+240661439
3686+239451990+238814541+238543514+238192066+238162836+238391558+237587873
3672+236987893+237457625+237228371+236614458+236503812+236462965+236159862
3659+235977565+235990641+235495451+235129978+235574253+235656549+234874272
3645+234055660+233730039+233563688+233226819+232770695+232235654+231533127
3632+231130833+231393552+230794011+229317122+228435561+228162938+227921372
3618+227045597+225824761+225057897+224432019+223709474+222904910+221725963
3605+220532574+219692579+218895698+217848874+216759721+215775892+214674752
3591+213601429+212910728+212069668+210652140+209305221+208328335+207388246
3578+206319552+205164303+203899102+202554938+201464790+200644813+199489194
3564+198049703+196815838+195694031+194499531+193290846+192184833+191051640
3551+189658574+188246867+187016461+185776660+184512709+183305145+182099896
3537+180860720+179549499+178237711+177033353+175851143+174552732+173197991
3524+171897451+170594724+169323598+168089363+166805636+165544612+164394409
3510+163261620+161983297+160692882+159543257+158381111+157203483+156119098
3497+155004778+153760799+152478889+151243577+150091846+149002311+147906690
3483+146753860+145496863+144266134+143197509+142153971+140998074+139774901
3470+138555674+137415896+136393175+135442012+134473804+133421923+132305763
3456+131167663+130084771+129090747+128095011+127064422+126028868+125061690
3443+124192257+123304609+122358654+121399645+120513132+119738434+118995303
3429+118212413+117427775+116702614+115998386+115249678+114487477+113816066
3416+113209594+112558340+111883411+111255648+110697926+110189939+109632090
3402+108983278+108453930+108169306+107869617+107382967+106861731+106513117
3389+106368242+106281456+106101138+105802953+105525898+105371743+105280525
3375+105174599+105058572+104974263+104952485+105034006+105229633+105466490
3362+105686463+105913044+106148176+106346812+106517179+106720894+107015110
3348+107402824+107818888+108205108+108557529+108938057+109449087+110084789
3335+110730847+111351390+111959644+112530360+113083175+113695283+114413130
3321+115206296+115995285+116739631+117479094+118254660+119042769+119801383
3308+120566060+121443247+122424299+123406832+124373350+125345388+126325479
3294+127347136+128449607+129570141+130608067+131591827+132641729+133805286
3281+134999195+136136682+137235242+138356367+139530442+140774953+142085491
3267+143428950+144819933+146275785+147734634+149137848+150502054+151890179
3254+153346864+154866290+156411868+157975717+159595571+161251055+162921442
3240+164619740+166334099+168069946+169826089+171586259+173347992+175138884
3227+176996984+178924443+180871493+182790828+184675647+186549229+188440770
3213+190349772+192312281+194329523+196316946+198265511+200220394+202171459
3200+204111739+206083818+208091467+210100829+212105423+214101686+216069483
3186+218028718+219982305+221874193+223729076+225626519+227547035+229454799
3173+231333380+233147948+234913013+236688516+238491813+240279951+242022869
3159+243743152+245470517+247162242+248772319+250350598+251935009+253496393
3146+255031788+256543090+257982442+259368611+260788707+262226346+263625290
3132+264972116+266281728+267567457+268792713+269934909+271025705+272146911
3119+273331875+274462615+275457762+276408774+277396885+278390156+279349754
3105+280249876+281093343+281906840+282689094+283454408+284180702+284840183
3092+285467565+286076247+286683055+287294028+287864039+288355363+288799893
3078+289244283+289655926+290010152+290356671+290679330+290915874+291091297
3065+291239042+291331914+291397733+291494054+291554086+291468110+291290049
3051+291122610+290932930+290647578+290254611+289787864+289255993+288640993
3038+287921757+287096596+286185459+285176982+284049112+282827373+281473535
3024+279916386+278212256+276384080+274323989+271992709+269446200+266664096
3011+263558847+260099881+256270791+252007169+247258957+241969802+236070437
2997+229513397+222168548+213768914+204133031+193439631+182025931+169967620
2984+157316733+144663024+133158036+124041446+118144048+115765256+116803575
2970+120609094+126047278+132325469+139465966+147817960+157352998+167279453
2957+176238208+182967305+186944140+188355454+187485511+184550814+179995857
2943+174727357+170140208+167508926+167207906+168699538+171110927+173860365
2930+176894878+180390027+184396092+188779536+193306884+197656690+201434125
2916+204277258+205971945+206575027+206321426+205406216+204037289+202405990
2903+200686007+199284633+198439546+197729845+196637452+195041817+192981494
2889+190363913+187050690+183249510+179635313+177273797+177437464+180806241
2876+186845111+194400780+202639270+211173388+219752079+228137295+236138084
2862+243591820+250399938+256700856+262725748+268563668+274243614+279718306
2849+284819193+289420725+293516329+297145210+300375061+303328191+306141492
2835+308898810+311612041+314259361+316825496+319301882+321681970+323955879
2822+326082113+328023828+329826662+331545973+333194190+334813964+336449012
2808+338126874+339895017+341750941+343597840+345323724+346875342+348262297
2795+349503615+350598738+351573611+352468849+353260175+353913454+354458053
2781+354925402+355332116+355719135+356100044+356426175+356652050+356781025
2768+356833930+356836429+356845455+356921179+357056796+357175959+357224583
2754+357238005+357277719+357353049+357450342+357574434+357745160+357971659
2741+358236322+358548752+358973633+359552368+360219926+360840365+361374064
2727+361899617+362465531+363085368+363803956+364674454+365681750+366718414
2714+367686275+368540828+369266845+369894828+370484672+371084953+371717519
2700+372372533+373023567+373660715+374278261+374844569+375337953+375771096
2687+376182554+376592392+376956199+377253100+377535582+377849516+378238942
2673+378750378+379370585+380040226+380674203+381209985+381680643+382119665
2660+382499533+382859498+383277667+383705164+384065707+384397346+384743749
2646+385084367+385386914+385679186+386003326+386312377+386561996+386775166
2633+386978315+387186462+387403983+387609515+387798246+388016923+388264946
2619+388490983+388687559+388861547+389006330+389114500+389209432+389341023
2606+389506124+389658775+389766297+389828181+389895435+390003049+390107331
2592+390178658+390256372+390370467+390486413+390564173+390628603+390713954
2579+390821013+390962509+391157650+391373481+391552376+391690308+391802459
2565+391901186+392012643+392126043+392198388+392210515+392180197+392128311
2552+392087903+392120211+392224910+392342244+392485129+392703598+392976361
2538+393283051+393644451+394046767+394457184+394857696+395251450+395659089
2525+396067006+396444745+396791056+397108855+397424987+397787498+398172226
2511+398516824+398823283+399141545+399508916+399907113+400316280+400767521
2498+401262548+401739663+402166280+402571466+402985724+403406324+403799245
2484+404162404+404540837+404934544+405334362+405780881+406278871+406764965
2471+407194128+407596814+408017229+408452455+408888884+409341467+409809140
2457+410246032+410643211+411030716+411400309+411751572+412102141+412415960
2444+412657109+412866321+413102009+413349869+413549917+413719832+413915529
2430+414087342+414186857+414272532+414377739+414457212+414498638+414559550
2417+414677857+414847448+415060225+415313130+415621765+415992792+416370253
2403+416697309+417010757+417372342+417756283+418133791+418495978+418830578
2390+419120837+419357404+419523894+419598461+419591101+419550231+419531346
2376+419569439+419650810+419674138+419538243+419374993+419416604+419606700
2363+419763053+419920194+420164398+420546627+421123348+421729091+422141961
2349+422389313+422579085+422733495+422885775+423132988+423491426+423886614
2336+424281525+424680695+425051583+425377806+425721478+426112779+426491583
2322+426806928+427087883+427372125+427640444+427860950+428060164+428317560
2309+428670860+429078731+429475262+429818333+430114146+430398757+430690358
2295+430984227+431268932+431520264+431714711+431870925+432032047+432212978
2282+432391179+432531795+432620710+432682594+432740914+432789700+432828672
2268+432875838+432926613+432951423+432970863+433050521+433209513+433441220
2255+433761888+434165223+434614196+435067057+435420218+435759447+436091918
2241+436410504+436739689+437065449+437363530+437656103+437953906+438254718
2228+438558723+438855045+439137713+439410152+439672546+439929155+440187430
2214+440431588+440643855+440831498+441016965+441222243+441453487+441705468
2201+441977860+442288114+442658586+443063911+443450537+443819482+444174170
2187+444488312+444797780+445144368+445505907+445866150+446218154+446540489
2174+446843245+447170578+447514204+447815664+448080975+448358829+448653299
2160+448971561+449318474+449642937+449927457+450195637+450431093+450635815
2147+450859145+451111449+451357273+451595182+451844710+452114510+452428097
2133+452789589+453185981+453631899+454126603+454632600+455119110+455580719
2120+456016038+456444089+456895700+457357541+457799247+458202258+458549448
2106+458864423+459200922+459568802+459932470+460272208+460593895+460914887
2093+461254810+461603297+461929334+462258797+462589648+462872686+463119390
2079+463363224+463609141+463845152+464084219+464329950+464539348+464739951
2066+465006603+465285337+465624103+466066689+466498489+466874469+467246747
2052+467669522+468115208+468524838+468874667+469191771+469518966+469787794
2039+469985388+470225982+470510224+470818812+471174056+471569568+471968830
2025+472357215+472735555+473087050+473466779+473898997+474257249+474600552
2012+474988011+475333257+475637170+475911136+476187370+476486191+476773488
1998+476977331+477069902+477270320+477620195+477730170+477850282+478139522
1985+478372340+478554799+478734111+478919161+479086855+479282135+479505696
1971+479673714+479902736+480204103+480358281+480563883+480880293+481105520
1958+481236463+481318574+481341301+481333941+481301356+481170135+480900335
1944+480765088+480549257+479950133+479497411+479165171+478739480+478313696
1931+477981502+477859030+478057087+478837976+479933053+481011329+482743068
1917+484233149+485049446+486165907+487439879+488478164+489199298+489836330
1904+490497061+491096138+491625417+492194595+492840930+493216401+493591363
1890+494345128+494717868+494935319+495472328+495911303+496259141+496654839
1877+497079697+497360236+497484467+498170979+499033377+499054113+499102482
1863+499683925+500256342+500681663+501088701+501491434+501864128+502190258
1850+502408588+502523840+503447335+504272936+503730512+503728939+504570554
1836+505033783+505113441+505684053+506615880+506654390+506896743+507603158
1823+507729796+508014037+508649681+509083241+509279678+509768549+510417986
1809+510658904+510709819+510897554+511432202+512136534+512315938+512045073
1796+512251971+513403748+514065544+513460217+513405739+514224582+514652911
1782+514817087+515059394+514851848+514705446+515550996+516543689+516261576
1769+516073239+516115081+516298373+517215713+517520505+517421176+517836036
1755+517854921+518364991+519619662+519994716+519843269+519969074+520385600
1742+521057625+521145660+520337324+521405741+522985014+522021574+521359501
1728+521788895+522130346+522112850+521493869+521591115+522927157+523049907
1715+521930159+521275677+521259061+521548301+521775657+520980975+520340981
1701+521499516+520994954+520152412+520393099+519160737+518351244+517843164
1688+517242281+518308152+518354669+515618666+513838280+513869106+514426573
1674+513478454+512366436+512920478+512581202+511370873+511735791+512468820
1661+511712417+510362628+510180493+512982732+514790843+511648403+510814054
1647+513342744+513970195+513061372+513017539+513797132+516012327+518220255
1634+517924535+517745640+519353333+520921081+522109378+523691290+524243064
1620+524484028+526894688+529206852+529373759+530132893+531984143+533543791
1607+534605820+535602123+536656608+537584686+538416674+539292680+540129482
1593+540787158+541359529+541911072+542409987+542857525+543078771+542826930
1580+542778561+544257718+545041986+543299046+542984070+544383755+544149687
1566+543049195+541921671+541821925+544557790+545277118+542246783+541115094
1553+541339811+541309263+540658113+539725499+539169791+539248014+540352719
1539+539511335+536380652+535709507+536301642+534877796+533391835+532729808
1526+531577151+530668467+530263142+528360608+526544906+525394471+523646717
1512+521596022+519922788+519893165+518695796+513959364+509916757+507869672
1499+505544039+501411313+495278344+489202954+483590655+476640925+469075038
1485+462594462+457439235+452759966+448141655+444086829+440347070+435844891
1472+429132052+421563203+416160208+412311400+407135252+400571963+395901488
1458+395587253+399031894+404897793+412762918+420928439+428026653+433389426
1445+437114188+439563682+440953970+442684552+444673502+444933351+444788569
1431+445445458+445708547+445503500+445704242+446045137+447099853+449133145
1418+450130883+450665300+452100346+453851803+455389512+456949809+458917004
1404+460687901+462151738+463833488+464287691+462763961+459846054+455732953
1391+451191847+445808246+438720955+432145262+429533027+432069955+439114709
1377+449147447+460781352+472466125+483562513+494399560+503676034+510381374
1364+514866150+516852138+517011963+516889861+516763685+516290366+515492537
1350+514504796+513450867+512827674+512990138+513812915+514913408+515695778
1337+516377985+517580862+519341947+521494841+523974652+526767078+529814354
1323+533045478+536469104+539993957+543447346+546960905+550573702+554012279
1310+557267841+560351405+563118328+565622948+567942842+570053755+571936154
1296+573626653+575172323+576574831+577761184+578574149+578758042+578121890
1283+576579876+574223602+571529811+569370575+568774228+570434317+574187684
1269+579185400+584578582+589767598+594350777+598143765+601069957+603212576
1256+604729363+605568943+605662209+605226150+604463729+603046780+600562571
1242+597590371+595290612+593900555+593250423+593936010+596536164+600807007
1229+605997133+611375921+616461348+620967786+624842514+628188936+631094438
1215+633648075+635919323+637884481+639529018+640961982+642327600+643662623
1202+644926227+646113413+647207056+648199563+649135417+649999158+650764865
1188+651444295+652001669+652396025+652629676+652744048+652769043+652635184
1175+652227498+651519278+650529547+649220213+647564012+645650601+643623928
1161+641589942+639686020+638026301+636581951+635257250+633892604+632290743
1148+630353772+628066695+625420671+622463838+619353335+616209877+613074612
1134+610006090+607003897+604035122+601131239+598259618+595258397+591885176
1121+587772214+582429437+575361771+566116217+554145258+538763587+519415263
1107+495904915+468774134+439745585+411182580+384875363+361781171+342994874
1094+330215047+325014622+328080944+338634954+354166638+371217886+386388910
1080+396560460+398774128+390850729+373561710+352848185+337591948+332509113
1067+333575377+330788112+315313776+285708552+248387406+212462056+184686755
1053+168575804+166110850+178629475+206667251+249337539+303521643+363845428
1040+423817278+477957665+523190061+558610733+584570390+601664823+610706210
1026+611355601+599777748+573030260+537915583+511476914+508704993+529891883
1013+563145220+597101546+627220543+653183995+675312710+693467229+707392515
999+717249228+723616034+727121077+728201574+727100757+723925038+718600081
986+710902974+700376504+685919671+665355325+635375371+593101753+540392710
972+488557081+456197062+457199428+490450914+542571663+598401623+648208959
959+688331025+718680711+740732638+756504360+767800656+775877770+781689608
945+785983455+789174587+791527575+793269868+794515143+795318202+795776618
932+795940655+795733572+795121395+794140505+792735544+790799314+788304876
918+785185487+781294975+776602607+771176515+765217673+759236753+754018439
905+750225914+747619280+744629306+739042556+728970428+712875631+689626567
891+659498081+624814141+589483125+557962592+535844893+531808951+553637641
878+598504517+652011806+699437040+734231511+756780316+769897776+776042964
864+776835517+774018421+770754805+771061634+776539473+784847415+792542069
851+797976122+801294448+803235306+804281089+804593889+804347000+803735194
837+802937411+802025209+800914256+799546323+797963532+796283633+794579202
824+792792383+790769413+788381618+785610391+782366215+778430898+773613975
810+768019264+762275559+757516354+755116247+755845990+758934738+762533464
797+765237900+766663505+767035458+766740710+765973846+764832899+763419468
783+761782614+759992046+758122051+756178508+753991871+751503636+749033267
770+746974518+745557152+744542797+743132236+740679085+737229354+733482004
756+730695364+730037271+731467088+733659371+735285903+735966675+735945199
743+735559452+735000736+734228641+733272653+732292550+731324666+730290501
729+729188389+728141958+727188006+726265436+725145643+723994421+722875691
716+721743076+720660172+719672987+718789529+718021554+717308104+716540407
702+715716241+714940536+714279944+713724467+713231893+712737745+712204949
689+711725612+711487518+711466134+711372636+711107048+710887607+710822205
675+710738104+710446040+710078206+710266173+711249979+712029016+712221843
662+712383890+712872067+713668323+714606630+715519572+716465146+717592762
648+718827530+720034897+721231988+722521327+724004927+725602438+727145886
635+728606899+730011536+731444176+733141386+735259705+737543866+739705740
621+741749075+743821293+746105362+748388551+750577687+752922158+755558879
608+758424760+761297400+764006604+766642075+769325312+772144075+775112433
594+778138279+781169725+783970205+786715420+789797965+793219231+796770282
581+800058152+803107928+806270085+809275241+812334644+815782107+819344452
567+822564467+825411696+828231893+831253990+834602402+838106149+841417347
554+844524239+847783504+851288732+854930411+858538765+861934481+865245679
540+868517626+871821511+875145113+878407063+881588013+884382938+887127968
527+890242728+892834829+895085248+897943029+901240712+904291691+906764281
513+909184106+911839896+914585111+916895516+918749913+921157703+923080788
500+923809328+924466865+925025165+925200403+924971473+924439741+923948926
486+923584101+923368594+923661398+925073857+927218559+928887905+930040145
473+930272685+928884572+927650591+927593567+929312717+933315518+939150129
459+947111019+954463806+959143492+962474130+963598228+963650901+963793369
446+963157679+961899444+959826763+957264471+955943843+955746480+956308945
432+958838005+963620445+970865479+980593193+990802928+1000228674+1011329597
419+1020529560+1024985222+1030084628+1035705953+1040878584+1047573278
407+1055175268+1060917492+1064566206+1068565027+1073741823
##END=
