##TITLE=13
##JCAMP-DX=4.24
##DATA TYPE=INFRARED SPECTRUM
##DATE=16/11/2015
##SAMPLING PROCEDURE=Instrument type and / or accessory
##ORIGIN=Default
##XUNITS=1/CM
##YUNITS=TRANSMITTANCE
##RESOLUTION=4
##FIRSTX=3996.3359
##LASTX=399.24785
##DELTAX=-1.9287336
##MAXY=0.70602876
##MINY=0.067791343
##XFACTOR=1
##YFACTOR=6.5754052e-010
##NPOINTS=1866
##FIRSTY=0.15666935
##XYDATA=(X++(Y..Y))
3996+238265693+238362211+238523972+238669462+238737946+238793581+238879833
3983+238959081+239000462+239039894+239178812+239452364+239699833+239765938
3969+239746290+239817177+239956729+240045813+240095466+240136529+240138682
3956+240157152+240259697+240402014+240513080+240552603+240532502+240509976
3942+240495336+240492662+240548275+240657279+240768322+240842903+240905132
3929+241001514+241066622+241034260+240998976+241075029+241252042+241426992
3915+241513856+241538874+241545514+241509029+241452351+241450379+241511907
3902+241594011+241651663+241651980+241622950+241633307+241681169+241706052
3888+241712261+241703378+241638451+241608469+241705984+241814353+241826885
3875+241776757+241753053+241795929+241805878+241762140+241757585+241765335
3861+241721122+241636185+241604186+241691389+241723388+241579983+241501165
3848+241612820+241776168+241833367+241765109+241716997+241777867+241857298
3834+241918349+241963560+241915494+241789130+241684840+241643573+241677770
3821+241741540+241796178+241851111+241821356+241711037+241647924+241655470
3807+241643210+241582385+241626961+241782966+241854624+241840143+241796609
3794+241705961+241605365+241539509+241522263+241531237+241538421+241566975
3780+241615041+241619687+241566499+241504066+241471976+241442720+241342712
3767+241192894+241078927+241024946+240994851+240928066+240836104+240796219
3753+240812626+240793409+240671057+240567039+240584806+240552467+240400881
3740+240289724+240202861+240093539+240068294+240051298+239874534+239647393
3726+239530050+239459866+239325072+239121976+238893815+238670889+238475906
3713+238290485+238045872+237745488+237435427+237084959+236607540+235957028
3699+235217364+234463786+233646663+232743765+231863189+231106370+230481625
3686+230011843+229683516+229408944+229154042+228934742+228695205+228386844
3672+228130514+227983189+227828453+227654953+227499582+227306570+227068144
3659+226871959+226755091+226655016+226548392+226399276+226077204+225605563
3645+225174125+224832631+224506956+224148943+223747758+223295062+222790426
3632+222267478+221700090+221034712+220397843+219867213+219330895+218721402
3618+218054981+217343939+216598293+215835332+215079692+214300437+213433753
3605+212520929+211635730+210749942+209809969+208811573+207782017+206775531
3591+205827921+204900276+203922775+202897140+201888796+200909051+199916933
3578+198901065+197861311+196773015+195639645+194517946+193438511+192362997
3564+191275993+190208274+189152793+188054198+186902063+185719675+184499068
3551+183275129+182120456+181007697+179844946+178636870+177445995+176275357
3537+175122736+174001138+172847882+171596772+170328053+169125666+167915902
3524+166658163+165440807+164297579+163166384+162019700+160868178+159704259
3510+158546074+157434697+156328465+155145884+153930749+152778762+151678172
3497+150555295+149421800+148368460+147363991+146323592+145266411+144182988
3483+143019012+141808489+140643449+139563029+138533314+137470253+136322560
3470+135165100+134113245+133158462+132185165+131152334+130109759+129097619
3456+128122452+127133778+126126715+125186322+124295820+123373773+122445460
3443+121534992+120607347+119652939+118715198+117888591+117170094+116445987
3429+115713666+115029524+114357358+113656514+112948090+112259620+111573630
3416+110876492+110232507+109684302+109184425+108688785+108169905+107591980
3402+107003176+106543105+106225973+105906258+105510614+105093124+104794643
3389+104685594+104623579+104421877+104104292+103823442+103635461+103517256
3375+103429248+103310216+103165486+103098350+103179785+103375234+103611711
3362+103838048+104044136+104274664+104557565+104815005+105028526+105327947
3348+105735239+106133693+106470122+106789247+107170626+107660000+108230820
3335+108823510+109428879+110062689+110678823+111231525+111782608+112420961
3321+113135471+113873231+114614923+115386869+116216467+117021884+117724054
3308+118416309+119220888+120128987+121069697+122006225+122936125+123861255
3294+124791302+125782241+126869778+127960419+128970678+129952780+130966846
3281+132043131+133205395+134405958+135575384+136736832+137965507+139243053
3267+140499840+141749376+143026525+144351321+145740851+147152079+148543490
3254+149922437+151306720+152745438+154291380+155922600+157563564+159167805
3240+160755876+162377261+164021919+165653071+167311972+169026146+170751480
3227+172467411+174191556+175956322+177776611+179641498+181536231+183409775
3213+185213373+186985425+188802836+190667632+192519138+194363640+196259110
3200+198188436+200099112+201971013+203794916+205603840+207468330+209367902
3186+211196994+212966849+214775341+216606995+218405788+220198645+222002718
3173+223759089+225424630+227044054+228700621+230410535+232110590+233749435
3159+235332895+236910621+238498137+240049258+241554647+243029692+244458959
3146+245841181+247218280+248634427+250073394+251458221+252731166+253915413
3132+255075093+256258887+257456209+258614054+259740875+260875152+261994177
3119+263047233+264017596+264936629+265841567+266745462+267638548+268493652
3105+269309256+270107478+270873181+271598137+272310539+273000392+273656138
3092+274288611+274869097+275394674+275913633+276409522+276834026+277230746
3078+277666309+278127186+278541877+278844414+279060632+279264726+279440379
3065+279556725+279658296+279747584+279777883+279762360+279712549+279590582
3051+279412051+279230053+279026752+278736566+278317863+277792627+277223517
3038+276616992+275916420+275093700+274178202+273182979+272075647+270849046
3024+269504194+268009207+266353660+264531569+262492650+260191554+257626083
3011+254797258+251671901+248188235+244298875+239967403+235126150+229685941
2997+223568026+216693473+208857146+199843530+189772099+178886378+167249969
2984+155034874+142855824+131789600+123034784+117372306+115077499+116100075
2970+119803052+125028776+131029167+137902144+146007163+155258661+164826396
2957+173396902+179813140+183593541+184893443+184017705+181208188+176861316
2943+171818349+167428715+164927298+164647842+166042958+168302923+170926555
2930+173861835+177241630+181081349+185227582+189486026+193609020+197235931
2916+200002912+201690934+202298207+202023204+201142605+199863654+198338527
2903+196780199+195478314+194574261+193811776+192754074+191199350+189203975
2889+186743033+183639647+180005052+176488663+174181550+174318735+177520814
2876+183264194+190457737+198301316+206384295+214472940+222397195+229952785
2862+236940150+243279223+249098498+254642907+260067207+265389619+270506397
2849+275229287+279439109+283164261+286494799+289518314+292283980+294834698
2835+297304195+299796127+302260004+304625642+306902852+309123702+311257847
2822+313229144+315012595+316643033+318167730+319640123+321108936+322615436
2808+324199326+325851904+327507293+329115295+330658893+332112250+333451028
2795+334658979+335705259+336603240+337411433+338118305+338700446+339214261
2781+339690978+340095358+340423163+340714664+340971946+341160788+341284545
2768+341376756+341461217+341535889+341593473+341651442+341723099+341787618
2754+341813566+341818461+341872645+341993162+342133009+342286022+342482547
2741+342736066+343061379+343475209+343981817+344563686+345165248+345725973
2727+346234893+346749999+347339278+348035567+348854004+349752483+350657534
2714+351530088+352316707+352982176+353568804+354124951+354666731+355218232
2700+355806967+356409662+356994522+357590985+358201635+358739856+359149721
2687+359488336+359815552+360117931+360388877+360656379+360971244+361402071
2673+361960870+362566601+363135281+363636677+364079038+364502908+364931106
2660+365348086+365724274+366041995+366346504+366663908+366958445+367248722
2646+367571678+367918995+368276760+368596112+368835309+369043006+369253377
2633+369436486+369615198+369843789+370094453+370313663+370512204+370710949
2619+370899882+371073609+371257692+371462987+371643716+371788866+371917586
2606+372002750+372061444+372153225+372273651+372397952+372515001+372603292
2592+372673657+372742323+372802808+372876776+372979344+373111758+373284284
2579+373462973+373608826+373746814+373894933+374032310+374166990+374309783
2565+374436645+374532550+374600015+374636161+374632761+374612207+374617079
2552+374636093+374649531+374709177+374857500+375062478+375285177+375532328
2538+375832055+376185559+376566507+376958106+377360786+377764554+378130409
2525+378453342+378772219+379097803+379427036+379769051+380109048+380420492
2511+380722122+381053032+381414128+381788096+382167276+382552983+382951833
2498+383373391+383805963+384202955+384562918+384945588+385351962+385731731
2484+386096453+386484924+386896375+387301344+387678213+388058435+388482667
2471+388939895+389387469+389794931+390189113+390616292+391055571+391465254
2457+391865691+392275963+392663302+393010256+393320544+393601598+393880929
2444+394158810+394393090+394585807+394799781+395043352+395258641+395426294
2430+395554107+395649832+395754122+395876678+395976300+396040796+396104385
2417+396212347+396375241+396577386+396826758+397137590+397497643+397871520
2403+398237420+398591445+398912792+399194752+399471183+399781561+400129332
2390+400475924+400766496+400963609+401063231+401091967+401098267+401132894
2376+401205095+401271268+401285001+401205005+401017817+400819661+400801848
2363+401069169+401464394+401742456+401943467+402269256+402679619+403054493
2349+403455655+403904679+404220723+404327416+404497879+404874385+405248715
2336+405486167+405675893+405929707+406310474+406786466+407203854+407486539
2322+407722903+407998609+408297158+408586868+408871049+409139050+409407231
2309+409749291+410171801+410576498+410889097+411139286+411401484+411699399
2295+412005018+412290332+412549494+412790074+413001419+413156336+413266972
2282+413383409+413539958+413726965+413888046+413964598+413982637+414021117
2268+414080446+414102882+414097941+414119878+414186867+414324108+414570353
2255+414912050+415310266+415737081+416171149+416554090+416954210+417289109
2241+417534538+417799864+418129278+418452755+418733718+418993787+419254989
2228+419533323+419822671+420097017+420376031+420673039+420939136+421165529
2214+421379004+421581330+421788959+422017709+422245507+422464830+422713885
2201+423008037+423328885+423693290+424099075+424479297+424807851+425111793
2187+425412336+425727654+426073657+426448350+426808404+427121093+427415472
2174+427722179+428036682+428343888+428651093+428953540+429230832+429516237
2160+429826660+430117867+430401232+430708528+430993208+431215703+431416442
2147+431649498+431908479+432163517+432415563+432671825+432972277+433351774
2133+433751441+434129624+434518186+434927688+435354956+435809374+436271180
2120+436716578+437160254+437601890+438016650+438403535+438780448+439156909
2106+439515149+439841754+440150772+440450137+440753626+441080366+441420975
2093+441747806+442073776+442426940+442803945+443149993+443406889+443622903
2079+443879028+444159674+444425635+444673512+444903395+445118819+445328896
2066+445555515+445831175+446171603+446564970+446965905+447337335+447700924
2052+448094154+448512131+448906948+449237496+449518096+449789858+450060805
2039+450315480+450569249+450847855+451143503+451454969+451804960+452196423
2025+452606378+453000379+453352773+453696736+454088199+454513564+454907474
2012+455232401+455513274+455789886+456078101+456371755+456637171+456849741
1998+457043999+457259016+457470316+457675135+457916122+458163727+458366823
1985+458541910+458724021+458910711+459088244+459268634+459462801+459665127
1971+459874615+460099557+460342358+460594812+460843096+461082588+461295475
1958+461440647+461531159+461618589+461688342+461677329+461556631+461342294
1944+461069399+460797274+460542689+460239291+459859975+459452105+459068393
1931+458782444+458724021+459005302+459654612+460638640+461834784+463115820
1917+464421648+465660215+466747898+467697208+468551610+469319306+470001024
1904+470617610+471204329+471767841+472280455+472748424+473209460+473680556
1890+474146940+474588531+475011902+475424259+475801173+476153793+476539545
1877+476955437+477342504+477667250+477956280+478298249+478753710+479260023
1863+479725681+480149233+480567755+480989539+481400174+481786832+482148336
1850+482468686+482735598+482981662+483264710+483618237+484016589+484437875
1836+484880055+485307369+485692124+486072346+486466438+486842264+487225750
1823+487671556+488140341+488545719+488893988+489249055+489609607+489947724
1809+490279586+490637554+491006355+491334138+491637627+491986802+492372509
1796+492715339+492976224+493224418+493553696+493910169+494201194+494447937
1782+494698986+494956517+495208971+495441574+495641044+495803032+495983285
1769+496254458+496586683+496893209+497153187+497419238+497745389+498139753
1755+498552201+498909988+499227482+499606299+500070190+500532086+500918654
1742+501222505+501454564+501600280+501652267+501691064+501857358+502143170
1728+502420417+502600126+502679851+502679942+502592603+502437504+502341463
1715+502404916+502535857+502591379+502547732+502453957+502338245+502182013
1701+501927066+501616778+501367814+501163856+500932296+500618927+500183545
1688+499629233+498935324+498160919+497543516+497083161+496586456+496008757
1674+495469040+495042225+494721014+494517192+494411995+494325019+494238677
1661+494211981+494243073+494274392+494337437+494505906+494691825+494824760
1647+495046712+495433642+495891822+496348234+496821098+497448427+498398552
1634+499535458+500572968+501518244+502509660+503587282+504713808+505791203
1620+506764671+507831460+509174589+510606735+511915690+513124253+514296420
1607+515414244+516433806+517384431+518311396+519183156+519963045+520674631
1593+521332100+521933866+522494024+523015113+523475922+523854966+524148937
1580+524366990+524551549+524725276+524835640+524845294+524807222+524804140
1566+524812162+524732618+524512253+524184244+523911893+523806424+523718677
1553+523505609+523172070+522780018+522331764+521805191+521234835+520661895
1539+520108807+519567775+518938951+518198358+517427126+516619861+515705768
1526+514707508+513633150+512444847+511251332+510120409+508972535+507734421
1512+506327567+504696539+502789716+500639685+498494050+496310751+493682507
1499+490299211+486194676+481634907+476535874+470412610+463546216+457072916
1485+451571587+446788100+442385605+438363468+434696807+430850528+425971814
1472+420005644+414116343+409100026+404613591+399908604+394749154+390064155
1458+388231210+391450388+398508639+406417438+413590676+419740725+424833504
1445+428656895+431193086+432763515+433887322+434960094+435901472+436453336
1431+436660739+436748259+436882645+437188672+437745431+438570689+439706870
1418+441125418+442633391+444126633+445661800+447270890+448912251+450589826
1404+452324509+453967909+455177061+455386503+454037889+451347778+448044116
1391+443927208+438183578+431384036+425772480+423493774+425725977+432309732
1377+441701440+452317302+463292991+474050626+484160447+492874109+499218825
1364+502991408+504752741+505297988+505287835+505046304+504604396+503891496
1350+502896182+501870320+501354987+501653219+502422819+503170981+503873366
1337+504774633+506005041+507592421+509552727+511883963+514527029+517407818
1323+520467319+523644663+526881653+530152862+533464863+536790280+540059133
1310+543186076+546108835+548788205+551195450+553351736+555324913+557168056
1296+558850163+560323826+561609802+562701338+563469080+563704266+563206609
1283+561848070+559706333+557223850+555258604+554794895+556402807+559970480
1269+564804595+570029085+575011001+579400624+583008862+585807116+587912005
1256+589425009+590307783+590528420+590233814+589534511+588205206+586002961
1242+583413514+581358391+580087372+579552867+580293777+582809391+586854462
1229+591696010+596647695+601290316+605378172+608877678+611922449+614575984
1215+616861126+618853068+620585892+622070160+623385008+624633319+625855525
1202+627030321+628149913+629210039+630212605+631140386+631995784+632777577
1188+633437221+633935195+634294025+634568144+634781529+634874171+634758278
1175+634390610+633759248+632852543+631646291+630136325+628402050+626575087
1161+624748125+623005057+621449041+620123271+618954956+617750699+616320593
1148+614594204+612551409+610175257+607517461+604710006+601880796+599112455
1134+596404577+593685730+590988140+588382830+585771990+582990325+579843167
1121+575996796+571059162+564606076+556092791+544932906+530590963+512576105
1107+490564401+464935984+437312542+409996669+384713756+362394529+344136145
1094+331688494+326738169+329966955+340517143+355922203+372827577+387909864
1080+398120303+400570379+393121028+376524492+356578834+341971928+337323006
1067+338510244+335552382+320011961+290697144+253718594+217904596+190101434
1053+173971123+171490759+183960631+211924239+254380346+307934085+367032210
1040+425264852+477367432+520473800+553930885+578408981+594717847+603490883
1026+604142052+593163372+567970064+534856127+509839174+507277103+527563370
1013+559251280+591370810+619671301+643933791+664441556+681108209+693804621
999+702753378+708497869+711601697+712491769+711413150+708451956+703527511
986+696428876+686701454+673278680+654153658+626208553+586540186+536698318
972+487388825+456546388+457760163+490031075+540266988+593643806+640772356
959+678322373+706494732+726881256+741384280+751688676+759047424+764357758
945+768275468+771174477+773296362+774883879+776075717+776903785+777378145
932+777499069+777297469+776833623+776060669+774836379+773092949+770867181
918+768148289+764768483+760591883+755712263+750395494+745072651+740424546
905+737046916+734683635+731882888+726619284+717189186+702178398+680408226
891+652034265+619246751+585663621+555462290+534176812+530343857+551318731
878+594159093+645066799+690076183+723059406+744454433+756898118+762721745
864+763510291+760948038+758038514+758470904+763617437+771287878+778330401
851+783302255+786408848+788215641+789100727+789384183+789281570+788844012
837+788167870+787376967+786472392+785356245+784007133+782551510+781047208
824+779432045+777555090+775324155+772818286+769907220+766318018+761976529
810+756926174+751585474+747111095+744937495+745726267+748667745+752079731
797+754782442+756387952+756884068+756588420+755859928+754886461+753723993
783+752372796+750900674+749284604+747440056+745384933+743177204+741011173
770+739245398+738023420+737028287+735711582+733605288+730572709+727127229
756+724547572+724039264+725484010+727572763+729120304+729838189+729981730
743+729763632+729300240+728675449+727951128+727195759+726430963+725616718
729+724732131+723833584+722950266+722119750+721149184+720137010+719153707
716+718227376+717388521+716607816+715848323+715063177+714229488+713428886
702+712782204+712322302+711990033+711705217+711408844+711065787+710673508
689+710300447+710071652+710014226+710028322+710066984+710148884+710227385
675+710218229+710055879+709843944+710095402+710985246+711624359+711788885
662+712093054+712832831+713872789+714978421+715949078+716817439+717800153
648+718944582+720169099+721489838+722899095+724327932+725755410+727271903
635+728971369+730765472+732532697+734317826+736211142+738334886+740568812
621+742605488+744466353+746538608+748952697+751432460+753762926+756090446
608+758597675+761269022+764102856+767096139+770047180+772793539+775478166
594+778242654+781081201+783976766+786872603+789839689+793146160+796745968
581+800199924+803319207+806289738+809368139+812669353+816100556+819404852
567+822397954+825291343+828226703+831142210+834225869+837489464+840677187
554+843852763+847134034+850421017+853875697+857517385+860864829+863918031
540+867166941+870534690+873673101+876844507+880177357+883225935+885996859
527+888905659+891948254+894847264+897625530+900430447+903111811+905641611
513+908214560+910788144+913277425+915610882+917631786+919507290+921336564
500+922802340+923812882+924467088+924826598+924889688+924472708+923690055
486+923117795+923251047+924297305+926213601+928482154+930122518+930648366
473+930430449+929782316+929105993+929332250+931312180+935532292+941458759
459+947863121+954061713+958993410+961675952+962772791+963460355+963980674
446+963811072+962691299+961101970+959476381+958121105+957660795+958514880
432+960961284+965442189+972141248+981025555+991537625+1001975455+1011219090
419+1020061064+1028590937+1035128733+1039056686+1042244591+1047295127
407+1054279908+1060988937+1066127040+1070127058+1073741823
##END=
