##TITLE=13
##JCAMP-DX=4.24
##DATA TYPE=INFRARED SPECTRUM
##DATE=16/11/2015
##SAMPLING PROCEDURE=Instrument type and / or accessory
##ORIGIN=Default
##XUNITS=1/CM
##YUNITS=TRANSMITTANCE
##RESOLUTION=4
##FIRSTX=3996.3359
##LASTX=399.24785
##DELTAX=-1.9287336
##MAXY=0.65062135
##MINY=0.068682157
##XFACTOR=1
##YFACTOR=6.0593836e-010
##NPOINTS=1866
##FIRSTY=0.17205456
##XYDATA=(X++(Y..Y))
3996+283947298+284073135+284181880+284249262+284312365+284421946+284530027
3983+284598294+284640912+284707015+284852476+285046481+285231707+285415212
3969+285595298+285693199+285667426+285647974+285768671+285957291+286075528
3956+286119572+286177929+286289011+286422053+286533232+286607918+286697949
3942+286808194+286870461+286876461+286834212+286812867+286929924+287097223
3929+287139865+287087755+287064860+287115470+287239339+287435435+287638441
3915+287739439+287752719+287746891+287643088+287430049+287335665+287484299
3902+287744555+287954569+287963127+287742833+287536655+287532425+287592331
3888+287627300+287732086+287796935+287748317+287753014+287768507+287682804
3875+287556082+287458699+287459731+287480856+287422647+287435435+287546393
3861+287531982+287269661+286941162+286958008+287388366+287644884+287475716
3848+287231838+287129585+287087927+287027923+287085787+287323812+287480930
3834+287459904+287442050+287444681+287382292+287242339+287068302+287025537
3821+287128995+287197951+287290539+287383669+287275243+287053744+286959508
3807+287008987+286979427+286897881+286938851+286969468+286953114+286968558
3794+286909709+286770397+286682579+286692588+286727680+286666274+286507140
3780+286407002+286413249+286392911+286268698+286111703+286044149+286077102
3767+286123015+286091267+285947724+285807034+285725266+285565837+285297392
3753+285104838+285076287+284988248+284838065+284973394+285200451+284956696
3740+284435103+284142656+284122958+284110490+283999261+283857415+283704773
3726+283460773+283102567+282801391+282664291+282500091+282130352+281686272
3713+281356765+281037686+280542528+279898492+279208862+278493459+277650450
3699+276615083+275439370+274170847+272848788+271614497+270663750+269970677
3686+269355856+268800030+268334555+267847021+267282662+266823803+266542545
3672+266333686+266179938+265980842+265673075+265326895+264963575+264622510
3659+264402560+264293200+264104728+263811445+263638269+263586257+263389449
3645+262979822+262490738+261998901+261488005+260932032+260332998+259692183
3632+259082919+258614493+258103671+257297426+256328900+255457683+254745822
3618+253994663+253044777+252035183+251111143+250240713+249310403+248226098
3605+247029014+245842948+244687794+243493047+242275995+241071632+239806577
3591+238478763+237204830+236007279+234806729+233563978+232269978+230914228
3578+229537575+228217630+226940943+225603366+224212893+222871676+221557142
3564+220179161+218736454+217285951+215840047+214395053+212984045+211588751
3551+210127699+208599313+207106242+205712104+204330336+202826592+201208754
3537+199599351+198066662+196594998+195169296+193804656+192470596+191073052
3524+189566492+188015310+186508701+185053784+183617029+182192089+180782975
3510+179386230+178009527+176663405+175330329+173985596+172590855+171161710
3497+169800821+168528818+167255561+165908468+164501898+163131270+161873359
3483+160666500+159386788+158036018+156703138+155427594+154147894+152769089
3470+151351970+150085366+148983342+147859592+146624207+145354700+144144620
3456+142980096+141777271+140548599+139388981+138311046+137239528+136177774
3443+135178336+134179315+133096744+131991438+130980884+130044794+129120004
3429+128257210+127479984+126702389+125874676+125039855+124233082+123436526
3416+122650385+121922712+121261522+120625810+119991463+119345717+118668125
3402+117968117+117355988+116925200+116584922+116171201+115679166+115304116
3389+115107590+114928708+114682802+114388216+114087826+113862478+113737810
3375+113668621+113596394+113468197+113348422+113389245+113596530+113823279
3362+114004792+114217142+114492891+114767164+114969765+115132624+115424235
3348+115902620+116412816+116850232+117253169+117692221+118214650+118817053
3335+119476140+120188148+120899714+121529807+122136120+122860474+123685986
3321+124497764+125303480+126148285+126994442+127818971+128666542+129564342
3308+130490325+131451080+132479426+133566363+134658463+135695589+136684674
3294+137728870+138900931+140133156+141335146+142532598+143773024+145020742
3281+146251959+147510350+148782722+150010938+151264337+152675886+154235048
3267+155827200+157387677+158917944+160455465+162043116+163661065+165265230
3254+166906553+168631059+170346662+172029189+173783684+175614574+177485389
3240+179413269+181352289+183223620+185073347+187045407+189135679+191234916
3227+193335492+195422285+197491937+199659822+201943903+204187309+206319351
3213+208450508+210685369+212983947+215221906+217369244+219512573+221693332
3200+223911986+226202031+228547211+230877119+233157351+235380113+237550616
3186+239696258+241847973+244040585+246284766+248533988+250749298+252934950
3173+255067582+257151818+259245373+261317780+263331486+265362479+267429771
3159+269448666+271402835+273324296+275198492+277027489+278839639+280644658
3146+282423659+284154337+285878252+287631358+289332993+290911546+292436144
3132+293985702+295540671+297059441+298502886+299848455+301153669+302492057
3119+303863447+305218657+306492319+307680844+308838827+309958175+311026102
3105+312077921+313124970+314145582+315092885+315944797+316745090+317552417
3092+318373589+319170440+319929591+320645952+321272332+321792721+322291641
3078+322830129+323362051+323838765+324245023+324590293+324908069+325176342
3065+325330115+325393094+325453738+325517210+325534448+325495692+325377405
3051+325133945+324790569+324382491+323870046+323247625+322556102+321789130
3038+320906700+319868062+318651969+317269684+315748947+314107513+312325709
3024+310356711+308170911+305760662+303133216+300281518+297112363+293544376
3011+289612578+285357692+280734812+275620686+269913575+263595971+256637355
2997+248988421+240575245+230999537+219809889+207362170+194391947+180977128
2984+167019578+153127590+140547935+130647172+124352475+121988434+123406414
2970+127811630+133949000+141048626+149216399+158780561+169570555+180682431
2957+190714379+198324397+202829580+204344673+203270709+199921221+194824248
2943+189047862+184063174+181186343+180837974+182406555+184947486+187867095
2930+191079729+194787470+199136077+203999169+209004391+213728835+217823677
2916+220912835+222659473+223123472+222663260+221515213+219855753+217869418
2903+215788208+214207442+213437372+212812738+211649223+209890485+207635410
2889+204838367+201337099+197242588+193319631+190877719+191282624+195150385
2876+201889543+210295759+219478858+229042221+238747011+248319916+257479799
2862+266034994+273937937+281287269+288267402+295064204+301736226+308135229
2849+314028106+319296694+324016072+328313355+332229759+335793122+339116050
2835+342334266+345508930+348651083+351741814+354718095+357532218+360188091
2822+362695110+365060799+367295586+369370477+371290266+373153027+375073874
2808+377150436+379393314+381670768+383845132+385879839+387774914+389506920
2795+391055396+392435222+393668455+394740243+395645593+396437968+397146976
2781+397752724+398256513+398693904+399090325+399420594+399653159+399805678
2768+399901955+399945360+399957607+399978805+400019627+400075426+400151710
2754+400229052+400303688+400417253+400565764+400700503+400842791+401070512
2741+401396010+401797251+402317074+402990277+403756879+404505800+405185471
2727+405849353+406538147+407250328+408066925+409102538+410346912+411649962
2714+412840012+413844049+414684353+415404158+416066466+416754055+417512173
2700+418326017+419142221+419919079+420649851+421326914+421963893+422577362
2687+423120105+423548102+423905373+424253200+424598126+424969807+425434643
2673+426028881+426747456+427528691+428272595+428909770+429462842+429994026
2660+430497471+430959897+431410420+431852975+432279103+432692886+433082225
2646+433448644+433811964+434177006+434534080+434854709+435122023+435342513
2633+435539691+435756100+436001133+436249265+436473100+436671114+436891310
2619+437151836+437400755+437613819+437803422+437940645+438037242+438180072
2606+438351920+438454074+438490962+438534490+438603052+438690156+438800377
2592+438895498+438946945+439009851+439114169+439216029+439289264+439371941
2579+439506607+439656224+439790348+439950490+440133208+440294924+440425310
2565+440515906+440582403+440658195+440700641+440656965+440577976+440526678
2552+440484330+440438196+440449656+440551761+440700837+440885621+441151557
2538+441526141+441970172+442418236+442873185+443349874+443801578+444220673
2525+444647047+445066732+445468563+445894101+446338230+446738782+447066199
2511+447358891+447687193+448074466+448497741+448953182+449449004+449976844
2498+450516341+451047574+451554167+452032036+452492249+452951772+453441052
2484+453944546+454397037+454823755+455299952+455802118+456283873+456762579
2471+457255646+457748762+458234894+458736618+459277246+459822644+460324171
2457+460811730+461311830+461770911+462171562+462564540+462954567+463295903
2444+463573102+463839186+464132223+464386847+464570696+464756217+464944542
2430+465078076+465179542+465282680+465359161+465385081+465392016+465413804
2417+465460037+465567651+465768813+466059193+466436187+466875447+467315592
2403+467725195+468131846+468520447+468861143+469195838+469569880+469941021
2390+470220090+470356132+470386085+470409791+470500142+470603772+470640316
2376+470634168+470570327+470285357+469769468+469286139+468951247+468816926
2363+468845846+469211134+470420661+472378519+473901297+473420919+471129743
2349+469728744+471119661+473648640+474479108+473656706+473000201+473183165
2336+473948218+474748094+475407943+476022543+476506364+476830976+477280467
2322+478021420+478717468+479038638+479205617+479575971+480105090+480568548
2309+480916179+481219987+481507220+481817766+482164118+482478697+482743995
2295+482964535+483130431+483318264+483577463+483831497+483985835+484054643
2282+484120008+484221327+484325351+484395044+484433998+484445900+484420521
2268+484360320+484284381+484202195+484148584+484180406+484310940+484542890
2255+484885996+485322158+485849752+486454712+486919154+487281048+487588594
2241+487889697+488224835+488576450+488901801+489227348+489572814+489898017
2228+490163265+490387937+490627954+490905596+491193813+491472930+491752343
2214+492022805+492261789+492458229+492620682+492793367+493005791+493236020
2201+493483710+493784124+494151182+494575196+495009144+495396171+495727669
2187+496024788+496326285+496656554+496998233+497344388+497714004+498100884
2174+498480386+498861215+499243619+499599414+499923535+500228229+500516396
2160+500775742+501026973+501318977+501628293+501896984+502134296+502373181
2147+502606902+502803146+502971600+503183828+503442534+503701880+504006770
2133+504387699+504826319+505346733+505934085+506506830+507025915+507514113
2120+507996950+508493607+508990708+509452396+509897115+510341933+510758175
2106+511137529+511498243+511853251+512207374+512570695+512953639+513345732
2093+513732808+514122688+514513994+514885479+515210928+515472044+515685994
2079+515883122+516103219+516376681+516673259+516949229+517190328+517406589
2066+517650196+517964136+518327555+518728353+519173072+519619809+520060987
2052+520547906+521053318+521509497+521913149+522261124+522532962+522756256
2039+522978862+523220059+523477241+523755178+524078463+524457178+524878978
2025+525335748+525817453+526288093+526728582+527151661+527538688+527882728
2012+528218161+528565989+528931670+529288105+529597225+529872949+530130032
1998+530344326+530516961+530699580+530912300+531109182+531287031+531468863
1985+531611693+531711585+531834102+532004819+532200324+532387124+532548004
1971+532693981+532863960+533081451+533313254+533524154+533720446+533904934
1958+534030550+534055830+534013286+533943986+533818617+533560845+533149128
1944+532674849+532198996+531671648+531081049+530445153+529764941+529109371
1931+528596532+528361286+528572776+529368668+530667463+532190733+533823929
1917+535505275+537018512+538324832+539546311+540687177+541694264+542574259
1904+543345412+544033886+544691571+545318664+545880686+546382656+546868690
1890+547375184+547874448+548328168+548747263+549135471+549507349+549904803
1877+550327488+550720909+551047046+551387447+551845495+552345743+552781511
1863+553186343+553614291+554063978+554506140+554923906+555324164+555695550
1850+555998227+556223194+556477670+556842024+557197671+557500987+557852159
1836+558230186+558559520+558910397+559375823+559867562+560300478+560720310
1823+561128289+561525497+561934755+562304666+562592391+562861967+563195630
1809+563565393+563909335+564246195+564615024+564990493+565301285+565509480
1796+565683738+565965364+566355194+566668790+566852393+567018290+567200958
1782+567370347+567526210+567640710+567696927+567780785+567994292+568300904
1769+568572840+568735393+568822645+568961392+569207114+569537137+569948854
1755+570368392+570757829+571213615+571736979+572199011+572529673+572747508
1742+572927472+573078072+573110042+573125780+573312580+573541432+573638078
1728+573641374+573590715+573479559+573274561+573002378+572812923+572762608
1715+572699751+572518951+572233292+571890629+571549687+571195466+570793044
1701+570408034+570041910+569593354+569038316+568368679+567598707+566742270
1688+565795975+564846483+563974553+563105870+562144475+561132273+560179977
1674+559336476+558599556+558022089+557609782+557264905+556994247+556851959
1661+556738836+556532854+556318118+556456620+557105747+557640030+557810009
1647+558138409+558737664+559281636+559741258+560302691+561258675+562786962
1634+564418436+565692738+566840589+568138696+569576091+571080474+572454963
1620+573562434+574791782+576459111+578151917+579562606+580882796+582228611
1607+583509897+584676388+585754103+586738269+587609904+588397631+589145027
1593+589838961+590441216+590944907+591371822+591731847+592002013+592147449
1580+592164565+592176271+592253539+592219454+592048049+591933303+591843641
1566+591590493+591135690+590566684+590119997+589952280+589784514+589405160
1553+588901322+588333200+587672712+586895018+586014481+585114025+584311740
1539+583556917+582652624+581583419+580469407+579332475+578132490+576856171
1526+575490781+574043844+572524460+570934349+569277644+567558426+565737987
1512+563731290+561483494+558885166+555885547+552774576+549645506+546111457
1499+541749202+536435684+530431824+523782918+515990048+507260079+498867216
1485+491623187+485348471+479655255+474521406+469902904+465119390+459069985
1472+451603154+444148766+437822112+432271726+426482109+420102632+414322115
1458+411939015+415346613+423102104+431976131+440288235+447606138+453669068
1445+458117099+460978413+462700730+463922553+465073108+465982811+466378445
1431+466387397+466271913+466230746+466403873+466794146+467407664+468341959
1418+469465021+470500339+471488194+472651292+474085933+475797183+477815979
1404+480103171+482406299+484224868+484516872+482258846+478258436+474313998
1391+469996894+463449159+455029638+447737999+444504168+446865972+454629233
1377+465959252+478920646+492344073+505530286+518073816+529023004+537084713
1364+541982776+544299134+544920226+544778872+544413683+543848561+542916972
1350+541570272+540145172+539351789+539595839+540503328+541426360+542174937
1337+543024242+544288461+546087455+548375877+551072671+554129343+557532613
1323+561226312+565088319+569025085+573016002+577063579+581130289+585125780
1310+588929258+592460356+595687942+598599177+601210146+603560244+605699983
1296+607642840+609356746+610807470+611961419+612690372+612726079+611805064
1283+609798367+606831800+603443138+600646107+599652005+601241771+605283200
1269+610845588+616863908+622603357+627617149+631681891+634809191+637121073
1256+638698150+639493255+639472647+638961923+638261202+636807428+633831910
1242+630188476+627617198+626187230+625309103+625757659+628438862+633219916
1229+639311717+645776577+651884216+657278001+662002544+666185769+669839876
1215+673025803+675821949+678213263+680208008+681951375+683587620+685127957
1202+686525858+687764747+688854020+689861746+690840158+691741254+692542703
1188+693228521+693721588+693993673+694111566+694147372+694062678+693770969
1175+693218586+692333279+691044714+689340251+687264844+684915828+682408588
1161+679848032+677412551+675283731+673444652+671748403+670020676+668052883
1148+665670865+662820223+659540208+655905135+652046867+648085706+644100838
1134+640213895+636493046+632899927+629402716+625932901+622276679+618123504
1121+613100663+606717398+598378490+587488174+573445081+555584788+533384324
1107+506728255+476320547+444116059+412693789+383956533+358885214+338543920
1094+324533584+318376761+320896986+331377282+347120435+364523664+380101953
1080+390576642+392932470+385056823+367831615+347315867+332180674+326758657
1067+327291218+324301658+308672586+278402543+240101360+203489712+175453829
1053+159150657+156315177+168231072+195513115+237664329+292110891+353779178
1040+416130208+473656018+523169744+563121018+592883927+612318346+622608571
1026+624236996+612744867+584262605+546411871+517940921+514938351+537802255
1013+573990283+611334376+644847103+674060039+699207544+720098343+736375805
999+748136673+756001401+760575982+762289642+761527737+758506428+753076591
986+744884397+733339397+717115939+693770280+659815096+612449322+554242121
972+497850391+462977880+463819808+499062918+554804488+615173069+669735803
959+714233328+748262977+773244880+791175359+803941739+813014666+819474165
945+824202249+827784203+830441109+832289336+833515586+834279311+834672093
932+834728654+834380728+833536341+832172869+830316478+827943854+824922742
918+821043373+816127113+810186699+803354928+795898130+788447136+781925419
905+777038227+773440976+769423352+762636437+750897160+732253911+705395598
891+670949757+631861854+592375810+557124486+532227080+527204927+550582112
878+599605182+658837913+712042340+751698462+777832003+793260012+800623213
864+801707322+798572447+794970475+795478199+801847446+811384176+820128654
851+826266392+830023736+832074403+833007714+833266323+832937185+832068895
837+830945145+829700894+828246530+826515459+824510828+822347726+820132785
824+817781064+815090270+812004235+808544896+804501549+799646227+793882826
810+787212132+780204529+774299528+771210542+771755498+775009987+778939228
797+781965357+783518186+783750924+783153439+782082611+780706892+779011134
783+776989043+774829040+772550111+769992900+767067155+763874146+760838230
770+758431078+756683580+755171081+753306328+750498723+746518429+742020526
756+738549235+737522475+738802433+740825557+742297037+742891570+742703442
743+742009656+741075263+740002861+738898243+737737014+736418299+734992315
729+733565839+732237336+730986888+729672502+728363181+726794613+724995176
716+723428674+722225442+721149597+720053783+718918081+717765263+716656661
702+715626261+714595517+713541657+712573229+711763173+711095356+710500232
689+709852040+709152056+708549211+708130412+707845441+707598194+707049254
675+705387532+703340947+704972913+710343926+710978938+706058792+703961843
662+705767772+707637148+708502093+709126530+709843334+710692098+711688463
648+712699681+713699340+714846699+716186956+717636647+719129522+720631102
635+722121615+723580750+725127972+727008169+729129907+731262859+733250177
621+735296123+737538853+739796486+742013837+744319915+746712557+749193976
608+751744891+754367713+757135185+760009483+763030841+766296397+769620874
594+772706859+775530843+778247753+781042227+784143459+787563796+790955360
581+794039329+796964188+800030647+803370618+806849089+810262934+813558540
567+816759714+820003776+823260183+826369285+829513110+832844818+836235644
554+839674080+843269314+846972752+850594742+853955862+857048634+860056319
540+863199850+866475783+869666333+872861801+876182000+879420356+882563887
527+885663939+888570502+891201832+893745419+896584011+899697637+902518129
513+904850226+907164026+909788274+912383012+914509423+916460739+918446386
500+919786643+920186605+920214246+920288809+920221526+919570628+918288211
486+916921492+916277087+917010023+919027934+921270123+922727536+923103398
473+922243961+920439803+918849004+918671450+920664179+925087569+931386828
459+938487388+945295993+950419563+953084732+953963941+954131264+953760812
446+952139912+949153770+945790290+942752603+940436343+939430929+939971950
432+942737651+948795810+957539796+967485538+978349049+989799420+1001050499
419+1011500669+1019751145+1025309499+1029158128+1032603057+1037347125
407+1043792164+1050917906+1058649395+1066697136+1073741823
##END=
