##TITLE=35
##JCAMP-DX=4.24
##DATA TYPE=INFRARED SPECTRUM
##DATE=16/11/2015
##SAMPLING PROCEDURE=Instrument type and / or accessory
##ORIGIN=Default
##XUNITS=1/CM
##YUNITS=TRANSMITTANCE
##RESOLUTION=4
##FIRSTX=3996.3359
##LASTX=399.24785
##DELTAX=-1.9287336
##MAXY=1.0948646
##MINY=0.059648443
##XFACTOR=1
##YFACTOR=1.0196721e-009
##NPOINTS=1866
##FIRSTY=0.23756605
##XYDATA=(X++(Y..Y))
3996+232982787+233058428+233146197+233214473+233302111+233474289+233693728
3983+233911077+234148228+234357145+234479491+234600215+234791683+235017567
3969+235256910+235497217+235702846+235903419+236155446+236409768+236592468
3956+236729983+236857926+236976340+237138275+237370851+237578775+237752137
3942+237976603+238196261+238359496+238511814+238678030+238864106+239021744
3929+239122666+239264492+239500737+239689677+239725919+239770680+239968754
3915+240207016+240377893+240556531+240728666+240764045+240763475+240892763
3902+241087431+241325240+241594453+241682267+241619472+241739932+241949317
3888+241945547+242007786+242243227+242342995+242471040+242700139+242803311
3875+242838267+242818378+242816712+242930815+242962586+243004892+243238433
3861+243485332+243532329+243310640+243196624+243651957+244158101+244129342
3848+243925072+243955176+244197515+244370687+244409048+244559583+244788652
3834+244924151+245063726+245230395+245334590+245368348+245287973+245304428
3821+245585273+245705222+245694525+245875589+245965054+245832186+245778262
3807+245976774+246078105+245983233+246181804+246532620+246672619+246756414
3794+246773453+246685537+246644911+246697550+246821824+246960800+247023522
3780+247101852+247266723+247361040+247317316+247260761+247333858+247467544
3767+247544734+247628266+247669652+247696775+247874155+248011787+247859191
3753+247637735+247755785+247993023+247815935+247671171+248008338+248126943
3740+247769872+247519160+247616282+247830373+247974318+247939069+247769112
3726+247695781+247732900+247712762+247623735+247473624+247172202+246743057
3713+246487200+246457768+246266534+245784282+245151452+244518650+243889677
3699+243089345+242096535+241024899+239882314+238708237+237774846+237191381
3686+236697219+236219615+235859987+235420451+234797529+234483963+234541234
3672+234429147+234309636+234272284+233948605+233442066+233022069+232659606
3659+232349021+232281170+232254836+231849380+231323974+231063865+230804501
3645+230284021+229673973+229138513+228615036+228010936+227353379+226610478
3632+225723106+224983113+224494476+223764858+222703876+221654760+220796031
3618+220002289+219012242+217878293+216758929+215634334+214504082+213335806
3605+212041707+210682854+209359760+208067619+206797456+205549477+204215059
3591+202671050+201025506+199508679+198102113+196644311+195139014+193667387
3578+192233157+190788054+189270789+187591151+185806529+184165032+182686333
3564+181111899+179415894+177767734+176161690+174508576+172827974+171181085
3551+169515009+167723650+165870021+164091873+162414003+160749052+159008753
3537+157235690+155510691+153813342+152111725+150430713+148731654+146936144
3524+145118159+143403331+141758240+140067993+138318765+136613538+135027121
3510+133486079+131878049+130175540+128418772+126726639+125154076+123613092
3497+122057254+120531484+119043446+117511370+115924302+114393512+112957580
3483+111500187+109933491+108360467+106922612+105593052+104183147+102558617
3470+100862042+99381808+98175302+97024300+95763285+94413091+93076524+91801473
3454+90564498+89362406+88170047+86952633+85758052+84644227+83564415+82395854
3439+81103179+79851466+78818089+77934086+77062584+76218323+75414183+74592449
3424+73729525+72845763+71987831+71161259+70299943+69423152+68618881+67894495
3408+67219460+66545485+65782556+64967164+64322876+63898041+63445215+62829336
3393+62207034+61810528+61590227+61337177+61010229+60651550+60269684+59918978
3377+59674929+59474886+59158617+58756196+58502693+58497670+58615427+58700909
3362+58710025+58744619+58850257+58930432+58938097+58925131+59007380+59233435
3346+59480202+59668284+59861436+60116883+60495341+61003470+61483708+61855159
3331+62203775+62573121+62987142+63512240+64125438+64734857+65333981+65952725
3315+66577730+67172412+67682473+68105093+68559557+69230865+70171781+71183523
3300+72039059+72747954+73459845+74254544+75157245+76163280+77180334+78138027
3285+79082114+80056167+81052564+82064320+83076208+84082170+85108357+86210893
3269+87419569+88674168+89944418+91276952+92654057+93985561+95240722+96520552
3254+97921456+99397722+100858337+102299772+103807407+105415730+107078175
3240+108799747+110564787+112261676+113901740+115647278+117524084+119436605
3227+121352714+123274274+125220115+127195928+129182819+131202356+133266713
3213+135355315+137478010+139637635+141786021+143916681+146070138+148240211
3200+150428989+152680051+154981545+157266408+159495067+161680470+163872653
3186+166112901+168404370+170717686+173011668+175301471+177625455+179943433
3173+182200004+184421868+186665082+188919111+191135275+193327108+195531947
3159+197711270+199823648+201895692+203976359+206124014+208339287+210532640
3146+212640692+214656167+216575060+218452845+220409426+222454771+224482624
3132+226422707+228282297+230121458+231953897+233715049+235386153+237019071
3119+238664220+240377981+242167397+243897247+245470147+246983481+248531596
3105+250076612+251568961+253006421+254400245+255768173+257114297+258411203
3092+259638196+260809950+261953588+263085212+264203627+265298045+266361132
3078+267408669+268468600+269529494+270527638+271400162+272174132+272945500
3065+273714589+274400350+275021607+275635060+276189854+276617684+276949707
3051+277249112+277508183+277662270+277686382+277638216+277577189+277452973
3038+277139977+276624435+276017442+275336561+274489085+273436754+272198069
3024+270770108+269148662+267318912+265228250+262847682+260175249+257196835
3011+253885872+250192645+246025262+241307484+236000717+230006069+223198140
2997+215516854+206820955+196674108+184650674+171022118+156364452+140795696
2984+124503869+108392858+93922327+82584633+75323834+72365360+73351484+77406861
2968+83429903+90656601+98887420+108249067+118699966+129537799+139477922
2955+147312593+152441336+154775711+154418290+151650634+147038893+141515448
2941+136354862+132741892+131168218+131297564+132387555+133892150+135829514
2928+138516385+142026123+146134979+150562280+154965776+158902877+161976630
2914+163950442+164819342+164732683+163820029+162255912+160243609+158059390
2901+156299523+155302344+154579069+153569615+152171056+150350879+147944225
2887+144810278+141128771+137560227+135133231+134931328+137533192+142638174
2874+149439175+157273759+165737519+174524432+183380322+192061212+200327615
2860+208013373+215146514+221916520+228515766+235029638+241374254+247412626
2847+253062421+258260828+262991042+267317860+271341152+275141001+278792550
2833+282379302+285942409+289465592+292915589+296263174+299495515+302589699
2820+305497120+308197055+310722416+313162666+315606044+318083531+320631075
2806+323296405+326093317+328965694+331777629+334424780+336879119+339143157
2793+341242558+343168671+344894283+346451166+347867027+349138008+350281148
2779+351320035+352261945+353118423+353918055+354647073+355235332+355685813
2766+356083656+356441428+356758018+357111786+357513020+357895927+358240722
2752+358544716+358829507+359160244+359559110+360008393+360521245+361108394
2739+361765220+362525248+363436879+364477724+365530785+366484533+367347412
2725+368223473+369215625+370392903+371788129+373390343+375104236+376725010
2712+378123685+379361113+380498408+381544981+382577934+383717977+385012515
2698+386354284+387592969+388729504+389860690+391013622+392122274+393129800
2685+394059200+394918602+395681933+396409343+397205613+398115929+399128014
2671+400195046+401261874+402292021+403273388+404205682+405094545+405940735
2658+406744838+407524011+408269922+408976289+409686250+410420266+411159952
2644+411892127+412613750+413306410+413934505+414488510+414994085+415491418
2631+415994888+416487369+416963307+417452807+417997634+418581392+419162900
2617+419730437+420266671+420763711+421236815+421680954+422078592+422455449
2604+422840345+423220008+423597216+423985180+424367269+424719342+425027106
2590+425300937+425592802+425955922+426362563+426733516+427062733+427399783
2577+427742971+428074234+428418941+428789339+429142961+429452479+429737329
2563+430007653+430255647+430451675+430578843+430680145+430785130+430886373
2550+430984022+431104088+431292955+431589642+432004495+432499753+433041248
2536+433653649+434359431+435121622+435886502+436625720+437326855+438004346
2523+438682420+439350850+439989877+440596608+441174959+441744687+442342212
2509+442977556+443626520+444289280+445002720+445768476+446544726+447327814
2496+448135922+448968346+449829793+450702610+451544211+452332093+453081892
2482+453852004+454692758+455572940+456415477+457228027+458086960+458996516
2469+459897916+460758341+461593249+462457941+463396227+464381452+465343149
2455+466232216+467023517+467740289+468444318+469132943+469754405+470310251
2442+470844117+471361062+471849860+472324337+472776367+473174239+473507636
2428+473786494+474012597+474203656+474388548+474564643+474753773+474995338
2415+475301377+475719212+476285375+476932527+477598297+478298467+479053030
2401+479834833+480567504+481245725+481908309+482565106+483177507+483681942
2388+484013877+484157559+484197308+484262982+484390063+484543974+484678332
2374+484692712+484514571+484298873+484179918+483966734+483780468+483850613
2361+484403507+485835297+487853242+489422692+489441865+487745334+486406604
2347+487793530+491061762+493089381+493057348+492732749+493045189+493784642
2334+494514624+495283011+496098981+496625658+496894842+497462262+498572083
2320+499659808+500192565+500453097+500965044+501754299+502569626+503307441
2307+504018660+504732684+505458691+506169442+506806657+507417100+508051684
2293+508645116+509173489+509681226+510164238+510564769+510896149+511231095
2280+511585155+511915658+512184257+512382010+512517858+512608989+512661248
2266+512678609+512668788+512654058+512691235+512860052+513237377+513838526
2253+514592533+515423116+516302334+517182252+517994656+518686994+519277445
2239+519815462+520371892+520989700+521633696+522249107+522822782+523365826
2226+523889463+524420583+524958542+525472534+525980564+526503851+527018428
2212+527497932+527940609+528369258+528786157+529188033+529620831+530146749
2199+530779053+531457771+532108723+532709462+533294769+533904218+534527520
2185+535136677+535737241+536352944+536986710+537610013+538214669+538828969
2172+539458000+540079549+540679295+541269570+541879838+542494080+543064773
2158+543608870+544174478+544724186+545199832+545648881+546110498+546536399
2145+546905891+547262757+547659782+548118417+548634105+549213449+549879249
2131+550635770+551456182+552326338+553254599+554224772+555212832+556200191
2118+557146690+558022634+558845851+559646798+560435411+561206428+561947108
2104+562653241+563324067+563959002+564594990+565246818+565908701+566562342
2091+567229427+567927376+568611530+569239918+569838378+570439994+571046871
2077+571659593+572276699+572893747+573498871+574062608+574586596+575152847
2064+575823089+576536879+577238043+577957504+578720630+579500182+580267517
2050+581022519+581757645+582458868+583115548+583729498+584305452+584832012
2037+585345479+585892673+586452436+587022895+587665605+588408330+589178179
2023+589908395+590592023+591263200+591998970+592776067+593482083+594115089
2010+594751544+595385252+595951269+596465086+597005207+597558773+598041960
1996+598417532+598762064+599220699+599752579+600171115+600483613+600806985
1983+601172268+601541293+601906167+602282265+602665027+603064272+603458257
1969+603856626+604334143+604851818+605302620+605703912+606115492+606509009
1956+606834192+607064504+607174866+607157330+607000788+606644098+606132034
1942+605618451+605032969+604208816+603159144+601981925+600809849+599779117
1929+599072809+598954789+599714583+601394279+603564177+606014540+608702463
1915+611156685+613207101+615117635+616967785+618663089+620154152+621514860
1902+622813432+623999420+625038452+626021953+626965587+627794768+628652591
1888+629591256+630431543+631226118+632056175+632850224+633591313+634339884
1875+635106108+635723565+636263278+637106779+638149787+638995510+639679021
1861+640376385+641112213+641874755+642635660+643360031+644030623+644624582
1848+645066909+645587156+646514657+647444905+648067740+648726466+649505726
1834+650136219+650658219+651439993+652325114+652998454+653741881+654580238
1821+655272342+655896522+656569160+657246943+657898537+658619167+659413976
1807+660148985+660727687+661207308+661820615+662617586+663271695+663599509
1794+664011965+664863884+665706451+666169061+666560825+667045356+667512234
1780+668020322+668481471+668645788+668764684+669300247+670025611+670567545
1767+670940778+671140050+671437117+671987059+672534897+673178074+673902036
1753+674501138+675238427+676206262+677094072+677807161+678392936+678993266
1740+679638255+679864475+679875289+680556871+681481157+681934006+682240309
1726+682529016+682715487+682661124+682319398+682199157+682504875+682702393
1713+682618920+682391648+682030982+681674525+681237167+680474041+679847465
1699+679466399+678798261+678150992+677443105+676311773+674931189+673228170
1686+671508257+670308649+669122077+667444192+665594627+664019214+662608643
1672+661027677+659725481+658997077+658187420+657226776+656669878+656404493
1659+655844439+654787285+654157961+654905773+655495405+654936403+654784012
1645+655520833+656132094+656452718+656793042+657636485+659536380+661749066
1632+663381297+664981671+666992104+669168139+671547772+673919572+675699986
1618+677612390+680570082+683630771+686020166+688213328+690457054+692569491
1605+694512759+696380212+698160509+699786018+701274801+702691685+704029479
1591+705270941+706458156+707605681+708670959+709603487+710279633+710606921
1578+711098233+712117975+712747708+712693111+712892910+713433382+713708996
1564+713488154+712706498+712169123+712661955+713067806+712804526+712437723
1551+712128147+711747139+711107177+710196627+709250830+708746191+708707201
1537+708090446+706854128+705904239+705070558+703793030+702311145+700778871
1524+699061705+697368740+695700092+693823111+691876686+689824574+687370879
1510+684352336+681023106+677838961+674481380+670355413+665392490+659485992
1497+652461547+644247374+634560726+623046316+610528940+598938129+589309293
1483+581232488+573934767+567150513+560800226+554168188+545958340+535807796
1470+525130457+515291535+506206444+496761857+486267131+476034224+469929184
1456+471593068+479446518+489283687+498913225+507859251+515822771+522165985
1443+526599658+529239181+530706336+531906645+532800827+532855072+532346575
1429+531748232+531187067+530860188+530840606+531090851+531955513+533468379
1416+535050982+536617043+538462341+540656673+543198693+546248977+549750414
1402+553144412+555819183+556622409+554245816+549680210+544862899+538829787
1389+529251865+516714849+505125500+498568166+499500051+508022574+522020432
1375+539318001+558573979+578544097+598212239+615809271+629034884+637396539
1362+641831674+643547261+643899393+643827435+643441517+642460822+640806904
1348+638876788+637452305+637003197+637196741+637515670+637927483+638642034
1335+639805867+641541972+643947852+647009359+650603330+654655937+659172441
1321+664137994+669468362+674997360+680645664+686490785+692502326+698461960
1308+704202798+709631195+714698050+719432122+723810497+727778754+731342913
1294+734489940+737117362+739091787+740263045+740364054+739003229+735899634
1281+731240091+725858166+721247667+719222269+721074992+726810861+735143639
1267+744399125+753332467+761288037+768103038+773823709+778474834+782107853
1254+784673314+786111651+786908447+787557586+787304244+784983358+781501444
1240+779061018+777838555+777035270+777536636+780587504+786196234+793467884
1227+801330745+808974284+815875389+821927323+827328889+832192029+836455132
1213+840076928+843192506+846029488+848699232+851108911+853192763+855091898
1200+856956195+858647348+860066570+861296691+862493961+863663055+864584243
1186+865143830+865525890+865897370+866239154+866401717+866282119+865944133
1173+865362977+864318858+862688439+860563260+858055377+855182328+852016245
1159+848870095+846083208+843683116+841513745+839446786+837257306+834561433
1146+831141832+827068883+822404781+817220666+811748428+806264557+800934422
1132+795713773+790566017+785716672+781258974+776753927+771527725+765085664
1119+757042412+746707852+732951704+714553024+690498557+659948895+622216142
1105+577653306+528720454+479104295+431846053+389168324+353676374+328454508
1092+315869032+316670359+329508183+351035039+376902098+402516896+423328763
1078+435106395+434479117+421177074+401180534+384764959+378140140+377624335
1065+371542707+347906805+303910308+248539896+195321276+154030326+128793145
1051+120929648+131272604+160796298+209800509+276101441+354126358+435852394
1038+513740380+582726707+640082767+684917827+717326525+738927530+750344613
1024+745911348+719809564+679507200+647345181+644662870+673551892+718702841
1011+764771120+805464955+840322087+870123587+895201479+915297275+930275361
997+940754304+947790030+952090252+953711201+952466817+948344999+941338909
984+930746155+914656144+889788338+851383473+794776568+721558178+647571635
970+600258504+600302579+645811914+716598705+790699527+855221668+906325119
957+944777567+972743940+992600714+1006746054+1017230142+1025191089+1031091625
943+1035420782+1038797477+1041475404+1043422765+1044779382+1045705889
932+1046194687+1046121151+1045359486+1043949325+1042031893+1039523718
920+1036089737+1031497418+1025733198+1018862899+1010902886+1001980241+992624915
907+983777326+976347673+970158838+963263461+952605471+935126459+908035679
893+869135936+818247540+758232609+694839171+635925176+592098577+578429877
880+607977099+677166381+763654050+843328647+904360047+946082042+972404961
866+987255966+993137913+992627837+990392997+991936201+999315992+1009811653
853+1019582710+1026938535+1031781391+1034270510+1035036851+1035017678
841+1034613873+1033647149+1031985749+1029872143+1027630989+1025263807
829+1022514915+1019398695+1016208002+1012938279+1009138255+1004450421+999002909
816+992885623+985647643+976747737+966309537+955448241+946261206+941248305
802+941742247+946608427+952946379+958138853+961029381+961735338+961044813
789+959766467+958152883+955955920+953156933+950088178+946933961+943509450
775+939533711+935278734+931410668+928225880+925480203+922745692+919678573
762+915867033+910936202+905320458+900640807+898537840+898953219+900150313
748+900643437+900212451+899067674+897447777+895582954+893503720+891237431
735+888796654+886213891+883699520+881443168+879296886+876936017+874301229
721+872043825+869715515+867204826+864989743+863020345+860979399+858868365
708+856808947+854835574+852870444+850885146+848985251+847230616+845557291
694+843900568+842263485+840679011+839132826+837633228+836278073+835201571
681+834371221+833575477+832423218+830112854+827373724+828627169+833957888
667+833910481+827917295+825650187+827805763+829573667+829905807+829841916
654+829879327+830346614+831255351+832123228+832830238+833693380+834809749
640+836118082+837558932+839009954+840463606+842013416+843711467+845585232
627+847547967+849614984+851553751+853265364+855150879+857758018+860891132
613+863908974+866588597+869161306+871833680+874552350+877287446+880220061
600+883369777+886475242+889516933+892799224+896301129+899654325+902850688
586+906166648+909594842+912812774+915773798+919019554+922663504+926107306
573+929099252+932025612+935377990+939015101+942303295+945151385+948187113
559+951846495+955840472+959718767+963234176+966339699+969330535+972608851
546+976124142+979522407+982709007+985890464+989316378+992713415+995551509
532+998073946+1000903973+1004010724+1006861561+1009186539+1011336620+1013753138
519+1016284695+1018579043+1020860413+1023270501+1025404917+1027087243
507+1028601688+1030214337+1031726911+1032568075+1032786228+1032950135
496+1032794060+1031734744+1030073227+1028364245+1026675722+1024912377
484+1023507243+1023271203+1024094596+1024830073+1024616246+1023401440
473+1021323375+1018363111+1014882717+1012390325+1012794948+1016199468
461+1020620047+1024155856+1026147292+1026869558+1026920998+1026143083
449+1023657588+1019022714+1012996383+1007258819+1002192198+996521389+990480796
436+985772385+983309103+983722729+987743829+995001216+1004060645+1013339162
422+1021895997+1030650058+1040353541+1048791012+1054469186+1057944553
411+1060001340+1061988684+1064496859+1067058695+1069912805+1072564896
399+1073741823
##END=
