##TITLE=35
##JCAMP-DX=4.24
##DATA TYPE=INFRARED SPECTRUM
##DATE=16/11/2015
##SAMPLING PROCEDURE=Instrument type and / or accessory
##ORIGIN=Default
##XUNITS=1/CM
##YUNITS=TRANSMITTANCE
##RESOLUTION=4
##FIRSTX=3996.3359
##LASTX=399.24785
##DELTAX=-1.9287336
##MAXY=1.1400461
##MINY=0.063369058
##XFACTOR=1
##YFACTOR=1.0617507e-009
##NPOINTS=1866
##FIRSTY=0.23860143
##XYDATA=(X++(Y..Y))
3996+224724536+224819676+224985986+225211983+225402263+225517262+225600557
3983+225720889+225936544+226211368+226437548+226581682+226744230+227007462
3969+227300166+227494347+227585754+227699069+227885812+228102365+228335646
3956+228558894+228710480+228782379+228904283+229113706+229264156+229407996
3942+229575442+229682918+229792724+229905801+230075085+230334794+230510955
3929+230590362+230762538+231025994+231169244+231222716+231365278+231603402
3915+231775984+231884443+232017224+232075706+232052029+232179000+232405068
3902+232534887+232688719+232809122+232808097+232906788+233202804+233244290
3888+233144069+233445096+233688819+233737323+233945441+233990828+233881191
3875+233905049+234000933+234302661+234456409+234299630+234374336+234601751
3861+234717101+234590664+234378616+234762236+235581711+235620643+235162598
3848+235000626+235195874+235445015+235515693+235652305+235985990+236088666
3834+236038198+236184269+236350242+236482559+236587621+236542514+236745005
3821+237000882+236895034+237108471+237401708+237237588+237011632+237143136
3807+237516650+237473508+237463937+237882530+237957755+237886095+238020827
3794+238049457+237976590+237956212+238042327+238232467+238357487+238358469
3780+238457693+238579036+238578951+238553970+238642528+238868484+238938291
3767+238925492+238978823+238983061+239084615+239202168+239050483+238797357
3753+238939330+239418496+239406034+238896609+239125399+239676788+239410441
3740+238926839+238857031+239114761+239417879+239610404+239465512+239268018
3726+239268804+239293393+239295077+239234504+239023481+238633798+238336295
3713+238426958+238550181+238276732+237725007+237147739+236710002+236236057
3699+235508451+234630634+233610605+232522691+231639695+231116292+230615302
3686+229931189+229398032+229052502+228625291+228259706+228319942+228212241
3672+227909474+227937824+227774785+227367012+227107430+226910722+226594187
3659+226352064+226339503+226045143+225470219+225248473+225247673+224960120
3645+224361239+223753530+223238098+222730652+222158731+221512947+220695801
3632+219852032+219473240+219085508+218155048+217105589+216293018+215721420
3618+214981492+213882084+212787602+211741384+210669259+209624249+208475453
3605+207256892+206126706+205012801+203767097+202455557+201182682+199831593
3591+198364354+196989504+195680406+194269221+192892365+191617006+190290814
3578+188869215+187426579+185956912+184379221+182798822+181371315+179923542
3564+178331199+176734352+175203663+173694769+172142453+170551458+168962919
3551+167350170+165675389+163930519+162174492+160534291+159006213+157455384
3537+155832503+154179068+152523963+150858865+149203199+147546003+145846422
3524+144172413+142558345+140959532+139335289+137648565+135934655+134327155
3510+132853166+131337718+129703903+128034834+126407700+124860324+123358181
3497+121869034+120415367+118994288+117550051+116057333+114546966+113073341
3483+111633750+110156561+108680642+107280986+105887330+104401404+102830738
3470+101260177+99847139+98673019+97545205+96256337+94913599+93676133+92461235
3454+91218169+90036589+88906572+87762934+86589683+85425162+84307733+83165435
3439+81926756+80696455+79650827+78768238+77906932+77040259+76217506+75429552
3424+74629388+73814915+73005397+72177564+71287053+70409923+69672157+69053122
3408+68438305+67726278+66890410+66037413+65388604+65014977+64654591+64087498
3393+63435518+62991936+62772204+62556269+62257678+61888998+61487007+61147161
3377+60910588+60718351+60457175+60066293+59725100+59683557+59868504+59997481
3362+59989362+60004583+60132395+60266874+60290087+60251499+60343615+60621519
3346+60916911+61155196+61422940+61712816+62008895+62416850+62917525+63378285
3331+63781195+64165916+64565528+65041116+65617261+66241636+66858544+67446892
3315+68030518+68637167+69206611+69671666+70124714+70801816+71793159+72850316
3300+73705594+74405551+75133690+75955629+76854940+77827714+78856992+79870523
3285+80832105+81808052+82832277+83850109+84839157+85824668+86832999+87938155
3269+89181964+90484339+91777705+93059077+94351186+95694718+97081083+98474374
3254+99885110+101326652+102762229+104197616+105738164+107395753+109063377
3240+110714959+112368163+113985494+115610677+117392282+119324857+121260456
3227+123156758+125063502+126989010+128930980+130913160+132918945+134919678
3213+136933183+139006938+141171580+143379519+145546841+147664356+149790052
3200+151956659+154163377+156407735+158654774+160862110+163065627+165302856
3186+167533741+169744866+171979344+174249386+176524129+178772641+180995639
3173+183202862+185408274+187616985+189802118+191958494+194106084+196255120
3159+198402542+200514807+202536003+204487376+206500361+208624388+210750800
3146+212782690+214717040+216590690+218467695+220414676+222389038+224292961
3132+226098544+227846010+229608381+231401080+233136000+234747654+236308531
3119+237923455+239589296+241235012+242808591+244327912+245850096+247367733
3105+248820446+250213119+251582832+252920715+254221911+255485102+256691201
3092+257838411+258950927+260062742+261195468+262327324+263373345+264306865
3078+265250658+266276582+267283306+268189066+268998184+269731347+270437480
3065+271125789+271746985+272317657+272880637+273394946+273795183+274093472
3051+274351202+274592175+274787592+274892289+274873062+274740969+274541286
3038+274242996+273779576+273174183+272472485+271646694+270657457+269510107
3024+268192602+266666012+264918966+262958877+260750826+258245636+255450157
3011+252343251+248832572+244843428+240341884+235279127+229536356+222990529
2997+215569988+207112365+197234870+185577461+172329604+157956417+142615437
2984+126537828+110576214+96177176+84879640+77632536+74647359+75613565+79732985
2968+85899128+93242459+101540931+110991496+121515294+132340007+142208099
2955+149936994+154910870+157074880+156603770+153804318+149219970+143759166
2941+138696073+135199836+133705187+133836340+134876284+136339958+138245004
2928+140872280+144358118+148528644+153000435+157373100+161265953+164297297
2914+166243969+167131498+167051136+166102992+164538354+162617028+160579103
2901+158902147+157857740+157065365+156051048+154645603+152798436+150426855
2887+147421671+143862699+140279700+137738385+137486859+140149291+145300774
2874+152029063+159709398+168040500+176753411+185527161+194027687+202035377
2860+209501208+216495031+223156291+229613111+235922133+242068635+247954151
2847+253441817+258459130+263008335+267166679+271050031+274706416+278187145
2833+281636550+285114613+288518236+291782918+294941359+298016154+300986504
2820+303809519+306446465+308877385+311163636+313438407+315791771+318282506
2806+320933206+323662667+326371077+329007546+331526180+333883643+336046587
2793+337996571+339747855+341343889+342832137+344212208+345453084+346568744
2779+347590766+348514097+349333432+350041305+350631429+351158144+351653619
2766+352092562+352470035+352796871+353112058+353432438+353725142+354009088
2752+354315237+354637807+355004922+355429999+355858361+356287986+356790169
2739+357395787+358115252+358962151+359887082+360822960+361755947+362666058
2725+363543524+364499443+365657151+367011454+368507393+370076116+371607478
2712+372998047+374193872+375211880+376144951+377114820+378198678+379390939
2698+380623703+381828454+382970864+384051747+385095017+386104351+387051541
2685+387912054+388681117+389382366+390082717+390863822+391751730+392727185
2671+393759228+394791831+395771273+396690197+397576112+398425902+399221547
2658+399993474+400744798+401440096+402112209+402783508+403434963+404100704
2644+404787946+405459077+406090322+406651029+407159219+407660448+408155950
2631+408640815+409119645+409590082+410074020+410609100+411184263+411758949
2617+412300737+412789447+413233219+413669131+414122306+414555355+414934371
2604+415281473+415628855+415994258+416362187+416699549+417005473+417302191
2590+417595597+417906742+418264342+418633309+418972383+419297086+419639247
2577+419997829+420345184+420692342+421076775+421469489+421798570+422055767
2563+422288123+422531650+422776748+422974270+423098953+423179343+423272560
2550+423392022+423526950+423724050+424022228+424424654+424934865+425528918
2536+426165327+426809624+427455128+428131760+428836293+429517360+430159130
2523+430791891+431423613+432042731+432653486+433257924+433844680+434421414
2509+435031074+435701390+436398176+437095552+437799214+438515564+439283561
2496+440106377+440910920+441657304+442362595+443073976+443845594+444664480
2482+445466666+446239687+447022504+447839538+448681834+449517954+450334819
2469+451149776+451963357+452764869+453588751+454465544+455349466+456198695
2455+457006157+457742941+458413230+459074873+459742663+460357853+460892905
2442+461403256+461914281+462402373+462868881+463316470+463734530+464101168
2428+464387304+464603519+464793884+464979645+465171721+465391389+465647154
2415+465964447+466387531+466914022+467520707+468216286+468972409+469708436
2401+470387145+471007920+471619937+472269623+472928348+473526218+474004122
2388+474295927+474381875+474364360+474387657+474481183+474623100+474842207
2374+475094716+475240001+475330721+475463543+475435811+475403644+475732332
2361+476685276+478446047+480486610+481694477+481070390+478748182+477046693
2347+478320073+481652374+483917433+484198123+484057048+484337851+484884804
2334+485323804+485822703+486571304+487151379+487339779+487679470+488569595
2320+489539718+490056244+490333061+490826122+491546205+492265334+492912606
2307+493554152+494214223+494908820+495629127+496305591+496951123+497608612
2293+498222258+498768481+499288937+499771669+500148411+500442406+500768905
2280+501177478+501590767+501906431+502106283+502236018+502339986+502423295
2266+502488695+502556454+502631062+502720770+502898503+503268566+503858465
2253+504607908+505438808+506288177+507094713+507825013+508506529+509162166
2239+509775474+510348027+510913449+511496612+512080841+512639246+513176039
2226+513696158+514208306+514739933+515278634+515785954+516271268+516761522
2212+517243635+517695715+518145157+518620029+519095350+519553549+520042455
2199+520609506+521220738+521832418+522456674+523092213+523710349+524296880
2185+524848661+525400779+526011674+526679773+527341136+527944452+528521383
2172+529112068+529698767+530295514+530932738+531578213+532168449+532692667
2158+533207228+533752104+534319267+534862403+535342328+535775882+536199725
2145+536628900+537049543+537447899+537857426+538335947+538911755+539584065
2131+540334799+541139539+542000023+542916870+543849043+544768360+545671173
2118+546542885+547373953+548169598+548929708+549675558+550435331+551180508
2104+551864719+552476680+553065569+553721935+554415184+555075368+555691652
2091+556317142+556980975+557655643+558275351+558844815+559431346+560032978
2077+560628098+561217660+561790156+562345698+562867277+563349167+563890731
2064+564543280+565265552+565996470+566710771+567439724+568181083+568902963
2050+569601096+570305292+571016056+571689489+572301675+572815563+573262759
2037+573781755+574386811+574987601+575556729+576147638+576794293+577480076
2023+578178209+578849340+579530912+580269465+580963556+581615768+582289986
2010+582949272+583557921+584109871+584630271+585127093+585602021+586041470
1996+586400136+586811572+587390355+587871683+588249436+588641168+589022402
1983+589433445+589834383+590168011+590472785+590836391+591257876+591638492
1969+592059472+592608165+593112791+593564197+594006789+594414745+594807487
1956+595159360+595415462+595581350+595638106+595509269+595167949+594860986
1942+594549308+593930105+593192338+592385634+591437293+590461614+589588554
1929+588986754+588881776+589651260+591226776+593127779+595618233+598225847
1915+600316204+602249207+604152175+605900933+607408184+608758754+610046674
1902+611258695+612335536+613310037+614286783+615088491+615828896+616863858
1888+617760271+618435387+619226653+620027744+620794927+621557338+622335692
1875+623026921+623461036+624141767+625225119+626024919+626656865+627444763
1861+628255734+629035772+629818281+630555823+631200793+631754259+632212009
1848+632549904+633497346+634740299+635112046+635483287+636397159+637197407
1834+637628379+638273462+639394090+640057137+640610602+641527898+642227379
1821+642886328+643696681+644433493+644988474+645643493+646499487+647260551
1807+647852864+648322627+648907867+649779298+650525205+650821333+651092704
1794+652050196+653128327+653388191+653601347+654322440+654955453+655440037
1780+656008660+656250334+656247022+656817610+657843926+658217413+658441067
1767+658715750+659007219+659857318+660523004+660846022+661466180+661858865
1753+662428049+663636253+664580047+665130031+665693321+666367820+667256991
1740+667845543+667533190+668195002+669763332+669960152+669894526+670427726
1726+670932183+671115193+670701230+670480046+671279565+671812764+671488455
1713+671136469+671019758+670988321+670943579+670208394+669316023+669738069
1699+669428131+668597231+668413884+667289439+666019988+664744980+663215161
1686+662819276+662355182+660128970+657944806+656725487+656071815+654607790
1672+652816424+652220575+651548546+650224978+649700368+649738149+649057531
1659+647670190+646550011+647640886+649261817+647595583+646253602+647383942
1645+648197215+647924777+647835573+648173524+649724395+652110881+653220618
1632+653880241+655617209+657713124+659725675+662139219+663975159+665209747
1618+667896965+671340419+673482311+675398247+677867032+680242290+682243332
1605+684113965+685978479+687680586+689208720+690708898+692177077+693499859
1591+694721199+695909698+697035604+698078537+698933801+699337995+699596230
1578+700967010+702396566+701923266+701726109+702847579+703290958+702979223
1564+702237639+701670869+703129280+704296784+702961820+702095553+702043401
1551+701996863+701589469+700799886+700015638+699666234+700420898+700374697
1537+698278108+697106618+697069118+695977232+694471497+693337957+691915586
1524+690530604+689526518+687636854+685586860+683890086+681737472+679023589
1510+676129502+674327077+672365612+668044327+663217014+659020693+654286737
1497+647910686+639483069+629988492+619644040+608034180+596743072+587371661
1483+579798354+572992959+566433898+560323549+554204386+546794440+536946305
1470+526059840+516683490+508538921+499322957+488517892+478776027+473874667
1456+475740304+482758518+492248885+502024490+511065752+518801748+524815371
1443+529013096+531429897+533174219+534843990+535343450+535058718+534908998
1429+534540115+533937697+533708766+533714660+534198009+535611173+536976900
1416+538212780+540007178+542217334+544566095+547166579+550314073+553568959
1402+556472533+559043657+559909137+557859199+553729850+548654126+542410393
1389+533389003+521373377+509936535+503610166+504704578+513057250+526695211
1375+543691239+562434846+581659107+600731177+617674155+630318640+638522097
1362+642772929+644175876+644448314+644452636+644114180+643190259+641647136
1348+639797554+638386973+637886390+638075182+638535739+638969798+639573339
1335+640711988+642484155+644888324+647881606+651381535+655320183+659681382
1321+664503474+669688050+674989618+680426648+686103835+691875448+697611300
1308+703197432+708471099+713396429+717988749+722223300+726069938+729515805
1294+732542995+735071567+736977511+738126264+738241235+736950508+734024423
1281+729657891+724626123+720309890+718463509+720397746+726085937+734229439
1267+743248246+751968006+759740379+766391226+771932279+776438146+780013075
1254+782568424+784018695+784773640+785273606+784923529+782767658+779585527
1240+777266126+776011272+775268958+775938405+779069337+784521692+791410172
1227+798775207+805916139+812390095+818082440+823102475+827536822+831399908
1213+834722665+837619670+840253164+842720938+844943164+846845459+848551495
1200+850230753+851814128+853225383+854454863+855568193+856621119+857513266
1186+858105747+858472441+858772050+859026524+859114268+858985992+858700418
1173+858169408+857167343+855583182+853541104+851216650+848553853+845505892
1159+842468092+839877207+837691640+835697446+833763546+831678185+829133502
1146+825931947+822087050+817700757+812863507+807709582+802515014+797481786
1132+792528667+787649987+783069737+778802064+774446030+769430598+763297962
1119+755638650+745714448+732427126+714690693+691559952+662132651+625679220
1105+582471481+534730928+486008183+439396848+397133070+361847424+336785027
1092+324462214+325642461+338922737+360898578+387191409+413210876+434348800
1078+446365885+446024117+433043477+413231759+396915058+390464091+389995169
1065+383558181+359331568+314709121+258521527+204221703+161872146+135914179
1051+127823488+138555559+169124624+219639746+287505281+366725683+449046507
1038+526808834+594998076+651220306+695008065+726725967+747814125+758617505
1024+753839593+728172421+688923314+657805415+655552987+684078991+728311812
1011+773125494+812355794+845697659+873991083+897613706+916485982+930523589
997+940211450+946544274+950261401+951436147+949910987+945711747+938801935
984+928467251+912913972+889015767+852140908+797693370+727058249+655519473
970+609989581+610909685+656256566+725820179+797892099+860042174+908850810
957+945275217+971560974+990194887+1003526895+1013363634+1020725133+1026162330
943+1030185747+1033321171+1035815161+1037645936+1038884567+1039695762
932+1040109275+1039980270+1039202645+1037836019+1036014114+1033675739
920+1030501804+1026257091+1020895007+1014433626+1006909776+998511631+989754540
907+981485176+974553022+968749804+962152345+951874809+935030130+908954328
893+871489290+822248952+763842950+701834904+643968501+600942818+587851867
880+617500632+686108551+771414181+849554682+908916940+949070151+974165108
866+988196259+993674213+993167062+991099833+992611070+999569610+1009388384
853+1018523285+1025406150+1029916171+1032213903+1032920682+1032950884
841+1032644258+1031723369+1030061794+1027967394+1025772171+1023494761
829+1020913981+1018025116+1015070569+1012023618+1008476927+1004103995+998924134
816+992952502+985951971+977534628+967621653+957137418+948218536+943410759
802+943991788+948837066+955128685+960317191+963271850+964073951+963516388
789+962354666+960747096+958545922+955871728+953043043+950156647+946978109
775+943193617+939092842+935414619+932443231+929882212+927254332+924228546
762+920512485+915785041+910399996+905939152+904081262+904636636+905837205
748+906391513+906050193+904939445+903313630+901383828+899241037+897007864
735+894730848+892407966+890144142+887994671+885860638+883650819+881236713
721+879108238+876791363+874279408+872069421+870064898+867970667+865888786
708+863999010+862221903+860342906+858369877+856509180+854840756+853271753
694+851725261+850198923+848734842+847377648+846139635+844986390+843924650
681+842893731+841758956+840361567+838110149+835653827+837230409+842850055
667+842912874+836832558+834483797+836605255+838349746+838665467+838623307
654+838771905+839360793+840290327+841136497+841824469+842658232+843755506
640+844997112+846321522+847729016+849175245+850683226+852469989+854641073
627+856887102+858933784+860627750+862033448+863642702+866139836+869209354
613+872060551+874611521+877180624+879929594+882725551+885487264+888475269
600+891601037+894424334+897125193+900331463+904000143+907353888+910293109
586+913323724+916586637+919926460+923094725+926226556+929675623+933120649
573+936203921+939143423+942458657+945971666+949023220+951825296+955046274
559+958614411+962096206+965509626+968934947+972308172+975521067+978686020
546+982066430+985578878+988910560+991949988+995080697+998260582+1001016962
532+1003668925+1006634363+1009648641+1012202362+1014063451+1016029407
521+1018589191+1021181086+1023392927+1025449377+1027671771+1029789187
509+1031564722+1033069784+1034428550+1035834023+1036796005+1037365358
498+1037801888+1037279691+1035671111+1033768030+1032057053+1030585562
486+1029185703+1027928547+1027362563+1027835919+1028510362+1028344305
474+1027494262+1025585231+1022246362+1019047053+1017078965+1017311152
463+1020119740+1023972833+1027654705+1029813102+1030342709+1030349108
451+1029151234+1026659826+1022947527+1017983124+1012691998+1006897875
440+1000005241+993544871+989057642+987035436+988301125+993253739+1001334591
426+1010756469+1019325835+1026884266+1035890610+1045071207+1051455679
415+1056069331+1058970659+1060134963+1061041032+1062343660+1064131096
403+1066879167+1070362760+1073741823
##END=
