##TITLE=35
##JCAMP-DX=4.24
##DATA TYPE=INFRARED SPECTRUM
##DATE=16/11/2015
##SAMPLING PROCEDURE=Instrument type and / or accessory
##ORIGIN=Default
##XUNITS=1/CM
##YUNITS=TRANSMITTANCE
##RESOLUTION=4
##FIRSTX=3996.3359
##LASTX=399.24785
##DELTAX=-1.9287336
##MAXY=1.1782775
##MINY=0.067462057
##XFACTOR=1
##YFACTOR=1.0973564e-009
##NPOINTS=1866
##FIRSTY=0.25132352
##XYDATA=(X++(Y..Y))
3996+229026335+229085269+229184342+229318205+229485989+229660237+229846760
3983+230053054+230276730+230501628+230691111+230870057+231062039+231230094
3969+231365587+231508820+231680515+231853377+232029607+232206516+232365963
3956+232530270+232667365+232761224+232883681+233100404+233321581+233431165
3942+233595120+233814070+233923925+234005916+234067457+234170386+234443707
3929+234715317+234851897+235017915+235258157+235313289+235245637+235360110
3915+235655402+235856726+235947598+236066551+236118776+236113236+236286017
3902+236572103+236796729+237066872+237198183+237038030+236967853+237257523
3888+237374630+237276724+237510204+237650640+237687928+238025505+238224413
3875+238251571+238320390+238312324+238518374+238650472+238455258+238511476
3861+238838407+239139756+239041497+238496729+238541187+239457752+239881856
3848+239698320+239550389+239640935+239780583+239727352+239764315+240107949
3834+240314678+240322608+240441588+240598156+240774223+240871042+240729548
3821+240925793+241243980+241079401+241188496+241508637+241446255+241244577
3807+241357203+241700402+241551493+241411411+241780954+241868729+241790568
3794+241863759+241879104+241887984+241915876+241938988+242018507+242040695
3780+241992978+242161930+242447445+242582232+242563194+242550131+242718919
3767+242850963+242928038+242965109+242853978+242964104+243305864+243384949
3753+243150546+243237643+243788141+243822741+243179823+243254915+243792948
3740+243592602+243125397+243076784+243380197+243624431+243643578+243364852
3726+243131372+243178112+243223086+243195059+243113394+242934638+242550022
3713+242149872+242097348+242131676+241886572+241349110+240685415+240127476
3699+239576407+238837864+238045385+237197884+236216057+235382271+235034943
3686+234836172+234400281+234023976+233754837+233247819+232847968+233080443
3672+232982727+232466421+232456481+232456753+232101387+231739991+231447333
3659+231080751+230873262+231031839+230863349+230187895+229818108+229788831
3645+229538893+228968325+228366823+227849675+227350153+226887756+226446922
3632+225740060+224805177+224318242+223910610+222989713+221858448+220848581
3618+220097301+219285648+218180252+217099447+216098949+215090507+214140945
3605+213067419+211815123+210590189+209387715+208047603+206687801+205492388
3591+204241504+202729317+201258370+199979663+198629842+197180010+195764126
3578+194374722+192965994+191544950+190066928+188432094+186778318+185355196
3564+183959844+182357220+180732122+179199363+177654178+176008033+174304828
3551+172621571+170865027+169014937+167255596+165660196+164111358+162491529
3537+160825721+159208731+157589839+155897375+154177237+152422173+150597068
3524+148792006+147096854+145442602+143752650+142032457+140316475+138658570
3510+137070557+135522874+133900098+132138123+130446800+128944254+127464018
3497+125915398+124344794+122783844+121235672+119695757+118174336+116667485
3483+115113339+113522067+112008732+110603467+109218455+107758697+106178703
3470+104565535+103111908+101859775+100619938+99280810+97917315+96605888
3456+95345323+94101976+92862716+91615953+90349298+89099113+87896456+86734781
3441+85578775+84347425+83106956+82049229+81164127+80296922+79398913+78505792
3425+77637223+76795519+75970620+75157311+74352462+73499875+72585964+71706660
3410+70942066+70283179+69633492+68864294+67995365+67293561+66904104+66569460
3395+66039411+65413318+64960311+64696522+64421293+64047670+63637960+63259455
3379+62926963+62644761+62420705+62175629+61825185+61518052+61476887+61655575
3364+61829232+61896700+61953175+62065081+62162919+62193940+62204321+62321659
3348+62599013+62904421+63144779+63381294+63652225+64000747+64496454+65046396
3333+65497474+65843383+66175311+66580968+67121370+67791331+68479027+69118306
3317+69755976+70405283+71026562+71566768+72012361+72516507+73306759+74375071
3302+75454348+76358047+77144103+77928808+78750889+79662952+80699754+81750888
3287+82747856+83766156+84829959+85907458+86985587+88046207+89076993+90094913
3271+91202265+92513501+93966721+95401120+96756739+98083951+99448119+100866963
3256+102341053+103861137+105358353+106783661+108223376+109832124+111646861
3242+113525645+115333660+117050145+118703026+120396359+122257177+124261472
3229+126291378+128305043+130308211+132297637+134306047+136383900+138510516
3215+140654283+142827639+145007512+147186041+149389950+151619007+153864061
3202+156116393+158390601+160714576+163075487+165426960+167744907+170039116
3188+172339356+174674113+177039912+179389756+181681087+183960496+186300155
3175+188659993+190982163+193297176+195619508+197907241+200143101+202343982
3161+204524372+206688439+208826380+210934991+213053147+215215789+217381214
3148+219515353+221633306+223690533+225634143+227550622+229565074+231631793
3134+233612039+235466896+237247366+239030905+240846111+242621394+244307353
3121+245944102+247561459+249172679+250817304+252467061+254041346+255554904
3107+257061320+258548372+259975024+261323949+262620622+263919358+265256904
3094+266563218+267737379+268825449+269906240+270972719+272003104+272980341
3080+273928926+274949942+276050450+277067582+277900635+278624893+279341627
3067+280074493+280779713+281405086+281941381+282416597+282848142+283213285
3053+283498067+283732307+283930237+284045551+284056360+284021326+283970486
3040+283835427+283538397+283061959+282439899+281715886+280908117+279956626
3026+278779939+277379984+275788535+274009097+272016195+269757630+267190140
3013+264310601+261113554+257543380+253508853+248926734+243720517+237797077
2999+231053891+223404556+214702022+204563086+192603295+178986822+164100196
2986+148060077+131201488+114541236+99583666+87822307+80214721+77048580+78054184
2970+82350822+88688942+96174554+104648096+114365399+125272372+136534289
2957+146820695+154886693+160054508+162291590+161810033+158895528+154073777
2943+148290990+142923833+139228677+137664522+137846184+139009862+140643596
2930+142793827+145707721+149426383+153778349+158457913+163061229+167173741
2916+170431309+172567010+173531306+173466248+172544469+170972995+169000339
2903+166940641+165235467+164086658+163170310+162047953+160521847+158543217
2889+156006904+152761502+148941512+145171996+142524769+142222728+144922534
2876+150274699+157375655+165493308+174268287+183448997+192667104+201540219
2862+209877813+217649782+224894799+231747514+238405233+244982861+251424047
2849+257561304+263234698+268387521+273071674+277376480+281370677+285123110
2835+288738476+292283638+295768100+299216959+302622771+305921715+309077508
2822+312072497+314873658+317484031+319948129+322298598+324599611+326968791
2808+329470477+332098829+334820198+337566906+340247320+342773503+345101321
2795+347238163+349209067+351003795+352588345+353990962+355277423+356479531
2781+357583081+358556135+359419633+360231910+360980148+361607667+362127939
2768+362582351+362974408+363299710+363581369+363865119+364161171+364463361
2754+364775030+365071245+365358091+365687277+366065266+366483884+366975585
2741+367538712+368163162+368901786+369768977+370700452+371633856+372527689
2727+373365305+374204523+375166063+376321675+377655228+379134568+380695028
2714+382187213+383498144+384638385+385636751+386532241+387451114+388520526
2700+389733497+390971236+392140346+393238926+394297665+395313765+396262512
2687+397145401+397988775+398788043+399516619+400193240+400895554+401702372
2673+402633521+403654401+404683048+405627587+406487690+407327560+408168462
2660+408981608+409737912+410428927+411057452+411660447+412301030+412997423
2646+413700795+414361176+414986523+415588323+416140995+416630414+417075728
2633+417522374+417986210+418432285+418868067+419350126+419890142+420448543
2619+420999585+421536396+422032361+422469718+422885647+423316920+423737955
2606+424110893+424452544+424791371+425108417+425411340+425745849+426107842
2592+426458184+426771156+427072151+427396856+427722810+428053652+428412196
2579+428753032+429046233+429349944+429724104+430142857+430525708+430839576
2565+431108498+431363758+431610899+431798888+431907223+431996329+432104582
2552+432251481+432436375+432613909+432791850+433050342+433439575+433931276
2538+434488890+435108262+435773314+436472694+437198038+437893290+438544763
2525+439203433+439855449+440462410+441056063+441655202+442217514+442742348
2511+443303981+443937340+444596281+445244550+445899988+446585300+447318275
2498+448112899+448924579+449693240+450411414+451111690+451843118+452620198
2484+453406919+454167270+454906491+455665131+456455817+457246666+458027250
2471+458822227+459614163+460376496+461157351+461982203+462820362+463672154
2457+464522480+465318436+466044377+466730775+467385942+467998035+468575909
2444+469123692+469653985+470183408+470686380+471127756+471516663+471895250
2430+472261995+472570839+472818468+473040080+473242844+473431648+473636911
2417+473872808+474181760+474611893+475118993+475669763+476310210+477015565
2403+477696749+478355337+479011156+479645628+480265000+480887142+481482180
2390+481968585+482259124+482350159+482375633+482490187+482700555+482957146
2376+483273269+483594497+483773416+483901820+484194478+484492242+484709888
2363+484824224+485031279+486038906+487935750+489494146+489138264+486842248
2349+485154741+486546114+489990328+492268746+492547444+492400192+492581446
2336+493005442+493403419+493883849+494560362+495058608+495228130+495576951
2322+496391102+497196237+497561190+497756947+498239441+498985751+499726738
2309+500381850+501018277+501671000+502377061+503112616+503769140+504353369
2295+504936729+505504718+506051957+506590778+507084353+507474563+507788295
2282+508132825+508559211+508993960+509329583+509540983+509685193+509819953
2268+509938146+510016742+510071330+510146558+510290823+510541766+510939146
2255+511510828+512227426+513016755+513804617+514537021+515203323+515869027
2241+516535002+517172462+517761742+518298933+518825044+519378367+519941141
2228+520466871+520957241+521456139+521977252+522497387+523003509+523513976
2214+524033297+524527089+524970095+525397404+525847362+526305740+526755047
2201+527230751+527784128+528409638+529068933+529740014+530393660+530995922
2187+531555709+532096267+532650405+533281075+533953025+534568703+535149619
2174+535757150+536373589+536959882+537531347+538113620+538698121+539276756
2160+539832686+540364934+540905167+541454524+541995681+542520216+542997930
2147+543406825+543773082+544136840+544527105+544974456+545491550+546074747
2133+546747838+547524619+548359193+549207944+550061584+550921524+551800257
2120+552684803+553521061+554292247+555065444+555871556+556639593+557337615
2106+557998811+558639963+559265419+559889245+560530886+561159547+561774845
2093+562397367+563031839+563680487+564326583+564941393+565521331+566075360
2079+566608477+567127961+567666998+568244546+568824593+569364554+569854218
2066+570365066+571028162+571767465+572446748+573100992+573796081+574532559
2052+575264584+575982758+576687515+577352622+577952005+578481918+579010527
2039+579566620+580112773+580650779+581173847+581713863+582317809+582975582
2025+583659156+584361524+585051019+585684078+586325937+587033845+587680864
2012+588254447+588858068+589445393+589967538+590471216+590995425+591494268
1998+591966442+592440517+592821059+593184329+593731405+594195432+594495042
1985+594797585+595123376+595481974+595868111+596298787+596756947+597210436
1971+597629326+597956094+598309315+598848353+599376690+599815133+600255912
1958+600637921+600915913+601144206+601325949+601411823+601382547+601202976
1944+600773984+600384262+600133646+599539097+598637441+597678482+596753960
1931+595960395+595472686+595549001+596309542+597903244+600023112+602006916
1917+604308255+606754076+608638970+610247827+611827244+613348054+614673433
1904+615818807+616921759+617982236+618928105+619817756+620809957+621634211
1890+622248477+623184134+624102845+624738946+625431972+626154817+626853491
1877+627595618+628439643+629203443+629553785+630106619+631349491+632376781
1863+632909083+633442635+634136638+634913039+635666627+636366550+637072557
1850+637831794+638544808+638803029+639365586+640629587+641304253+641606959
1836+642358864+643279747+643852135+644437451+645533125+646194375+646632003
1823+647551691+648294688+648806350+649492857+650298101+650890368+651460475
1809+652339263+653246133+653901571+654253053+654660591+655582615+656639941
1796+657102718+657044328+657609438+658900543+659554895+659645549+660075247
1782+660680877+661277816+662069589+662588149+662560176+662798300+663742051
1769+664321717+664714969+665027778+665052438+665647911+666436099+667021360
1755+667957071+668499205+668775025+669843703+671064468+671819034+672290339
1742+672735464+673603606+674536275+674047969+673823425+675303063+676169303
1728+676268268+676414380+676684931+677162482+677046516+676408351+676748101
1715+677556168+677787937+677621620+677286704+677020444+677242327+677054120
1701+675914993+675898698+675623585+674596241+674391250+673575958+672423035
1688+671184508+668998592+667690703+667767778+666829731+664849457+662951147
1674+662118311+661227248+659578251+658921400+658699245+657490702+656484487
1661+656581768+656819294+656156524+654316169+654177173+656433538+656167658
1647+654367064+654507744+655425422+655731496+655872774+655887385+656877630
1634+659355824+661088414+661890344+663344834+665301154+667218529+669685751
1620+671816427+672970600+675297305+678889532+681390865+683064358+684963211
1607+686987373+688862164+690606215+692289866+693846144+695266360+696662079
1593+698031726+699254989+700359191+701429771+702448098+703468598+704568726
1580+705308083+705302054+706050482+707751568+707925490+707355166+708048626
1566+708940341+709430222+708972007+707216170+707441040+709298450+709143485
1553+708185340+707614528+707445820+707274614+706766320+706012026+704938947
1539+704995871+705570866+704093999+702216818+701749478+700973457+699551721
1526+698457893+697045011+695143061+693928271+692353851+690255493+688430999
1512+686518241+683960582+680045117+676589822+674693087+671543106+666360436
1499+660191213+653517607+646492029+637729951+626399947+614387782+603703983
1485+594777868+587031510+580026953+573723731+567753470+561250147+552979253
1472+543293575+533572646+524019175+514679222+505600369+496098390+486227982
1458+479688375+481563220+490356639+500462076+509718000+518225063+526045618
1445+532429445+536935548+539771471+541015755+541780478+543104879+543598020
1431+542875446+542216532+541911816+541785258+542125443+542516848+543093636
1418+545002972+547317239+549115063+551016578+553405258+556097513+558960214
1404+562259077+565493955+567713493+568448071+566504135+562262390+557611208
1391+551320207+541274356+528918259+517985092+511777033+512768745+521306062
1377+535189868+552056360+570890198+590493051+609461975+626373495+638984935
1364+646547758+650550564+652269575+652501561+652182668+651683010+650736164
1350+649144851+647295969+645991448+645681354+645880533+646007960+646395835
1337+647279077+648505491+650188490+652537356+655577998+659151485+663153911
1323+667574357+672336074+677383225+682693159+688137852+693708778+699469051
1310+705165502+710606339+715785425+720641327+725181486+729366361+733117736
1296+736466733+739442955+741956509+743861229+745007363+745152551+743907561
1283+741045837+736789373+731873180+727668099+725903516+727832787+733514953
1269+741721590+750801909+759565835+767366727+773993241+779532445+784043057
1256+787555764+790075402+791539885+792249857+792566686+791986042+789745048
1242+786595501+784217522+782861508+782145996+782884919+785977813+791304423
1229+798064664+805278449+812167800+818311765+823690247+828479394+832759540
1215+836484517+839624450+842295250+844733141+847078802+849226860+851076611
1202+852757274+854432235+855978302+857277935+858392891+859459071+860502275
1188+861354122+861867522+862178213+862509110+862843971+862941633+862714100
1175+862317372+861748515+860764353+859214538+857169736+854753626+852022263
1161+849083193+846234777+843721006+841522379+839532383+837616366+835549457
1148+833031884+829863218+826085282+821793838+817047601+812010825+806960633
1134+802040963+797150788+792292007+787712359+783460620+779127841+774132997
1121+768040035+760450815+750625924+737475989+719914516+696983687+667753276
1107+631392130+588107630+540191664+491217448+444252240+401605200+366031264
1094+340883096+328702223+330192209+343937209+366555011+393612542+420357645
1080+441981373+454083676+453309339+439430259+418569950+401490537+394824019
1067+394407330+387734647+362872972+317498262+260611587+205662915+162786061
1053+136602008+128652900+139842114+171179140+222840424+292257430+373269572
1040+457307718+536401779+605356239+661831248+705625020+737380066+758408023
1026+768687489+763029331+736441095+696275616+664402595+661884098+690631363
1013+735221036+780307923+819729971+853132439+881297322+904661598+923188765
999+936790831+946017153+951931359+955281388+956125033+954265777+949699057
986+942383917+931661173+915826153+891779933+854859978+800386535+729562118
972+657568592+611588088+612463237+658210831+728370141+801030784+863597668
959+912537827+948955897+975253159+993832687+1007012279+1016714414+1024000114
945+1029345191+1033254681+1036339211+1038822348+1040560261+1041596512
934+1042190410+1042470466+1042327070+1041581956+1040219479+1038385208
922+1036039927+1032839811+1028552930+1023280963+1017094739+1009868788
910+1001698923+993118424+985028731+978288261+972628365+966132320+955991197
897+939391508+913672283+876576614+827600063+769345752+707459236+649688397
883+606722464+593819181+623906599+692985770+778523732+856624506+915752500
870+955576219+980257671+993753820+998727263+997937826+995719645+997020201
856+1003708093+1013265855+1022193219+1028946725+1033392428+1035652432
845+1036270120+1036165072+1035814730+1034999547+1033471296+1031456151
833+1029308365+1027064221+1024524486+1021688509+1018814293+1015844915
822+1012327156+1008027021+1002998610+997204878+990342847+981998300+972229138
808+962020989+953410400+948836835+949480052+954181043+960204534+965170482
795+968075549+968958411+968446749+967274054+965654116+963347291+960538798
781+957699236+954826650+951651737+947973636+944026994+940420047+937449799
768+934893227+932279730+929254732+925534046+920833815+915500145+911059384
754+909224951+909850134+911019353+911425207+911069161+910097221+908586296
741+906729810+904622110+902367972+900058920+897646992+895243103+893082879
727+891056653+888868293+886358541+884147204+881750974+879182832+877028311
714+875163134+873180416+871159459+869326763+867599170+865713733+863661979
700+861711797+860063506+858651058+857247789+855697376+854073039+852614422
687+851452753+850465930+849529512+848555018+847468415+846097410+843699496
673+840957922+842310350+847606433+847108948+840782425+838695039+841264213
660+843345026+843811714+843818232+843959999+844504848+845375108+846072153
646+846524393+847224262+848422377+849925262+851423585+852715505+853880324
633+855207821+856908039+858909116+860853160+862742182+864604860+866324034
619+868115667+870578163+873708210+876726202+879214390+881542507+884128194
606+886915231+889672830+892447212+895430278+898438711+901268333+904292354
592+907775133+911330153+914522990+917553746+920683467+923745184+926753888
579+929858297+933035817+936517727+940067641+943300346+946501983+949834305
565+952847571+955418049+958237296+961718880+965432613+969063242+972670515
552+976073665+979173947+982283028+985552668+988793195+991828080+994829831
538+998135103+1001497951+1004294821+1006716797+1009443706+1012237316+1014595742
525+1016897679+1019272617+1021564124+1023766879+1025927484+1028289929
513+1030552866+1032354764+1033903982+1035569762+1037160803+1038071258
501+1038723383+1039406033+1039765718+1039478926+1038214111+1036490754
490+1034799771+1032909988+1030873768+1029321835+1029024398+1029828283
478+1030654981+1030678989+1029476855+1027221630+1024142098+1020261830
467+1017739477+1018592030+1022079371+1026118461+1029043191+1031399770
455+1032951269+1032702064+1031674069+1029446872+1025318486+1020106485
444+1014733815+1009481076+1003577299+997469508+993584569+992434905+993060306
430+996349500+1002951354+1011788987+1021772917+1031614212+1039340528+1046484787
417+1053727251+1058677012+1061869849+1064160162+1065612804+1066321201
405+1066968763+1069247235+1072325029+1073741823
##END=
