##TITLE=35
##JCAMP-DX=4.24
##DATA TYPE=INFRARED SPECTRUM
##DATE=16/11/2015
##SAMPLING PROCEDURE=Instrument type and / or accessory
##ORIGIN=Default
##XUNITS=1/CM
##YUNITS=TRANSMITTANCE
##RESOLUTION=4
##FIRSTX=3996.3359
##LASTX=399.24785
##DELTAX=-1.9287336
##MAXY=1.160484
##MINY=0.06480927
##XFACTOR=1
##YFACTOR=1.0807849e-009
##NPOINTS=1866
##FIRSTY=0.24475874
##XYDATA=(X++(Y..Y))
3996+226463877+226590197+226766482+226966219+227151921+227345468+227558937
3983+227743067+227859433+227943963+228086000+228296299+228508472+228719501
3969+228948109+229133880+229251514+229379185+229544509+229745956+229994266
3956+230196651+230291246+230376203+230581621+230821190+230924926+231020707
3942+231174408+231319437+231488415+231614404+231763666+232012583+232178886
3929+232248843+232417600+232669936+232801081+232861801+232999150+233168266
3915+233252562+233342841+233525800+233675117+233762694+233927811+234066346
3902+234090585+234237585+234436316+234492734+234553564+234759244+234757313
3888+234677843+234998427+235235155+235268190+235452720+235524138+235550748
3875+235727722+235854263+236069345+236144624+236013810+236169193+236391087
3861+236397181+236223433+236098216+236532793+237249101+237199715+236778925
3848+236661126+236859360+237150549+237313488+237505932+237824061+237895204
3834+237845652+237999630+238131133+238192266+238243886+238216918+238493465
3821+238784240+238640300+238801502+239063379+238888776+238654336+238771115
3807+239141360+239118418+239110366+239454471+239447550+239377041+239547701
3794+239613549+239612474+239665555+239735926+239803456+239812804+239826647
3780+240020910+240181119+240150346+240096575+240182774+240430615+240515849
3767+240471536+240462740+240422867+240550455+240784592+240761153+240554067
3753+240678705+241137989+241133412+240675754+240913504+241336637+240948275
3740+240497622+240557073+240908733+241176621+241241698+241012386+240809823
3726+240809630+240803646+240770336+240708348+240564380+240294589+240114223
3713+240256536+240327541+239951036+239339705+238762153+238326390+237825220
3699+237081806+236251835+235337485+234358445+233547887+233043959+232498587
3686+231748968+231196964+230899957+230584599+230350641+230434841+230200787
3672+229802705+229873999+229795576+229417748+229125373+228871438+228521391
3659+228272488+228259693+227984139+227456001+227278006+227272574+226926897
3645+226299628+225747265+225290091+224785253+224227072+223659819+222971954
3632+222260182+221916216+221421332+220377216+219288774+218436977+217792184
3618+216997550+215894259+214838644+213851511+212832888+211811562+210635322
3605+209359758+208200862+207097267+205865464+204582978+203370201+202061010
3591+200598268+199232865+197950421+196538734+195109703+193771351+192416151
3578+191011109+189609432+188132021+186462055+184812606+183430892+182023011
3564+180359015+178691339+177152271+175630850+174077140+172545530+170987491
3551+169284532+167487392+165700469+163982055+162414598+160916754+159294810
3537+157564084+155840321+154138300+152444344+150775096+149084174+147319710
3524+145573114+143930751+142362895+140763907+139066064+137322515+135661236
3510+134141511+132638580+131021172+129317717+127659016+126119824+124640730
3497+123158011+121665489+120164598+118640723+117109776+115601646+114116170
3483+112609047+111038571+109499916+108088767+106739240+105325272+103790153
3470+102231218+100835641+99611731+98370656+97023756+95674670+94417698+93191823
3454+91932935+90661631+89394904+88168581+86997408+85885582+84839908+83764798
3439+82587641+81397861+80318829+79331606+78370834+77462531+76642948+75852223
3424+75034385+74227921+73446661+72648980+71777289+70854977+70016216+69331840
3408+68760458+68158371+67365564+66474404+65808269+65431364+65001074+64338110
3393+63670057+63272140+63078387+62849103+62532104+62200856+61879480+61558586
3377+61272044+61049999+60792575+60410100+60061342+59965003+60079976+60200284
3362+60234036+60265043+60361003+60467214+60521895+60561223+60709561+60997813
3346+61298026+61552189+61805573+62037469+62270193+62633566+63128849+63652210
3331+64162472+64621219+65036087+65528123+66148644+66793389+67374863+67934402
3315+68566435+69245276+69817534+70250464+70719406+71431991+72395445+73383618
3300+74234753+75006728+75790132+76612789+77520520+78527328+79550666+80543645
3285+81533025+82541419+83582095+84622902+85626966+86621192+87634611+88734449
3269+90010944+91387142+92708970+93985430+95307706+96675280+98041421+99436763
3254+100908225+102383940+103790698+105226182+106817787+108512569+110224435
3240+111962523+113686280+115344726+117019096+118829017+120762197+122725516
3227+124694156+126669250+128619512+130560357+132558572+134646156+136782934
3213+138905055+141019662+143155089+145289633+147433952+149629532+151867909
3200+154103445+156320465+158553313+160820091+163087573+165339640+167600256
3186+169880532+172159664+174425836+176697384+178988153+181263052+183488055
3173+185704827+187981077+190287342+192529276+194717053+196913488+199094992
3159+201248080+203392578+205488642+207544680+209648134+211797320+213904110
3146+215920676+217864609+219779300+221724406+223730245+225727053+227650361
3132+229509903+231338712+233159139+234955934+236710926+238386916+239961239
3119+241532225+243191009+244885474+246504743+248008695+249481901+251011470
3105+252535441+253961163+255305347+256633483+257969202+259269073+260501138
3092+261682880+262825934+263925834+264995649+266055731+267067171+268019547
3078+269002750+270040414+271046008+271966755+272805219+273585169+274332857
3065+275039211+275684624+276264631+276763540+277184633+277548095+277886134
3051+278240662+278547458+278661231+278574757+278423151+278278935+278112467
3038+277846454+277420066+276853654+276175427+275361201+274389165+273216633
3024+271802768+270200099+268454675+266509059+264283312+261759096+258951440
3011+255820195+252275991+248230423+243631404+238456515+232603012+225919345
2997+218347442+209764678+199750553+187913864+174447192+159827567+144236362
2984+127877890+111611697+96946560+85430965+78041710+75031745+76044874+80187118
2968+86333967+93697778+102074262+111620638+122262647+133208108+143182801
2955+151024564+156116495+158395972+158001005+155170007+150455064+144830886
2941+139602130+135973175+134442310+134655931+135838569+137426982+139438088
2928+142181895+145748021+149943057+154466066+158934037+162929901+166091230
2914+168145752+169042220+168948576+168048110+166510834+164537740+162437775
2901+160736954+159699579+158895722+157812960+156327097+154403224+151908940
2887+148742316+145068222+141474273+138978211+138742406+141385634+146561654
2874+153442204+161388172+169963132+178813412+187681671+196336901+204579145
2860+212263884+219389215+226123122+232648538+239057285+245317983+251325077
2847+256951640+262087180+266732883+270994636+274956128+278659659+282210454
2833+285736569+289263208+292739743+296105953+299331256+302439283+305436433
2820+308258124+310853786+313270433+315621507+317973464+320354209+322868360
2806+325565386+328311193+330993770+333619433+336157078+338528227+340706049
2793+342692172+344473057+346063538+347514298+348841551+350040058+351139048
2779+352157602+353077798+353894864+354601521+355194873+355715208+356186570
2766+356612406+357003581+357354662+357680264+358000847+358311421+358614054
2752+358903588+359186918+359507750+359885247+360315881+360813881+361373206
2739+361997883+362739119+363604854+364544462+365494466+366416150+367317760
2725+368213662+369159447+370271011+371601104+373093833+374651776+376165765
2712+377529638+378704761+379725549+380686886+381719890+382836389+383951483
2698+385077937+386270763+387495052+388656940+389703869+390680951+391632774
2685+392506810+393244102+393887365+394554507+395337022+396218696+397138505
2671+398099787+399119692+400147898+401099832+401940446+402722934+403502305
2658+404262043+404967680+405630548+406311395+407022961+407710867+408370095
2644+409024498+409672173+410292052+410841864+411312040+411760212+412256088
2631+412792912+413314184+413815354+414333621+414876787+415407849+415908467
2617+416384158+416818239+417236713+417693736+418164988+418603288+419000805
2604+419365811+419721718+420066788+420375872+420665407+420987066+421351465
2590+421707179+422032368+422361747+422726450+423092725+423401176+423689773
2577+424010384+424349415+424702398+425077745+425461116+425808558+426095528
2563+426358728+426630504+426853198+426994435+427130103+427270596+427376731
2550+427473491+427582355+427735588+428012328+428440204+428965420+429547880
2536+430167263+430798310+431448246+432135463+432846201+433547508+434230561
2523+434899441+435532335+436116009+436691989+437294855+437881341+438429885
2509+439004101+439646343+440317566+440984543+441693406+442465195+443255513
2496+444046797+444832345+445596881+446349477+447097386+447854064+448635613
2482+449417825+450176074+450938487+451742593+452567849+453377966+454192109
2469+455020536+455830791+456615925+457415206+458268394+459162752+460035216
2455+460827465+461525684+462175840+462835703+463486300+464080039+464638316
2442+465169681+465639388+466080804+466542515+467001854+467416633+467786024
2428+468114659+468365644+468538096+468681595+468844341+469073101+469377966
2415+469748460+470193461+470714898+471293250+471919472+472588820+473273059
2401+473952499+474601884+475233234+475883059+476535808+477121494+477570631
2388+477837554+477950611+478029143+478174738+478372393+478599057+478884566
2374+479182262+479379752+479541395+479752617+479820672+479847640+480060241
2361+480658667+481973815+483798488+485116835+484657936+482431334+480877003
2347+482381590+485905195+488209448+488436498+488255718+488466334+488867877
2334+489195574+489646807+490305787+490802463+491014016+491396366+492241200
2320+493108204+493540134+493776891+494259448+494983063+495702156+496325345
2307+496924819+497553908+498239249+498957405+499631772+500282480+500939420
2293+501529904+502053768+502575592+503070117+503464987+503795883+504160586
2280+504570842+504945638+505222708+505429960+505619453+505784736+505882295
2266+505917591+505941471+505994745+506107746+506335458+506747259+507349490
2253+508075367+508863727+509677457+510479164+511205426+511869480+512511695
2239+513125287+513688032+514230150+514780045+515330436+515889045+516450245
2226+516992529+517524886+518048144+518555959+519064988+519579643+520066060
2212+520502733+520947238+521439115+521923548+522385369+522861694+523371440
2199+523924203+524509283+525115154+525749372+526402672+527036394+527637302
2185+528216095+528783086+529373019+529993781+530608531+531209604+531821101
2172+532438388+533040344+533638274+534237803+534833196+535415629+535957968
2158+536483156+537038455+537593258+538099695+538581536+539055104+539484497
2145+539862877+540242526+540660558+541102029+541583925+542171376+542872766
2131+543638460+544444634+545296472+546173182+547055959+547952192+548845833
2118+549712892+550541787+551326343+552075713+552806001+553522999+554221466
2104+554892910+555528617+556143312+556776814+557417208+558061740+558696399
2091+559309385+559919006+560554658+561182865+561778423+562369404+562949025
2077+563514361+564085102+564660531+565237118+565776645+566260526+566794427
2064+567435319+568143051+568848081+569523551+570217496+570943096+571687944
2050+572449613+573192916+573853275+574433171+575007663+575558274+576057928
2037+576595635+577173104+577724708+578275706+578897405+579588924+580293292
2023+580961758+581576398+582227713+582970685+583660549+584283738+584944483
2010+585619622+586220860+586728786+587230646+587759253+588271867+588720728
1996+589065026+589447487+589995120+590464607+590833943+591185741+591520277
1983+591920055+592344926+592716357+593048026+593420836+593850284+594246643
1969+594684419+595235692+595712514+596122274+596554866+596988065+597394406
1956+597735946+597983126+598143279+598200745+598097450+597795562+597516451
1942+597225207+596637039+595940006+595174808+594249070+593260682+592385295
1929+591842129+591829610+592679131+594281442+596130988+598540300+601085004
1915+603125091+605015667+606877456+608568558+610004758+611293600+612536171
1902+613724089+614808216+615805538+616798503+617600486+618330774+619362123
1888+620251849+620906307+621682314+622493782+623282970+624024730+624721543
1875+625346110+625811901+626585979+627686761+628386551+628929111+629713005
1861+630537709+631298109+632058950+632801923+633487210+634120214+634664263
1848+635044794+635972352+637146648+637455154+637795702+638677210+639459504
1834+639939414+640669151+641814439+642427480+642923273+643786196+644437234
1821+645079780+645888215+646622419+647210202+647938836+648824645+649535742
1807+650092199+650590529+651201419+652040021+652729995+653021515+653359085
1794+654374164+655419521+655627545+655870478+656646375+657280207+657739712
1780+658306482+658593094+658697106+659383661+660419477+660683146+660802600
1767+661051048+661368212+662228543+662858845+663157259+663796330+664216293
1753+664804627+666025800+666962347+667471266+667982225+668636904+669534129
1740+670127978+669854768+670601877+672172642+672250679+672091738+672612955
1726+673158659+673415655+673127389+673089887+674005202+674458254+673952038
1713+673476595+673354604+673417364+673492919+672848167+672033445+672529183
1699+672255752+671425423+671175706+669942400+668647051+667475898+666146632
1686+665925869+665426436+663000965+660705702+659539458+659003019+657628917
1672+655909414+655344904+654612961+653224961+652702917+652746540+652047466
1659+650713898+649789650+651072370+652606571+650686434+649240472+650302263
1645+650910837+650440137+650331051+650818131+652507081+654806701+655659973
1632+656130894+657794034+659872340+661894834+664303705+666104112+667335653
1618+670041504+673430766+675485467+677391706+679898357+682273752+684224993
1605+686029868+687843677+689527223+691057067+692559613+694027028+695337157
1591+696525572+697677091+698779914+699822293+700712680+701199043+701571191
1578+703015664+704413646+703891768+703741816+704934091+705373411+705039372
1564+704362964+703996055+705660685+706765603+705161086+704109497+703988500
1551+703939361+703583813+702893122+702251293+702050770+702828763+702601051
1537+700342903+699198443+699226293+698110731+696589435+695530070+694230364
1524+692946155+691961186+690009559+687882061+686101783+683902259+681303729
1510+678692626+677101510+675027506+670438966+665518425+661384095+656694796
1497+650284560+641831976+632405840+622162114+610568992+599201983+589740495
1483+582111182+575272435+568693442+562589947+556462076+548937822+538883148
1470+527849461+518451562+510312998+501059425+490254994+480603407+475768128
1456+477607030+484635601+494245219+504178179+513352172+521173185+527233774
1443+531487337+533994043+535819047+537476011+537868895+537514560+537389592
1429+537064872+536473891+536240113+536254507+536793427+538283950+539686289
1416+540959799+542830025+545092861+547436931+550014669+553161384+556443821
1402+559385050+561966262+562797860+560723084+556583405+551439454+545077308
1389+535943188+523836405+512342717+506012062+507165236+515639549+529424418
1375+546530606+565317581+584551433+603640021+620595430+633237603+641430820
1362+645628186+646933076+647128415+647091410+646712092+645736554+644162204
1348+642335215+640971315+640494328+640696671+641177629+641611820+642198555
1335+643358898+645196200+647638051+650618766+654119429+658108110+662535008
1321+667397917+672580417+677843987+683247084+688928796+694718932+700449617
1308+706008236+711253276+716162676+720740738+724941303+728739056+732137252
1294+735126626+737645244+739573378+740748391+740874131+739584077+736658621
1281+732305458+727314768+723056241+721246734+723193232+728894964+737052664
1267+746070529+754788768+762585956+769262619+774782081+779237161+782785143
1254+785357366+786854066+787617499+788013030+787502512+785274973+782106805
1240+779748285+778408375+777637773+778308996+781408338+786814689+793685588
1227+801045828+808145486+814536971+820137393+825086832+829468949+833272548
1213+836524322+839345490+841894771+844269284+846424633+848331534+850093778
1200+851825856+853417854+854769235+855906195+856972288+858013619+858869096
1186+859411767+859759594+860077034+860363701+860470249+860343626+860049128
1173+859477615+858423048+856819138+854744748+852343157+849675415+846764850
1159+843859690+841272741+839035164+836985316+834972032+832855067+830368932
1146+827242843+823468307+819137590+814299112+809138451+803978783+798968460
1132+793984829+789055906+784455839+780180546+775784973+770738748+764635142
1119+757045205+747197948+733965455+716247716+693120813+663678696+627153907
1105+583819104+535932213+487055612+440282436+397869869+362492435+337431360
1092+325177493+326447363+339853742+362031000+388586707+414864737+436182822
1078+448222020+447656987+434221654+413900367+397258483+390752948+390298573
1065+383744452+359303614+314456449+258093508+203691460+161276990+135309328
1051+127326010+138288581+169163631+220048884+288414844+368299475+451359277
1038+529752888+598305033+654637448+698468044+730269618+751360460+761958687
1024+756825766+730716990+690933974+659320239+656872929+685571301+730092809
1011+775092517+814463898+847969423+876349638+899936653+918714639+932637658
997+942212367+948441823+952030726+953060034+951390000+946997681+939846567
984+929272882+913489123+889367490+852279956+797624303+726753567+654944409
970+609225332+610141529+655665929+725570502+798066381+860552091+909538826
957+946115069+972586343+991291587+1004549614+1014333119+1021718727+1027174989
943+1031192402+1034326323+1036783339+1038516023+1039675484+1040470959
932+1040876748+1040716153+1039883728+1038477308+1036690578+1034429231
920+1031284502+1027020350+1021685307+1015310477+1007839056+999407374+990587770
907+982328706+975484223+969809901+963362715+953198680+936450467+910476752
893+873048284+823770471+765322359+703301393+645424078+602416366+589524530
880+619566176+688507841+773901345+851957773+911243990+951399044+976450992
866+990282243+995503568+994836591+992669440+994027880+1000829236+1010584283
853+1019754305+1026700042+1031217992+1033475477+1034096129+1033986492
841+1033590409+1032684635+1031065559+1029009258+1026895161+1024761761
829+1022295369+1019405872+1016431554+1013409256+1009845502+1005406857
818+1000192591+994277376+987369251+978981358+969077076+958654390+949859273
804+945219333+945932856+950753576+956855968+961860004+964791857+965660019
791+965096612+963922261+962376423+960202764+957522062+954702052+951784097
777+948567453+944820161+940780247+937112591+934142134+931595003+928951913
764+925907224+922202508+917453041+912002956+907486110+905564208+906095352
750+907279796+907713491+907322261+906339499+904822835+902952829+900876950
737+898654319+896375711+894069032+891764779+889546449+887334241+884996679
723+882458813+880299494+878001528+875525816+873406369+871561842+869623010
710+867558106+865507927+863562973+861709125+859910814+858164673+856478756
696+854864698+853318199+851785762+850226688+848670758+847221542+846009910
683+845125093+844452215+843747130+842648664+840352629+837592291+838831056
669+844012233+843583556+837404893+835328573+837767390+839691773+840085430
656+840074951+840190765+840742204+841683439+842482002+843002116+843683818
642+844773625+846112212+847493704+848845582+850231872+851745172+853432578
629+855297676+857270977+859379945+861392071+863121391+864818394+867142004
615+870084280+872984697+875536239+877989892+880743887+883696311+886443799
602+889227907+892353113+895444899+898360097+901539074+904968650+908047586
588+910954125+914227739+917613802+920761123+923878554+927306144+930849163
575+934083896+937237670+940479241+943766367+946982459+949868317+952578580
561+955642791+959205112+962853245+966322363+969644784+972891981+976121199
548+979566824+983198743+986519289+989423566+992236627+995397681+998800068
534+1001785195+1004441191+1007325505+1010361038+1012994312+1014959175
523+1016938267+1019235239+1021405589+1023424498+1025728530+1028307758
511+1030421855+1032094205+1033769534+1035163049+1036149452+1036560094
500+1036862644+1037422962+1037228836+1035963708+1034292350+1032538820
488+1030732015+1028917931+1027405734+1026963215+1027991200+1029235260
476+1029179008+1028036202+1025839932+1022369601+1019078174+1017064338
465+1017200116+1019790042+1023703334+1027986567+1030659659+1031108355
453+1031130194+1030330307+1027849356+1023642228+1018155855+1012398478
442+1006409694+999802685+993750589+989707255+988015161+988733427+992511051
428+999968795+1009605602+1018772536+1026879167+1035774546+1044003058+1049932611
415+1055480090+1059828290+1062029303+1063682902+1065692878+1067440562
403+1068882168+1070877694+1073741823
##END=
