##TITLE=35
##JCAMP-DX=4.24
##DATA TYPE=INFRARED SPECTRUM
##DATE=16/11/2015
##SAMPLING PROCEDURE=Instrument type and / or accessory
##ORIGIN=Default
##XUNITS=1/CM
##YUNITS=TRANSMITTANCE
##RESOLUTION=4
##FIRSTX=3996.3359
##LASTX=399.24785
##DELTAX=-1.9287336
##MAXY=1.1168406
##MINY=0.062629856
##XFACTOR=1
##YFACTOR=1.0401389e-009
##NPOINTS=1866
##FIRSTY=0.23498535
##XYDATA=(X++(Y..Y))
3996+225917288+225885455+225992944+226230285+226465520+226649683+226787027
3983+226917266+227080827+227265147+227466630+227694802+227932473+228139843
3969+228331083+228541906+228751784+228950444+229122673+229291836+229530194
3956+229763108+229858663+229868276+229979146+230180858+230317844+230505030
3942+230790736+231036027+231228728+231345171+231455353+231628241+231741790
3929+231796874+231948831+232190642+232337169+232405118+232542162+232750249
3915+232891433+233018591+233212782+233328279+233365126+233541051+233760226
3902+233864306+234035145+234192804+234186744+234235854+234494039+234540814
3888+234464399+234760520+234959395+234978004+235204314+235309268+235302104
3875+235408891+235471883+235674899+235811054+235753377+235935663+236137518
3861+236097892+235864964+235663309+236044470+236813368+236896731+236571313
3848+236464383+236609707+236824986+236900499+236990868+237242994+237329724
3834+237330355+237524001+237690728+237760296+237770238+237690370+237968770
3821+238338613+238280048+238470614+238724917+238562315+238403295+238606153
3807+238978805+238902475+238896214+239300684+239285513+239104430+239190230
3794+239274969+239333018+239411640+239499860+239642119+239739035+239734737
3780+239830908+239961376+239972321+239916579+239947093+240150610+240234977
3767+240237126+240293384+240285691+240394584+240586067+240535525+240326750
3753+240458994+240916141+240872188+240353726+240584921+241076278+240750101
3740+240301020+240291021+240511170+240677067+240772364+240668328+240572199
3726+240593373+240527731+240432204+240374785+240251065+239926779+239614183
3713+239629684+239673851+239369048+238859010+238383869+238000502+237403174
3699+236432837+235394021+234374574+233335371+232445819+231887214+231335085
3686+230583537+230053556+229804582+229448635+229041415+228983652+228758345
3672+228425635+228545187+228467582+228002714+227597972+227302109+226970001
3659+226740711+226739493+226469560+225925626+225723441+225734214+225436933
3645+224805753+224194944+223721623+223275636+222774695+222193942+221428168
3632+220636678+220281547+219835876+218812317+217704048+216838535+216167385
3618+215312115+214175050+213142838+212194750+211221361+210266009+209125477
3605+207804394+206575026+205465983+204281384+202989239+201675046+200290225
3591+198859389+197555554+196270945+194793577+193268131+191851564+190504607
3578+189169985+187815135+186390401+184842048+183302949+181924289+180471061
3564+178809330+177193701+175729156+174258693+172660571+171000760+169350133
3551+167663561+165952233+164270675+162643199+161093542+159539014+157871882
3537+156149380+154488123+152911977+151345372+149730989+148028042+146238781
3524+144519674+142944502+141402653+139790749+138113288+136437934+134836903
3510+133324666+131818130+130250651+128622845+127017717+125509893+124019388
3497+122467725+120901966+119385438+117918220+116503315+115128465+113735865
3483+112270675+110726827+109211495+107805780+106476108+105107189+103571937
3470+101962489+100528294+99305695+98115939+96847331+95560931+94353805+93190760
3454+91983103+90699783+89401757+88222230+87154331+86086892+84974325+83783157
3439+82509980+81238193+80140410+79279618+78498428+77651203+76760118+75911395
3424+75118121+74336997+73562540+72793027+71948136+71055203+70277166+69610621
3408+68948969+68256745+67451122+66548533+65870377+65572158+65302483+64768978
3393+64124280+63676868+63433489+63197086+62889426+62520714+62112061+61713430
3377+61396543+61174087+60931897+60588062+60279284+60212976+60378027+60560083
3362+60627918+60653261+60719433+60802002+60832387+60827258+60942448+61227831
3346+61535585+61788756+62020403+62231577+62462636+62808118+63262063+63758735
3331+64269447+64749895+65172659+65605638+66123405+66728878+67394570+68038365
3315+68599411+69120438+69630133+70134520+70678591+71381681+72323990+73330328
3300+74158164+74825088+75530213+76356930+77258445+78235716+79255736+80235536
3285+81209598+82231559+83257711+84263212+85287959+86324362+87331016+88404673
3269+89664426+91014800+92306673+93543247+94820908+96165050+97514112+98907901
3254+100392468+101846648+103198154+104558713+106080019+107754313+109430907
3240+111059702+112709871+114356322+115961515+117681316+119610422+121587772
3227+123478348+125356345+127305701+129262865+131189529+133161061+135212935
3213+137288906+139349733+141419286+143529295+145674675+147807778+149927773
3200+152113696+154372210+156615094+158805387+160963790+163123855+165323531
3186+167557762+169802308+172046009+174269868+176489415+178722786+180951387
3173+183157625+185334781+187503541+189692416+191885245+194040481+196155118
3159+198247449+200304867+202312587+204314649+206395047+208549381+210675049
3146+212712381+214639947+216448048+218260847+220210189+222187395+224062155
3132+225872805+227666752+229436172+231169819+232870073+234534912+236161858
3119+237760984+239370223+241020349+242632554+244120666+245544597+246991336
3105+248433948+249836103+251239949+252664339+254037039+255271149+256388702
3092+257497859+258673518+259882643+261020310+262071418+263068287+264006276
3078+264952173+265966864+266970466+267862869+268642927+269378659+270101642
3065+270789554+271456377+272111970+272703553+273203535+273609738+273922763
3051+274189201+274447329+274635660+274678295+274616893+274494290+274282120
3038+273957289+273505615+272925894+272235088+271406866+270390657+269179813
3024+267785795+266194105+264383368+262359459+260104154+257557055+254719049
3011+251592974+248058833+243986230+239363074+234206256+228427684+221884412
2997+214485770+206084714+196271160+184635379+171408038+157110721+141900658
2984+125993056+110212669+95970150+84771796+77576872+74665552+75738006+79913055
2968+86045489+93303327+101498874+110861299+121321950+132076459+141861175
2955+149528303+154503624+156737783+156352740+153615332+149078090+143655164
2941+138607783+135113755+133633251+133788159+134841731+136305603+138211136
2928+140846255+144302662+148370580+152731697+157043732+160903233+163918195
2914+165839845+166647251+166502371+165563093+163972936+161944256+159814749
2901+158146958+157213153+156532404+155554803+154161788+152351324+150007168
2887+147002764+143476073+140002045+137614238+137467982+140109763+145169923
2874+151877172+159616547+167947719+176560945+185236317+193694806+201710031
2860+209202480+216171425+222752589+229168402+235482370+241610356+247482750
2847+252985129+257996838+262545899+266723627+270567011+274146881+277617156
2833+281077374+284505874+287870738+291185775+294432992+297544283+300455295
2820+303155282+305705304+308154413+310512092+312818054+315171235+317684410
2806+320359012+323079544+325758357+328361185+330831439+333144966+335335946
2793+337372548+339189330+340794688+342228217+343527539+344742653+345897740
2779+346958217+347878098+348662224+349364233+350011057+350584131+351083425
2766+351502894+351841793+352156710+352485638+352838204+353215783+353553880
2752+353805704+354046355+354370498+354775555+355222788+355711337+356262807
2739+356911924+357684074+358564500+359498563+360424117+361314658+362181389
2725+363086685+364120000+365304112+366622345+368099941+369706616+371269826
2712+372628602+373779448+374797491+375757657+376759025+377870159+379078940
2698+380337777+381587904+382776829+383880686+384910362+385908492+386883786
2685+387785787+388587878+389317537+390026852+390799001+391695330+392686555
2671+393697865+394703329+395704955+396649935+397501594+398315118+399133197
2658+399939013+400709100+401422254+402070913+402681377+403329778+404074393
2644+404836056+405517578+406138186+406726818+407264649+407739990+408206592
2631+408717032+409231942+409716938+410202966+410727073+411292354+411862047
2617+412386984+412857913+413318899+413799369+414278750+414723432+415113934
2604+415461715+415806917+416156389+416486721+416811838+417148960+417488633
2590+417820426+418158895+418519770+418868640+419187339+419499649+419825539
2577+420178019+420535714+420873782+421201736+421538228+421892484+422245509
2563+422561629+422822622+423026999+423178655+423299167+423407816+423499847
2550+423591448+423720011+423905591+424185152+424599148+425113571+425670542
2536+426263042+426899408+427579871+428298326+429025377+429727128+430398249
2523+431051492+431691412+432321016+432944059+433552003+434127283+434668123
2509+435245122+435924123+436630000+437296623+437975796+438699208+439469496
2496+440297231+441148031+441968488+442763874+443562785+444343702+445090982
2482+445833161+446597317+447401414+448236885+449070035+449914331+450800144
2469+451681000+452505841+453313949+454172887+455090991+456001101+456843133
2455+457616429+458338322+459041535+459746208+460419851+461043210+461638575
2442+462199672+462703608+463174193+463627557+464049462+464434634+464769922
2428+465060943+465328126+465557114+465746105+465940768+466165058+466400121
2415+466681744+467095253+467645291+468260655+468924557+469653957+470402841
2401+471104191+471733079+472343830+472992804+473674613+474343529+474911474
2388+475258309+475364867+475374379+475440222+475569931+475741959+476006133
2374+476317612+476512647+476623790+476761865+476771778+476768140+476956070
2361+477547968+478850671+480538318+481711656+481385479+479463686+478051503
2347+479430793+482709958+484919677+485264306+485158809+485363157+485883023
2334+486393148+486898860+487542390+488045924+488254971+488688251+489726551
2320+490831267+491379385+491581612+491970767+492633379+493355187+494024790
2307+494672102+495325717+496019102+496727614+497365127+497981552+498653390
2293+499299727+499861770+500368800+500818526+501177997+501492542+501844105
2280+502242600+502630494+502951858+503193454+503364508+503478315+503551836
2266+503610975+503661116+503697218+503754981+503912625+504260005+504843594
2253+505626088+506515625+507402241+508200263+508905281+509568867+510218986
2239+510838849+511404731+511930557+512479191+513086619+513713702+514311789
2226+514857099+515347568+515823883+516311831+516803905+517321594+517864554
2212+518377830+518838157+519277855+519729930+520200114+520674824+521168502
2199+521714041+522304793+522919212+523539018+524163121+524801494+525415110
2185+525972454+526539711+527187768+527877485+528527547+529126265+529722232
2172+530340318+530955138+531548297+532124895+532704988+533305081+533895031
2158+534448765+534990063+535525746+536053692+536576080+537041564+537424301
2145+537775807+538144390+538558644+539013756+539496547+540067815+540770770
2131+541555612+542381829+543253946+544167380+545096744+546016195+546913011
2118+547789197+548647503+549488562+550316268+551121683+551871512+552565241
2104+553238683+553887829+554519439+555198612+555892741+556547617+557163641
2091+557785968+558419354+559059790+559711285+560362436+560993530+561589726
2077+562165293+562736046+563308346+563879099+564408077+564911898+565496862
2064+566160678+566853776+567561257+568275099+569016963+569778827+570540633
2050+571308170+572063443+572760266+573387979+573983144+574543582+575070153
2037+575612598+576153953+576671413+577204517+577809137+578497994+579233039
2023+579965906+580645710+581313880+582049670+582765060+583436038+584115440
2010+584767852+585359578+585889588+586405214+586954993+587521391+588012376
1996+588352937+588718024+589254050+589686069+590002218+590357219+590750213
1983+591171058+591561703+591926159+592310959+592740514+593184280+593573205
1969+594006026+594539474+594988627+595398755+595858051+596293336+596675328
1956+597001447+597235708+597380975+597436675+597338971+597025229+596695155
1942+596312074+595616913+594832873+593986600+592957812+591882092+590955822
1929+590353380+590271205+591088768+592728078+594668123+597162702+599754872
1915+601831644+603797189+605788807+607625073+609186678+610575453+611876208
1902+613072726+614149821+615159527+616187512+617046392+617844758+618912743
1888+619797066+620464033+621293000+622140247+622932998+623688156+624415121
1875+625063121+625528376+626288921+627413179+628189769+628793071+629569834
1861+630367054+631142556+631940808+632691726+633355599+633966980+634493380
1848+634839270+635732704+636929738+637304280+637697790+638617528+639436180
1834+639936620+640651093+641760794+642367363+642900868+643814588+644504133
1821+645176487+646015310+646767145+647327698+647996900+648857786+649589163
1807+650155733+650644311+651265893+652145403+652869846+653145997+653405758
1794+654343833+655386889+655619144+655846414+656603980+657247051+657714484
1780+658276068+658540757+658581673+659191278+660215768+660534439+660695120
1767+660930699+661194930+662024642+662693214+663054003+663729852+664154364
1753+664711307+665887310+666821431+667392355+667975830+668661593+669568437
1740+670167727+669838112+670478031+672025081+672173958+672061527+672598183
1726+673168592+673438382+673098681+672928658+673697169+674084032+673607029
1713+673200110+673112377+673131574+673126015+672418935+671548479+671963593
1699+671559998+670569317+670246464+669057796+667808042+666610206+665171004
1686+664817205+664287425+661920176+659629772+658374460+657729039+656284564
1672+654516892+653924822+653185995+651758826+651171914+651201254+650540876
1659+649202759+648167324+649331579+650935418+649213303+647895127+649078580
1645+649908865+649665034+649651281+650071552+651670577+654075705+655211652
1632+655931855+657755227+659941795+662018568+664454296+666292854+667545760
1618+670261248+673720893+675878752+677823609+680313949+682701083+684724848
1605+686631198+688536859+690272498+691801325+693271357+694717379+696048334
1591+697284277+698461369+699555427+700573499+701419714+701818038+702052872
1578+703376950+704765323+704303850+704171992+705347537+705800816+705491773
1564+704743720+704151076+705598416+706744793+705363181+704476910+704419376
1551+704362415+703937789+703148477+702386098+701997745+702614227+702443803
1537+700344624+699245811+699257443+698173930+696677938+695538324+694060498
1524+692619404+691614168+689748849+687695915+685943887+683719498+680989225
1510+678138899+676332890+674204429+669655540+664730790+660529969+655750257
1497+649260178+640735158+631211207+620866884+609232579+597900842+588520094
1483+580973778+574195171+567645495+561522508+555349781+547872173+538017976
1470+527204157+517905240+509760321+500478882+489657556+479994928+475139030
1456+476870858+483665682+493016976+502767166+511831020+519570738+525561810
1443+529746930+532179162+533959556+535653363+536125552+535793472+535633650
1429+535277502+534643428+534311921+534182299+534554434+535882581+537131991
1416+538220776+539884842+541974795+544190130+546687002+549826257+553160119
1402+556169006+558827534+559672776+557433832+553154732+548205972+542220860
1389+533339980+521330789+509848971+503457227+504485155+512818605+526514898
1375+543606770+562431530+581738679+600944055+618054035+630852079+639183753
1362+643509155+644934146+645242272+645319863+645059815+644194230+642677151
1348+640815614+639386841+638901013+639135732+639651473+640112086+640692868
1335+641795865+643540959+645907291+648859448+652341957+656280095+660633346
1321+665446638+670646965+675978462+681424109+687104934+692914178+698694484
1308+704279209+709530250+714485600+719173109+723495588+727351666+730753834
1294+733749886+736264407+738155800+739293180+739401371+738103252+735157628
1281+730742259+725652931+721293777+719358031+721136934+726711918+734821595
1267+743795767+752435854+760149671+766778198+772299143+776754454+780260458
1254+782756872+784166735+784940116+785551956+785323885+783166714+779934854
1240+777718545+776661850+775977118+776505695+779445760+784814276+791760556
1227+799269509+806566723+813161726+818942433+824052563+828622540+832676833
1213+836184729+839203244+841914263+844458124+846757582+848731665+850543118
1200+852376920+854065683+855480474+856693668+857824687+858897886+859794071
1186+860415080+860838045+861190754+861533320+861719503+861589249+861235853
1173+860680515+859718544+858220890+856234029+853845176+851078743+848016505
1159+844994666+842337285+840046823+838004835+836092870+834047042+831499742
1146+828252467+824364299+819945778+815077473+809883336+804606966+799490533
1132+794496904+789536052+784816396+780459018+776075969+771038960+764857809
1119+757109609+747068026+733655047+715795581+692543475+662983862+626361469
1105+582980868+535156991+486421399+439783839+397481796+362175171+337084393
1092+324621379+325496820+338411565+360047283+385978632+411590796+432384911
1078+444222188+443885954+431129942+411710104+395670629+389142958+388483097
1065+382168427+358324022+314034772+258123309+204128968+162001904+136099035
1051+128000590+138722435+169155799+219304076+286655825+365360986+447216692
1038+524633706+592688710+648955948+692829711+724513201+745572780+756710827
1024+752569144+727505414+688746823+658020834+655995578+684520615+728587838
1011+773278191+812551433+846030560+874470730+898269864+917348827+931559829
997+941367896+947816086+951710729+953128042+951813476+947727665+940871066
984+930550983+914981005+891104108+854329914+800025184+729548548+658162433
970+612731133+613665770+658919540+728320742+800255720+862314610+911096733
957+947598787+974018572+992776744+1006183935+1016048677+1023471788+1029043162
943+1033202896+1036423409+1038970021+1040826687+1042036729+1042799567
932+1043234164+1043199667+1042502844+1041178422+1039367829+1036961040
920+1033641848+1029255876+1023815959+1017356824+1009858873+1001371044+992375727
907+983856036+976731596+970774334+964064206+953697305+936754540+910526611
893+872823053+823331672+764772597+702727231+644854722+601768839+588543933
880+618038104+686564610+771844776+849912081+909260869+949671892+975184260
866+989526776+995192816+994848187+992898802+994437543+1001424681+1011359105
853+1020633152+1027592211+1032103910+1034424857+1035220358+1035293020
841+1034967760+1034082634+1032522920+1030538236+1028425992+1026177134
829+1023582844+1020641977+1017621571+1014598758+1011133899+1006735892
818+1001429495+995398081+988391688+979865694+969786519+959225299+950318574
804+945520410+946091908+950944625+957227950+962364096+965287886+966127970
791+965574867+964360699+962746317+960548001+957882826+955103959+952210769
777+948954497+945143232+941088881+937390849+934311992+931724350+929172007
764+926180655+922438040+917684517+912283796+907843957+906037376+906598960
750+907684651+908094722+907783444+906753739+905054661+903024763+900846390
737+898640682+896450160+894108755+891746663+889635278+887542002+885153149
723+882492845+880231380+877917939+875518027+873503544+871698739+869732621
710+867700374+865821359+864091393+862324352+860451411+858602080+856873833
696+855212633+853541290+851890519+850334644+848896645+847618926+846491002
683+845451498+844494455+843591795+842414474+840158739+837572644+839102961
669+844772554+844843784+838708935+836354408+838576562+840436036+840756884
656+840624224+840678949+841239044+842180213+842977548+843583428+844449070
642+845705643+847094934+848461360+849869045+851407041+853030420+854660332
629+856348523+858170405+860241677+862322231+864140389+865916141+868380063
615+871486139+874483623+877045708+879406997+881950458+884699240+887481374
602+890527853+893927902+897144117+899993183+903116450+906683427+909936202
588+912832028+915950769+919256952+922415347+925428820+928723771+932407191
575+935842023+938794122+941652356+944911149+948439731+951626606+954424614
561+957346513+960657396+964131252+967663158+971273227+974788630+978065301
548+981329710+984728899+988127056+991506303+994745497+997857705+1000858971
534+1003566609+1006231498+1009118728+1012066472+1014718525+1016700573
523+1018660960+1021199779+1023719114+1025788380+1027963430+1030615024
511+1033060093+1034872749+1036199005+1037339250+1038743668+1039750509
500+1040194160+1040684457+1040562284+1039316026+1037406296+1035401555
488+1033561851+1031751258+1030303288+1030164496+1031196779+1031806843
476+1031273911+1030366093+1028632059+1025327767+1021777982+1019247644
465+1019235610+1022216476+1026393860+1030671412+1033473029+1033970661
453+1033346730+1031489949+1028660138+1024953339+1020123600+1014887573
442+1009231962+1002948752+997088220+992626491+990602152+991884169+996041152
428+1002854314+1011705568+1020271331+1027856958+1037105906+1046251247
417+1052499272+1058308459+1062947144+1064506514+1065112452+1066835025
405+1069098668+1071214121+1072847758+1073741823
##END=
