##TITLE=36
##JCAMP-DX=4.24
##DATA TYPE=INFRARED SPECTRUM
##DATE=16/11/2015
##SAMPLING PROCEDURE=Instrument type and / or accessory
##ORIGIN=Default
##XUNITS=1/CM
##YUNITS=TRANSMITTANCE
##RESOLUTION=4
##FIRSTX=3996.3359
##LASTX=399.24785
##DELTAX=-1.9287336
##MAXY=1.0567014
##MINY=0.025321173
##XFACTOR=1
##YFACTOR=9.8412989e-010
##NPOINTS=1866
##FIRSTY=0.11765629
##XYDATA=(X++(Y..Y))
3996+119553620+119549418+119561092+119630076+119707979+119747892+119819875
3983+119984402+120158014+120237824+120277328+120402321+120567030+120648468
3969+120719429+120895758+121103257+121220520+121249614+121273462+121374637
3956+121544532+121670638+121733497+121845431+122017082+122135208+122186363
3942+122255522+122371884+122502169+122566217+122536328+122543944+122668990
3929+122805717+122892939+122976323+123030106+123012693+123028372+123179726
3915+123358108+123407000+123361348+123319353+123317673+123421361+123641427
3902+123842771+123942947+123973275+123963569+123979301+124073193+124111342
3888+123997956+123935361+124034174+124160348+124299195+124414171+124404716
3875+124364492+124405988+124533986+124648652+124616984+124534879+124539853
3861+124554661+124438284+124196611+124146062+124569939+125047720+125095090
3848+124889772+124723057+124659743+124666436+124790088+125059538+125277537
3834+125324976+125334787+125361429+125350232+125306866+125274714+125358627
3821+125576733+125717828+125797934+125956579+125998604+125814317+125622339
3807+125571842+125535502+125520081+125727012+125987043+126059056+126048790
3794+126015903+125940567+125878752+125860362+125900321+125994501+126063659
3780+126082821+126104715+126124853+126095812+126043339+126071654+126166091
3767+126190189+126127556+126054794+126052424+126130865+126132939+125969025
3753+125844191+125975468+126164304+126145794+126165637+126381221+126365716
3740+126022429+125786025+125862861+126034368+126058034+125888768+125677703
3726+125591829+125589974+125562772+125512442+125405203+125168095+124870512
3713+124697892+124662999+124537499+124192902+123732897+123297572+122847091
3699+122243939+121484140+120663920+119850120+119104251+118555449+118221262
3686+117906539+117533878+117190167+116850067+116473991+116271739+116312015
3672+116304255+116181609+116012926+115759564+115474541+115222905+114986827
3659+114805380+114750984+114689169+114454779+114228233+114209556+114214038
3645+114020681+113671330+113288751+112922078+112556010+112157684+111684120
3632+111179644+110843746+110669801+110297101+109615168+108875023+108284113
3618+107797527+107241275+106596249+105942183+105289950+104636770+103964043
3605+103225208+102435990+101644356+100850497+100053307+99289315+98546725
3591+97763661+96936529+96081748+95196162+94341132+93568001+92803380+91961265
3576+91057373+90143238+89230011+88329935+87470294+86623629+85732569+84806472
3560+83910098+83049117+82161706+81217780+80255821+79317353+78357370+77336056
3545+76348605+75488086+74680721+73807112+72880250+71968916+71057022+70124422
3530+69205903+68285635+67351294+66486588+65717705+64947519+64103989+63207281
3514+62306436+61414737+60510724+59615913+58768336+57941165+57144748+56414683
3499+55685073+54890230+54091855+53381588+52732886+52050851+51298002+50516048
3483+49730646+48943695+48231399+47615558+46970513+46226901+45454342+44704798
3468+44003912+43403258+42862321+42290958+41692632+41096146+40473832+39819206
3452+39203146+38668512+38160770+37634960+37124447+36631256+36090308+35484324
3437+34893107+34395646+33963558+33548300+33184220+32891035+32579466+32172710
3422+31741078+31390553+31096110+30727919+30267748+29848994+29537727+29289969
3406+29030664+28676844+28266969+27993147+27891504+27755430+27477048+27167460
3391+26976114+26917121+26878508+26777893+26617106+26449770+26333266+26282357
3375+26246657+26120919+25893954+25729503+25739579+25845445+25932345+25969215
3360+26010157+26103705+26202560+26237290+26228465+26276003+26425196+26599042
3344+26727713+26843868+27000217+27204254+27452322+27724450+27967291+28147255
3329+28297274+28494494+28783718+29136083+29502337+29854147+30169326+30453196
3314+30738225+31031617+31299184+31542180+31874608+32358965+32865117+33285417
3298+33666872+34051352+34440998+34894712+35437920+35984738+36482154+36974486
3283+37498502+38025277+38527738+39034754+39554666+40077516+40661211+41339443
3267+42064912+42801888+43511863+44162458+44798259+45485488+46241456+47012008
3252+47733752+48425391+49172414+50051202+51027239+51990853+52893022+53750544
3236+54601073+55491319+56465956+57528379+58636378+59737817+60804597+61854577
3221+62912999+63996022+65114295+66279241+67493457+68702835+69877638+71070604
3206+72312445+73564674+74803586+76068784+77352787+78590624+79806324+81061725
3190+82345842+83649196+84976140+86299753+87607195+88923041+90284728+91665507
3175+92979899+94227086+95498938+96829494+98135937+99367815+100604630+101907099
3159+103228395+104512906+105733171+106897897+108103513+109419215+110768326
3146+112043691+113209228+114291342+115383306+116579005+117829901+119009125
3132+120102028+121176784+122272874+123369948+124402460+125346378+126267690
3119+127232489+128243151+129282097+130305372+131266900+132188091+133076895
3105+133899454+134677241+135472198+136306583+137140483+137907701+138590838
3092+139262786+139982641+140683993+141310941+141936631+142577811+143145555
3078+143661864+144220417+144792764+145303531+145764482+146215319+146636388
3065+147003251+147342480+147668627+147959161+148200258+148384409+148496637
3051+148546453+148565955+148554099+148463311+148266336+148017319+147760657
3038+147430028+146957872+146371292+145711593+144972917+144134474+143167374
3024+142048420+140793936+139407432+137865653+136152518+134236352+132104495
3011+129769213+127180872+124265490+121025157+117474940+113566528+109225253
2997+104384786+99011355+92959731+85987347+78275742+70327998+62319310+54265524
2982+46553294+39895546+34912254+31892104+30913921+31925215+34621950+38489745
2966+43091370+48227103+53816102+59719541+65611586+70915230+74955417+77372872
2951+78280330+77883881+76318338+73875801+71043803+68456022+66726709+66030724
2936+66055942+66429376+66994773+67834503+69151394+70994048+73180467+75502296
2920+77766550+79723069+81148326+81957986+82185206+81884073+81105582+79961781
2905+78584219+77125271+75990593+75481288+75249222+74854938+74251498+73461584
2889+72421827+71076463+69532232+68143661+67424495+67867988+69689460+72729464
2874+76649777+81160985+86087311+91315838+96679533+101956043+106992902+111747540
2858+116249140+120532121+124646623+128643900+132500929+136148551+139507563
2845+142563351+145395258+148056733+150551076+152914370+155201472+157453052
2831+159712899+161968749+164152602+166226209+168189042+170059875+171849944
2818+173547180+175130704+176618080+178081774+179596450+181221461+182974615
2804+184795345+186603462+188351226+189990803+191494804+192883003+194161109
2791+195309028+196328442+197262715+198133743+198906381+199580509+200177855
2777+200682626+201111931+201511772+201875561+202172409+202420214+202657208
2764+202874427+203045496+203178952+203297071+203412555+203532551+203663797
2750+203818376+204008265+204252209+204570104+204949806+205363289+205810553
2737+206310569+206868547+207462334+208041102+208576564+209129439+209767879
2723+210482071+211291170+212247883+213305438+214368686+215383528+216290289
2710+217047755+217699913+218322015+218984257+219753595+220617233+221485368
2696+222311683+223114680+223895465+224631127+225328104+226005396+226653587
2683+227252084+227807836+228350748+228907953+229499485+230136350+230799470
2669+231452112+232077121+232661400+233207719+233743242+234260883+234755115
2656+235245517+235706392+236116832+236524137+236962482+237401781+237813462
2642+238213045+238603922+238951691+239257185+239557153+239857408+240157527
2629+240479979+240818860+241127398+241403638+241712236+242081794+242465857
2615+242809719+243123496+243456260+243791204+244072623+244302925+244511862
2602+244721132+244954310+245192046+245400196+245608315+245839752+246059727
2588+246246679+246438158+246684933+246948849+247151744+247321965+247542334
2575+247803569+248017079+248159651+248302147+248490068+248684893+248837746
2561+248940965+248982332+248980621+248994990+249017127+249029633+249068668
2548+249146601+249274077+249480425+249750882+250056588+250403857+250813963
2534+251288936+251774628+252219696+252649562+253092162+253519394+253928652
2521+254352870+254772380+255170963+255566367+255936788+256277319+256630146
2507+257015647+257426526+257868293+258319932+258732537+259157255+259667098
2494+260222699+260788081+261357763+261894921+262399314+262915880+263457066
2480+264000159+264524508+265041771+265583259+266152124+266733707+267316987
2467+267892846+268460621+269018372+269565523+270121730+270688081+271234203
2453+271746681+272214158+272647143+273077948+273473564+273806040+274118832
2440+274427445+274702293+274934684+275136459+275320973+275505820+275673709
2426+275794295+275884780+275970511+276059543+276146304+276239242+276400377
2413+276685642+277082137+277531777+277991775+278467610+278981330+279512704
2399+280007951+280467706+280917135+281369743+281791463+282096987+282207853
2386+282141927+282007683+281903116+281842005+281835646+281892638+281919954
2372+281831891+281800851+281945270+281988968+281949025+282081816+282641141
2359+283977435+285930593+287588279+287456791+285270486+283443669+284211280
2345+286635427+288235062+288496676+288510667+288766012+289189913+289562392
2332+289984930+290559912+291046558+291390057+291957165+292884216+293672329
2318+293923344+293945632+294245282+294823352+295410508+295884042+296278083
2305+296651472+297064985+297519259+297955636+298379808+298813066+299211377
2291+299564779+299893258+300181824+300396439+300570838+300785604+301042131
2278+301273008+301449254+301589888+301703782+301772161+301783850+301778914
2264+301792390+301817676+301889265+302070781+302382453+302809230+303332700
2251+303946686+304629536+305278317+305809540+306270446+306726537+307173937
2237+307603984+308013924+308389584+308754432+309144143+309558080+309970443
2224+310338138+310650264+310948278+311271215+311619650+311968419+312300198
2210+312612052+312912610+313215681+313535105+313876666+314243574+314633225
2197+315004433+315353746+315746303+316173535+316568939+316932637+317284706
2183+317635836+318028999+318468102+318886914+319254640+319620245+320026127
2170+320454267+320872595+321284746+321706647+322090665+322392283+322688692
2156+323039459+323386259+323689088+323959000+324203353+324451158+324724976
2143+324994736+325237938+325483926+325766314+326110601+326561695+327110482
2129+327682042+328258417+328869496+329512341+330174296+330847879+331485031
2116+332052987+332604409+333152863+333658254+334149352+334657863+335141875
2102+335558477+335936892+336326603+336729487+337144636+337600454+338100061
2089+338594491+339039983+339447772+339845448+340234189+340630623+341077690
2075+341563973+342034206+342475549+342901963+343315173+343737317+344202917
2062+344702585+345202798+345690959+346183056+346696473+347223123+347757738
2048+348280633+348759072+349213013+349660171+350067779+350443681+350840962
2035+351254627+351651666+352050371+352497135+353013035+353559823+354084475
2021+354569092+355043292+355552287+356068096+356532333+356966106+357423378
2008+357893096+358321236+358698107+359067044+359466899+359866634+360180274
1994+360434984+360772002+361179641+361526501+361813159+362099726+362386808
1981+362653631+362904374+363180281+363517027+363888235+364216714+364518998
1967+364903531+365343239+365716718+366045833+366413740+366777589+367051074
1954+367227623+367330131+367347089+367268869+367098436+366873101+366643163
1940+366319318+365781130+365047132+364198242+363341780+362615535+362182520
1927+362219314+362903162+364225375+365901534+367800122+369840706+371692294
1913+373259859+374712046+376112419+377423639+378596254+379614214+380504108
1900+381321323+382126636+382932040+383657771+384287655+384969808+385692964
1886+386304134+386872363+387483835+388078743+388637796+389192004+389707601
1873+390106336+390526632+391227197+392071879+392729926+393205247+393661913
1859+394174270+394736775+395291437+395783837+396212825+396581126+396878898
1846+397307613+398062536+398779878+399186668+399557513+400025686+400420818
1832+400769950+401305382+401916794+402409012+402951501+403530873+403959831
1819+404319622+404742644+405194738+405647649+406164548+406714062+407167549
1805+407469893+407717062+408088513+408577279+408932164+409083307+409386196
1792+410051118+410644239+410857189+410972385+411219736+411543218+411867245
1778+412046126+411985288+412008333+412488287+413153118+413565178+413703571
1765+413713988+413879848+414291453+414714536+415121296+415502830+415846057
1751+416445750+417332676+418083692+418514648+418785468+419127362+419524856
1738+419653286+419733263+420359574+421130395+421421354+421447155+421446519
1724+421376868+421111862+420750012+420783595+421308822+421660104+421499090
1711+421064863+420598415+420192988+419724148+419116036+418753035+418715727
1697+418553501+418237499+417652342+416609338+415315137+414005431+413051913
1684+412640519+412056877+410830661+409401005+408256401+407347702+406472828
1670+405863324+405570640+405130296+404569699+404316473+404237283+403843605
1657+403155305+403050829+404111094+404968525+404865260+405018037+405856722
1643+406555592+406893185+407269451+408278568+410261039+412354164+413733127
1630+414905621+416414164+418201311+420194956+422096208+423537312+425149786
1616+427574024+430009498+431814874+433411995+435078888+436683761+438182009
1603+439615723+440954379+442182473+443342278+444452026+445467473+446371296
1589+447206772+447987375+448682670+449249536+449600303+449758289+450161748
1576+451007702+451550372+451559820+451750875+452185041+452260718+451764987
1562+450987018+450839843+451778705+452480178+452250270+451729253+451302869
1549+450873669+450276914+449547883+448982380+448986135+449301532+448933655
1535+447943404+447101660+446370994+445348521+444145411+442925706+441684955
1522+440523272+439394597+438093552+436610174+434891952+432785411+430362748
1508+427989385+425858104+423421268+420148744+416147160+411587280+406341340
1495+400201691+392984030+384594088+375797628+368023822+361894317+356979309
1481+352614209+348489009+344481853+340175380+334856277+328321920+321366358
1468+314701906+308165945+301176466+293647618+286609626+282418683+283277082
1454+288138581+294253155+300298837+306191498+311799046+316504557+319859541
1441+321835350+322861941+323536886+323881657+323636790+322993338+322278116
1427+321646687+321264093+321186266+321396126+322056173+323076586+324021171
1414+324854859+325881056+327239548+328935573+331050804+333543088+336039339
1400+338037921+338543646+336494673+332780050+329195128+325064023+318348423
1387+309334290+301001400+296385799+297226574+303621236+314187430+327557519
1373+342880886+359131668+375215287+389444291+399954824+406467075+409825510
1360+411061356+411271732+411194964+410930685+410258586+409049632+407524069
1346+406232564+405533937+405270657+405147890+405144135+405406991+406084874
1333+407291678+409058868+411350498+414087952+417217964+420734416+424612022
1319+428783282+433182602+437815161+442695072+447716040+452723229+457662736
1306+462486744+467078391+471362939+475312376+478883459+482031277+484739417
1292+486948193+488532201+489354110+489182890+487701571+484782843+480724115
1279+476299145+472773790+471621464+473826030+479262449+486747114+494853396
1265+502584201+509423688+515218263+520041847+523995343+527129624+529426886
1252+530913293+532031096+533192264+533714342+532559169+530589690+529734318
1238+529840188+529854542+530458625+532774784+536897197+542235227+548049789
1225+553754424+558981740+563681406+567974191+571880385+575334999+578314293
1211+580875501+583166403+585354889+587435689+589299663+590962376+592544841
1198+594086725+595447519+596588700+597634006+598616020+599395139+599897108
1184+600207569+600437295+600596826+600538258+600151788+599514817+598670832
1171+597434683+595630185+593377560+590885094+588212445+585426236+582773513
1157+580502960+578628084+577014247+575510095+573912308+571930109+569356485
1144+566205972+562574566+558533916+554172268+549640672+545035973+540322255
1130+535575651+531031396+526708389+522225791+517078301+510866548+503213268
1117+493566463+481173332+465325131+445472166+421089847+391738191+357745467
1103+320878349+283759580+248678912+217461087+192119208+174592016+165923623
1090+166261716+174816352+189568538+207805879+226633449+242968357+253829900
1076+256896060+251764044+241766216+232692485+227815709+225062856+218166104
1063+200297775+169916819+133172574+99117853+73666637+58349285+52915511+57333690
1047+72434001+99765703+140203555+192260462+251557682+312534467+370211066
1034+420767667+462009757+493157493+515569909+530360024+532969685+518137113
1020+491416346+470110347+470635725+494839497+531428587+568878621+602298786
1007+631189778+655996088+676878279+693683116+706285897+715067397+720891529
993+724411191+725691795+724578898+721033919+715092169+706408664+693644354
980+674241727+644553204+601025389+544761004+488108301+453015550+455861538
966+494397245+552086441+611752264+663494320+704342158+734984653+757284810
953+773181826+784529683+792920231+799291332+804069976+807595029+810250356
939+812254782+813628900+814454594+814908050+815068671+814784556+813862926
926+812340967+810353136+807794412+804414838+800111091+794817213+788446717
912+781041757+772789178+764051770+755502236+747768464+740501110+731989006
899+719762279+701335367+674218894+636376575+587906467+531794950+473380023
885+419869930+380789009+368935610+395750072+459600388+542117487+621093635
872+683701262+727634141+756027160+772766405+780710220+782684363+782873268
858+785810347+793019498+802216783+810476024+816622124+820671313+822802201
845+823483869+823486231+823156935+822239241+820614321+818656772+816754097
831+814833978+812520969+809752687+806767578+803574851+799916190+795537704
818+790331708+784239754+776996505+768157164+757723185+746867850+738033536
804+733928930+735756685+742111010+749823947+756208131+760243754+762050129
791+762297783+761807503+760866491+759247446+757102628+754883435+752645649
777+750113149+747034285+743623642+740503774+738056491+736041829+733891015
764+731289228+728082692+724074445+719609289+716037298+714710786+715320199
750+716263572+716613946+716386400+715552651+714138499+712463975+710763408
737+709031528+707193536+705305699+703486847+701755754+699976512+698001097
723+695822120+694098719+692159098+689964677+688240792+686886601+685434111
710+683860550+682308369+680802036+679294552+677817594+676453954+675242517
696+674151302+673066689+671894316+670704319+669648656+668801583+668148683
683+667651922+667220391+666798550+666065037+663875340+661019842+663341936
669+671250562+672144029+664772441+661922273+664896601+667732111+668877714
656+669502511+670252558+671445100+673057301+674560969+675740489+677035326
642+678759029+680714155+682666918+684585159+686541133+688644766+691048745
629+693822539+696678460+699361284+701816865+704310784+707249802+710668198
615+714123055+717457809+720773425+724078321+727511253+731189234+735003610
602+738858988+742776265+746719585+750642010+754764484+759224188+763608670
588+767744166+771987710+776470248+780946608+785153269+789301967+793778449
575+798469757+802944966+807119769+811436477+815989695+820266491+824206722
561+828469830+833343260+838409349+843291379+847888265+852223446+856426473
548+860819252+865513104+870126706+874374975+878448269+882907974+887826283
534+892498452+896653571+900615485+904512714+908259135+911875097+915583845
521+919539218+923483992+927149436+930729058+934366824+937829796+941056562
507+944291625+947422818+949978515+951892940+953592478+955194262+956185180
494+956407699+956502787+956713980+956560204+956074829+956143208+957520778
480+959881210+962004769+963197674+963503168+962685468+960726769+958387051
467+957055208+958345321+962199549+966774752+970919514+974323980+976257544
453+976336219+974751272+971757442+967481313+961878065+955479649+948971305
440+942152198+935415642+930380865+928344279+930234296+937081081+948703119
426+962809204+976856601+990077092+1003356272+1017029190+1029045330+1037721264
413+1043469567+1047507128+1051176448+1055095178+1059318555+1064014587
401+1068914121+1073741823
##END=
