##TITLE=36
##JCAMP-DX=4.24
##DATA TYPE=INFRARED SPECTRUM
##DATE=16/11/2015
##SAMPLING PROCEDURE=Instrument type and / or accessory
##ORIGIN=Default
##XUNITS=1/CM
##YUNITS=TRANSMITTANCE
##RESOLUTION=4
##FIRSTX=3996.3359
##LASTX=399.24785
##DELTAX=-1.9287336
##MAXY=1.0935481
##MINY=0.028251091
##XFACTOR=1
##YFACTOR=1.018446e-009
##NPOINTS=1866
##FIRSTY=0.10071676
##XYDATA=(X++(Y..Y))
3996+98892590+98973691+99098511+99202195+99260881+99288051+99331711+99454058
3981+99621096+99742045+99810651+99895403+100015079+100131091+100234804
3967+100350874+100459533+100503222+100507173+100535528+100602686+100709509
3954+100819053+100876430+100875025+100900081+101022157+101169640+101311425
3940+101453502+101552058+101594628+101571510+101571393+101705416+101857756
3927+101898526+101925338+102037326+102149680+102218790+102280900+102359616
3913+102427147+102491722+102577322+102611625+102584433+102651393+102827576
3900+102957326+103048918+103094889+103042012+103013971+103154760+103244633
3886+103207704+103326517+103441972+103409396+103411795+103420764+103469384
3873+103593523+103632018+103697756+103767437+103701611+103688597+103758242
3859+103794403+103723792+103618754+103812509+104262918+104398140+104260109
3846+104155781+104137287+104140586+104136884+104254593+104539888+104746036
3832+104776220+104738259+104643602+104582838+104617588+104639944+104809630
3819+105034198+104982674+104945701+105001424+104953302+104880848+104935467
3805+105124737+105163305+105168279+105344396+105393008+105337154+105301124
3792+105210491+105147357+105176158+105239307+105306369+105332406+105308542
3778+105357850+105455360+105487322+105442462+105379811+105399322+105432732
3765+105456472+105458608+105369891+105371632+105543820+105667550+105636626
3751+105676343+105894576+105938989+105709183+105763524+106002086+105863397
3738+105551538+105500402+105734941+105925323+105910414+105730479+105602031
3724+105630394+105671317+105674909+105648127+105591321+105459566+105304716
3711+105291519+105313173+105186503+104949988+104725142+104595494+104457053
3697+104181517+103867896+103574246+103244904+102916783+102702698+102530949
3684+102302028+102128940+102022951+101856074+101728292+101849753+101838165
3670+101591650+101516592+101474293+101280940+101054097+100861016+100637157
3657+100392837+100238960+100007559+99610386+99321052+99171060+98936045+98547906
3641+98156161+97863404+97599427+97257253+96822814+96317515+95845123+95643387
3626+95459259+94989639+94406166+93899910+93531984+93146816+92593900+92008049
3611+91456085+90910404+90413994+89896245+89311323+88742108+88214299+87666797
3595+87067134+86430550+85752185+85035948+84395179+83860596+83288008+82631759
3580+81962686+81309590+80652799+79984523+79287892+78537468+77812540+77225445
3564+76665368+75987128+75257634+74576014+73948977+73291894+72540227+71771009
3549+71008544+70212428+69471566+68836188+68198038+67475231+66679385+65894278
3533+65195284+64542597+63887065+63226309+62506568+61728001+60986492+60305435
3518+59670800+59061989+58418012+57726718+57019160+56326091+55641794+54947869
3503+54311599+53751459+53161852+52507805+51873371+51303892+50737691+50134868
3487+49520973+48880266+48171900+47449642+46844471+46366141+45873832+45284550
3472+44618681+43940207+43351521+42895428+42473232+41971339+41382529+40766131
3456+40193489+39720771+39340380+38967410+38524514+38034641+37562278+37118237
3441+36642304+36068582+35507956+35128190+34838992+34477281+34096268+33776297
3425+33481927+33209694+32981256+32739551+32398938+31967001+31587630+31349971
3410+31161758+30931506+30637797+30243240+29788898+29447551+29298782+29221626
3395+29070166+28845803+28688312+28653023+28650803+28586360+28425247+28218462
3379+28053315+27969042+27960448+27982360+27953789+27843735+27739410+27760009
3364+27901770+28058099+28167047+28219744+28235317+28258028+28296399+28366034
3348+28516150+28716274+28870484+28967899+29076429+29239509+29472810+29758754
3333+30049701+30308394+30508737+30677942+30907258+31244213+31627654+31968987
3317+32269993+32590355+32926710+33218019+33437521+33643683+33935705+34337307
3302+34786093+35232665+35661796+36066676+36468418+36912821+37405880+37893932
3287+38356397+38844131+39379112+39902528+40360037+40778989+41216138+41686980
3271+42210684+42838004+43561348+44290684+44957900+45578906+46190058+46782035
3256+47378593+48061807+48823870+49565064+50256568+50964531+51749155+52607802
3240+53480408+54289663+55026977+55792463+56680497+57637456+58554365+59449989
3225+60374777+61294641+62214747+63189175+64174489+65133686+66147348+67227875
3209+68305263+69368298+70423813+71455266+72463910+73490045+74567375+75671590
3194+76745327+77761894+78757852+79793226+80879642+81995869+83130071+84254887
3179+85328515+86342696+87340615+88381030+89489744+90640135+91767519+92836011
3163+93862973+94859977+95840660+96829047+97799714+98742751+99713309+100715639
3148+101729784+102749203+103681332+104491312+105336641+106314384+107315602
3134+108238513+109101136+109940949+110779387+111615177+112393816+113085568
3121+113758095+114471465+115232342+116056558+116887951+117625908+118310206
3107+119022851+119724516+120358584+120941560+121524045+122151705+122799161
3094+123371317+123853461+124336776+124845842+125318110+125740471+126148449
3080+126575448+127059963+127590010+128086171+128465604+128729625+128986302
3067+129298840+129618768+129912095+130177785+130387978+130538987+130673478
3053+130812958+130952950+131077403+131134348+131097682+131032149+130995175
3040+130930447+130750263+130463651+130165670+129898108+129591495+129178059
3026+128675138+128111922+127450208+126671210+125815281+124864189+123776281
3013+122578506+121257442+119733177+117970036+115965171+113688113+111066987
2999+108003235+104433768+100330851+95600568+90124449+83863866+76868223+69296268
2984+61468574+53894703+47253027+42218208+39247504+38494242+39777628+42651137
2968+46590603+51181802+56238139+61712872+67425185+72949595+77754754+81361545
2953+83524728+84296447+83824779+82278224+79962554+77329730+74912592+73189226
2937+72359940+72275613+72612615+73146334+73924594+75114965+76744567+78726819
2922+80913104+83042269+84854001+86195520+86989830+87227932+86977759+86344057
2907+85426976+84366238+83356534+82538478+81916180+81394451+80873314+80267997
2891+79499899+78505506+77249324+75816856+74469053+73644368+73850772+75327674
2876+77915332+81300211+85208955+89426127+93794616+98184561+102444127+106429934
2860+110069734+113408203+116565185+119631900+122623366+125477371+128134732
2847+130597878+132858102+134891381+136753210+138537392+140257225+141890982
2833+143484079+145104434+146738849+148323387+149834344+151274295+152654434
2820+153984724+155215594+156305609+157332271+158414956+159599519+160872864
2806+162207514+163568880+164923663+166230572+167437345+168538407+169560284
2793+170487541+171309526+172058296+172749082+173373823+173927207+174404889
2779+174829723+175238769+175609277+175909335+176166875+176388041+176553345
2766+176681208+176796648+176923165+177063757+177188591+177309562+177446628
2752+177576568+177718199+177909971+178129177+178354879+178605162+178886696
2739+179207751+179597191+180046298+180492947+180905183+181318238+181744564
2725+182164775+182623216+183192109+183909364+184744166+185577197+186311892
2712+186938783+187502263+188028521+188497175+188962098+189521613+190183166
2698+190880126+191538197+192143961+192718692+193257021+193768530+194281166
2685+194794636+195282940+195718396+196107866+196527095+197033937+197568345
2671+198057644+198545450+199088724+199609553+200022082+200389386+200794160
2658+201209249+201587409+201939818+202289110+202642090+202991777+203321537
2644+203640176+203971926+204318731+204641526+204910815+205168735+205438887
2631+205690135+205917929+206125313+206344504+206637758+206973795+207298873
2617+207631529+207950886+208208777+208430089+208653172+208880850+209117540
2604+209356293+209575001+209779561+209990295+210194767+210374351+210553994
2590+210757486+210978711+211213748+211446356+211655992+211856163+212051432
2577+212230007+212434215+212680152+212896022+213064530+213223455+213362964
2563+213482502+213622538+213777995+213898206+213963125+213987910+214012564
2550+214074366+214176741+214304531+214467157+214720630+215064479+215421248
2536+215771418+216142775+216527460+216915218+217320534+217719163+218059501
2523+218365309+218687694+219014791+219334558+219651632+219953490+220256138
2509+220585400+220944846+221336306+221733106+222104389+222470639+222879817
2496+223325223+223748769+224160595+224610843+225075006+225501171+225901204
2482+226323229+226771078+227220623+227669774+228117784+228566071+229036364
2469+229531516+230030442+230525623+231002193+231457928+231934249+232419466
2455+232855361+233257516+233664426+234054291+234392244+234686889+234980948
2442+235279455+235548963+235806796+236079918+236329395+236523787+236678103
2428+236802454+236911398+237029034+237143845+237241977+237354082+237515465
2415+237739689+238022424+238347180+238714161+239135908+239578972+239997807
2401+240396055+240759438+241106330+241469903+241850067+242213581+242520443
2388+242713839+242756504+242701841+242653310+242650325+242671335+242705251
2374+242775993+242934288+243242321+243626435+243875899+244043910+244362476
2361+244891177+245644410+246600183+247554640+248008941+247603537+246852660
2347+246651334+247241589+248194611+249077872+249734582+250109816+250320214
2334+250537693+250914243+251394617+251753961+251991427+252321186+252803726
2320+253251882+253516210+253691083+253955587+254326461+254700173+255029055
2307+255363350+255741539+256151361+256568733+256968693+257355251+257725101
2293+258060684+258384181+258721256+259032083+259269461+259465842+259691953
2280+259958389+260207794+260400546+260554701+260703267+260847619+260947083
2266+260989104+261021936+261090674+261215420+261416190+261713059+262110357
2253+262597724+263138994+263670548+264180448+264667786+265130983+265550432
2239+265938951+266315443+266681371+267033868+267386979+267748049+268099258
2226+268434022+268770161+269123711+269472637+269791599+270104504+270442896
2212+270800104+271144553+271456375+271744581+272034720+272334134+272650140
2199+272994970+273359318+273753397+274178025+274591476+274963637+275296001
2185+275609110+275942352+276346790+276786167+277156719+277472725+277828118
2172+278224450+278598367+278939685+279274771+279614392+279967445+280334485
2158+280695467+281029119+281341526+281651563+281947875+282197163+282420699
2145+282685730+282984003+283266036+283546371+283863928+284234802+284663293
2131+285135883+285627611+286148748+286713632+287293674+287852559+288379724
2118+288916546+289481517+290005756+290448440+290848810+291247073+291655022
2104+292074208+292488215+292871993+293238126+293618510+294005302+294368333
2091+294739382+295162519+295595195+295984913+296340366+296669130+296977967
2077+297315628+297712164+298143202+298584920+299009227+299383114+299752583
2064+300212386+300719798+301203245+301667261+302092299+302489743+302911416
2050+303370868+303843809+304303699+304721481+305079566+305423635+305793221
2037+306186188+306608212+307020785+307390166+307762005+308185405+308642662
2023+309109955+309565134+309975424+310389957+310872819+311349301+311770301
2010+312169998+312542101+312900772+313280161+313673361+314060534+314442293
1996+314801959+315098125+315417848+315860795+316220520+316457605+316723104
1983+317021055+317321201+317626614+317964977+318332661+318704910+319058021
1969+319382396+319761405+320230308+320628513+320954614+321340734+321750673
1956+322078355+322328491+322555041+322757860+322890683+322906075+322762864
1942+322637767+322582607+322309675+321840977+321327185+320815061+320379283
1929+320150187+320291467+320872650+321957295+323374071+324749411+326301759
1915+327913774+329172035+330242107+331311566+332371952+333309671+334124603
1902+334906440+335647485+336300391+336913295+337598477+338217175+338733367
1888+339426860+340088808+340557769+341053828+341572185+342065814+342586190
1875+343153650+343647309+343928258+344389817+345292274+346055353+346463361
1861+346841169+347346914+347919699+348458452+348930603+349360850+349784864
1848+350224944+350526845+351065774+351952897+352422415+352633690+353080763
1834+353606758+353956299+354384878+355163905+355687968+356044415+356667122
1821+357179305+357530982+357967550+358476543+358887711+359295338+359856945
1807+360398594+360760806+360962689+361271906+361907371+362550855+362818987
1794+362886964+363403419+364276409+364663259+364676486+364923696+365322603
1780+365704099+366143388+366406224+366419334+366702274+367454438+367933261
1767+368169176+368310660+368355724+368815732+369405079+369804747+370342417
1753+370685257+370954941+371742133+372601105+373110654+373425782+373749660
1740+374278112+374806536+374643543+374810954+375949648+376526968+376505080
1726+376526793+376638225+376808416+376650164+376371731+376872149+377646700
1713+377884516+377700367+377353577+377060951+377091326+376976675+376446643
1699+376713459+376929621+376596789+376510786+375908856+375037446+374224065
1686+373113727+372695126+373004724+372477881+371230126+370126284+369765360
1672+369440721+368723672+368588918+368658767+368103979+367672473+367878130
1659+368035973+367597122+366727117+367223352+369100339+369259996+368494487
1645+368965088+369801821+370071709+370222792+370562062+371776984+373871890
1632+375278833+375943883+376999588+378488115+380035723+381836131+383351784
1618+384345921+386146679+388674553+390411783+391589249+392976762+394524780
1605+395974300+397285526+398521956+399672559+400739969+401790787+402809650
1591+403715297+404531898+405304078+406014426+406695043+407375573+407853343
1578+408043813+408825210+410086104+410270692+410004462+410554861+411101339
1564+411164546+410658860+409770625+410539908+412287292+412450313+411884961
1551+411509464+411347935+411141985+410744716+410408373+410260246+410897555
1537+411526524+410656461+409551682+409358403+408915281+407991872+407288605
1524+406519761+405618270+405244558+404640315+403605826+402574643+401300318
1510+399607918+397399386+395806831+395061777+393180078+389872416+386093187
1497+382208233+378097957+372786162+365921724+358942432+353158602+348651848
1483+344926901+341654998+338703460+335772494+332412188+328003347+322759060
1470+317385813+311875558+306219840+300546915+294593362+288491829+284517858
1456+285675894+290838627+296489809+301480361+306159091+310756178+314756924
1443+317628077+319329958+319944266+320208098+320803503+320928249+320372260
1429+319969520+319921881+320051426+320497972+321111959+322086753+324068091
1416+326339508+328289915+330323048+332618402+334956274+337199102+339460980
1402+341384026+342481343+342884756+342231119+340224410+337136744+332388252
1389+325497449+317666558+310986738+307230627+307810786+313004859+321660632
1375+332543519+345098790+358444822+371441870+382913695+391290362+396147798
1362+398586831+399517497+399473486+399118414+398754213+398170337+397155512
1348+395911795+394904871+394393186+394134944+393889549+393944709+394401760
1335+395082232+396064663+397535984+399515332+401862568+404510214+407482908
1321+410745799+414250252+417967181+421827906+425855807+430097442+434376212
1308+438562307+442645719+446554903+450240491+453641355+456712284+459480579
1294+461943520+464004334+465532951+466427976+466575517+465750138+463763211
1281+460807665+457574768+455138164+454670080+456964380+462014774+468916872
1267+476440243+483698847+490235866+495900948+500715456+504713422+507958931
1254+510530173+512440724+513743259+514525915+514758903+514364795+513490021
1240+512566495+512041290+512320982+513845326+516790894+520859734+525478359
1227+530120335+534424036+538157995+541301612+544021097+546439471+548533441
1213+550284394+551789484+553183025+554527463+555773053+556888658+557963706
1200+559085924+560191580+561148407+561938613+562656716+563345556+563928700
1186+564304841+564497798+564635917+564771578+564794696+564591672+564180241
1173+563566956+562640153+561322753+559706466+557910799+555936221+553846173
1159+551932695+550435740+549284200+548272243+547264851+546171953+544846067
1146+543141231+541038600+538559068+535692918+532501019+529160172+525823540
1132+522475319+519096022+515848933+512798430+509644688+505980081+501548854
1119+496094608+489095212+479802100+467514260+451660807+431652308+406884577
1105+377369379+344420659+310247332+277062083+246947383+222169191+205052124
1092+197289663+199225102+209767271+226799009+247580478+268999345+287723775
1078+300546564+304969832+300523622+290767343+282453005+279675375+278844816
1065+271113827+249693849+214855735+173323755+133842524+102986179+83799722
1051+76900104+82359354+100850862+133151562+178700704+234552223+295342074
1038+354748816+407771817+452122775+487908674+515921153+536192781+547352053
1024+546418344+531443938+507449119+488574631+488887009+509821317+541041292
1011+572236395+599364121+622201314+641218457+656845885+669298796+678563259
997+684990075+689391396+692297518+693657056+693259846+691101909+687197934
984+681036295+671273023+655674857+631078341+594314108+546334770+497929896
970+468018219+470818616+504659989+554960549+606164385+649539672+682877670
957+707183316+724375003+736323310+744690350+750828462+755502978+758974101
943+761506774+763548481+765286793+766602086+767506767+768181502+768694416
930+768865719+768487003+767627270+766506514+765066856+763004022+760190779
916+756686999+752524987+747692102+742220767+736355090+730632506+725559317
903+720809889+714832078+705463674+690610766+668323241+636817019+595343096
889+545832332+493292426+444555481+408653615+398007520+422934703+480708244
876+553994300+623116178+677175337+714571348+738281736+751921710+758161831
862+759358611+758954905+760788730+766247424+773493474+780059170+784936475
849+788116904+789781709+790370237+790462531+790316453+789784811+788783037
835+787555532+786320477+784969600+783260668+781243835+779193115+777012295
822+774266883+770873715+767028675+762547292+756944100+749909852+741583370
808+732945476+725987779+722886418+724615893+730108004+736795608+742374161
795+745964617+747739215+748252012+748112371+747611045+746704959+745401020
781+743798603+742045133+740144297+737851401+735300526+732999963+731159408
768+729656776+728216883+726431048+723952920+720730470+717198364+714451547
754+713551666+714285102+715377707+715931237+715869962+715339666+714441247
741+713276071+711974473+710684521+709422896+708080330+706643891+705232382
727+703877058+702517052+701022731+699702288+698301022+696836900+695595231
714+694515736+693401360+692225181+691052514+689969039+689024678+688166758
700+687308781+686448169+685675872+685010500+684326635+683597997+683006191
687+682637893+682369848+682137855+681970005+681866064+681671761+680883077
673+679623851+680109843+683193706+684626576+682844370+682200008+683710424
660+685314421+686306714+687136600+688105892+689359324+690871203+692306063
646+693504364+694812400+696501551+698383659+700263251+702194813+704209656
633+706258093+708372195+710681185+713281455+716067074+718632697+720822589
619+723162949+726233819+729892222+733592413+736994066+740090161+743151433
606+746451721+750016660+753787900+757691699+761399088+764837847+768562969
592+772762964+776919474+780781486+784686280+788736568+792773629+796921185
579+801174496+805274998+809464165+813772724+817956449+822247567+826627117
565+830531911+834082101+838013934+842404954+846878964+851334830+855757220
552+860041374+864227088+868523181+872979808+877287430+881156700+884916995
538+889110201+893617218+897886741+901847485+905840184+909692890+913110288
525+916454060+919803217+923085948+926471800+930197273+934355364+938318859
511+941603228+944339920+947031899+949851930+952287042+954720984+957479271
498+959844563+961073356+961067562+960858686+961119239+961294873+961114323
484+961384065+963098909+965928831+968416323+969695682+969821511+969453095
471+968876213+967514335+966652904+968209027+971992382+976227433+979400956
457+982262540+984534719+984928124+984547594+983310959+980058603+975239764
444+970465696+966235210+961106890+955148978+951078733+950282148+952294007
430+957670004+966997441+979172357+992528076+1005574372+1016766008+1027849607
417+1038711864+1045804051+1049931709+1053183597+1056528072+1060876135
405+1066094349+1070676630+1073096291+1073741823
##END=
