##TITLE=36
##JCAMP-DX=4.24
##DATA TYPE=INFRARED SPECTRUM
##DATE=16/11/2015
##SAMPLING PROCEDURE=Instrument type and / or accessory
##ORIGIN=Default
##XUNITS=1/CM
##YUNITS=TRANSMITTANCE
##RESOLUTION=4
##FIRSTX=3996.3359
##LASTX=399.24785
##DELTAX=-1.9287336
##MAXY=1.0950046
##MINY=0.028895581
##XFACTOR=1
##YFACTOR=1.0198025e-009
##NPOINTS=1866
##FIRSTY=0.10672965
##XYDATA=(X++(Y..Y))
3996+104657179+104697018+104783345+104872608+104893992+104899099+104991117
3983+105164084+105333932+105441855+105499857+105602154+105790076+105963329
3969+106047756+106098466+106177757+106283846+106389278+106437204+106426450
3956+106455038+106564466+106709145+106817206+106869042+106910620+106956325
3942+107055547+107197822+107283513+107316054+107340558+107411432+107554599
3929+107692205+107758470+107786116+107817743+107798017+107760589+107834093
3915+108032938+108210377+108301810+108385076+108461627+108477437+108501802
3902+108589203+108682652+108779543+108820639+108761578+108722250+108814480
3888+108838261+108773297+108897139+109017365+109051557+109208232+109309777
3875+109286296+109279187+109278018+109405966+109528150+109451475+109419278
3861+109516907+109636877+109631536+109495544+109635036+110091275+110209945
3848+109979516+109761698+109711244+109799572+109886154+109983527+110161762
3834+110276502+110321732+110423511+110491792+110483909+110435624+110322244
3821+110414861+110670560+110721555+110813792+110951377+110855823+110639547
3807+110568007+110692208+110702648+110727663+110959604+111043052+110981010
3794+110919056+110833175+110812419+110855597+110885953+110935428+111001240
3780+111050942+111139431+111178701+111098270+111013653+111034270+111180527
3767+111287632+111325542+111317469+111200531+111147395+111235241+111272618
3753+111194153+111216501+111411605+111437118+111220015+111323146+111606447
3740+111494644+111221959+111186620+111368829+111500694+111475846+111296735
3726+111157389+111180147+111211731+111193875+111140250+111043644+110878947
3713+110732441+110744715+110776430+110636084+110331310+109966600+109659489
3699+109355008+108937132+108501839+108116562+107720289+107343232+107115594
3686+106931924+106609828+106272310+106047624+105876834+105806383+105956636
3672+105922627+105664882+105612857+105570227+105355718+105122507+104920856
3659+104708043+104558527+104521947+104306188+103873299+103640065+103617176
3645+103452932+103036736+102556519+102178059+101879758+101569389+101221051
3632+100793326+100309982+100039393+99828004+99386903+98842679+98368555+98038028
3616+97673354+97087976+96436135+95817873+95214573+94683105+94138004+93495428
3601+92867361+92319842+91750727+91113864+90478578+89825482+89055476+88243965
3586+87546404+86948182+86360758+85714755+84999573+84278129+83567725+82804631
3570+81964919+81148148+80461532+79815003+79110129+78422030+77785378+77133896
3555+76412394+75635119+74842903+73996243+73114779+72316791+71597006+70877937
3539+70146389+69397066+68632701+67887052+67180045+66482361+65743127+64957640
3524+64181914+63449723+62702358+61920575+61178237+60487788+59799086+59088872
3508+58361138+57615435+56865308+56180548+55582578+54969970+54268315+53551532
3493+52927107+52370178+51790864+51188810+50582058+49895935+49129450+48421165
3478+47815779+47236081+46631152+45981273+45304973+44685622+44166501+43671215
3462+43146516+42635242+42151583+41640981+41069473+40476109+39904648+39353071
3447+38843480+38414726+38027670+37581948+37031287+36484275+36060975+35715453
3431+35376086+35040197+34706665+34354443+33945846+33525033+33204804+32957054
3416+32645468+32266872+31917230+31621169+31373393+31154899+30879740+30528854
3400+30250603+30129522+30019148+29807092+29587981+29468789+29401742+29287599
3385+29118737+28951545+28804927+28680481+28620650+28634869+28627415+28512475
3369+28364377+28334488+28439308+28552429+28596380+28620781+28691539+28818052
3354+28946528+29019717+29106069+29290419+29478319+29583659+29700401+29882383
3339+30088587+30337706+30622167+30869596+31074300+31270577+31483595+31769369
3323+32135651+32498882+32808510+33078657+33337070+33604514+33871260+34130762
3308+34444803+34883515+35404393+35901520+36322048+36679131+37027269+37413839
3292+37874604+38426912+38999155+39509341+39986825+40489738+41012746+41530797
3277+42045399+42571666+43102586+43642693+44247805+44928836+45624051+46302098
3261+46985298+47689807+48392043+49088577+49816972+50577601+51342811+52133127
3246+52979852+53831432+54634165+55448850+56310261+57143733+57953300+58846710
3231+59837618+60839816+61817817+62809368+63832786+64861560+65907693+66991100
3215+68078584+69155811+70239824+71335586+72416838+73471205+74548840+75678750
3200+76826033+77966543+79100756+80231849+81383895+82562389+83739005+84901542
3184+86057812+87222066+88389564+89535971+90667969+91815048+92980004+94136726
3169+95274913+96400161+97510688+98631830+99789517+100948423+102047195+103066661
3153+104061521+105101224+106200069+107334048+108430475+109408604+110289879
3140+111180753+112152512+113167105+114155258+115111893+116046479+116960704
3126+117866950+118742724+119553153+120314538+121070787+121875898+122736833
3113+123557330+124306361+125069974+125842340+126556317+127222572+127882163
3099+128565572+129253584+129882199+130432743+130937742+131454225+132021397
3086+132593640+133086818+133492485+133896677+134376763+134890938+135355287
3072+135781104+136195992+136544235+136797414+137033307+137316411+137601706
3059+137831857+138008616+138133226+138212319+138277868+138334299+138352651
3045+138312527+138210975+138061409+137887703+137690429+137443314+137124762
3032+136713849+136206468+135619702+134956618+134218721+133417541+132539357
3018+131526831+130322511+128942396+127454987+125851881+124041946+121940570
3005+119504832+116742856+113640060+110112433+106078652+101489974+96261670
2991+90267109+83507166+76163102+68413611+60464336+52792781+46132707+41128340
2976+38122095+37231728+38384311+41257355+45318310+50039894+55180800+60755046
2961+66630802+72340396+77287415+80982092+83205688+84011135+83543082+81967469
2945+79574617+76840907+74374682+72717578+72028865+72055992+72459351+73079235
2930+73984057+75288629+77013319+79100069+81373601+83576521+85474135+86877563
2914+87685889+87923294+87655620+86937801+85897535+84731892+83604978+82648964
2899+81951564+81449933+80951495+80314537+79532330+78590438+77392869+75965214
2883+74592011+73774714+74071268+75747191+78638818+82387120+86645645+91183861
2868+95901599+100672121+105292720+109644636+113718971+117542787+121158487
2855+124600891+127909780+131101832+134116483+136887116+139421856+141755538
2841+143903021+145892799+147762161+149552488+151340550+153162073+154966617
2828+156713912+158397032+160008276+161543773+162988428+164331078+165591975
2814+166802374+167997226+169212694+170480459+171847628+173328140+174828174
2801+176238638+177545825+178766467+179882619+180889738+181804145+182614253
2787+183320033+183961988+184540075+185031748+185481734+185930068+186346592
2774+186690291+186940518+187133394+187327848+187511168+187667544+187805318
2760+187912131+188010132+188124879+188247545+188376976+188525608+188720953
2747+188951323+189180816+189451193+189791224+190157776+190548233+190975906
2733+191438238+191947869+192444861+192859646+193288430+193849728+194526021
2720+195289386+196132955+197001876+197827209+198540266+199121041+199634383
2706+200155119+200738335+201399826+202094004+202760522+203378777+203997909
2693+204659078+205299996+205858343+206386136+206923383+207421354+207876877
2679+208338230+208810002+209292688+209815952+210385520+210957982+211488434
2666+211980984+212437574+212846149+213250049+213671658+214072314+214458460
2652+214847441+215201617+215523223+215875835+216260477+216622514+216933307
2639+217190898+217438656+217723835+218038822+218342178+218590666+218799673
2625+219038211+219340486+219686011+220026028+220315284+220563231+220814686
2612+221088394+221368021+221627687+221880983+222144828+222383264+222581239
2598+222777841+222997018+223205646+223375011+223552808+223777523+223997986
2585+224184403+224388282+224619046+224832423+225023545+225209685+225406082
2571+225618743+225826961+226021079+226185140+226292055+226372274+226458220
2558+226540251+226615341+226680262+226741544+226817627+226926587+227067854
2544+227235160+227474004+227792264+228125340+228469770+228869505+229309540
2530+229754119+230199721+230610634+230958308+231291150+231645808+232000101
2517+232323139+232631550+232968265+233333472+233697029+234044439+234393851
2503+234769258+235169052+235595936+236071843+236575219+237051024+237492827
2490+237920733+238355742+238815166+239289714+239772401+240238707+240654282
2476+241057553+241495864+241957261+242449387+242983361+243514076+244012237
2463+244501075+245010750+245534685+246026723+246463909+246869913+247269750
2449+247661288+248027022+248354414+248654249+248950050+249243631+249527217
2436+249793473+250022966+250209764+250381306+250548144+250683186+250788537
2422+250878049+250953096+251044186+251176423+251375786+251677345+252064558
2409+252484940+252898980+253299694+253710374+254137506+254548712+254959245
2395+255385267+255796970+256137016+256373522+256514000+256583553+256609649
2382+256619439+256632590+256678325+256792122+256977867+257183601+257385946
2368+257631599+257874126+258000197+258064723+258380835+259197723+260378240
2355+261549026+262073385+261558728+260715218+260610977+261390955+262385552
2341+263166378+263850562+264484919+264931660+265104986+265223254+265480275
2328+265770174+266010100+266350789+266880671+267413915+267768573+267984623
2314+268191818+268470436+268849584+269277505+269680937+270052194+270418483
2301+270800816+271200303+271604290+271983437+272325967+272657159+272988262
2287+273284707+273520220+273724522+273952934+274226964+274512245+274749278
2274+274901328+274992272+275081755+275185908+275271621+275322850+275377469
2260+275490330+275683528+275961708+276336968+276822460+277397406+277988541
2247+278542387+279045501+279532747+279980774+280373685+280715251+281021310
2233+281346569+281726096+282124882+282505987+282870581+283218897+283570048
2220+283947851+284321066+284649423+284940782+285232463+285551644+285900632
2206+286245500+286556732+286866005+287218238+287602704+287988982+288381367
2193+288785501+289186069+289571675+289929547+290237973+290524686+290880279
2179+291326875+291777474+292164131+292516188+292895949+293305635+293704830
2166+294065216+294399797+294747003+295109113+295459621+295789293+296099589
2152+296389020+296677632+296978752+297266897+297535170+297801105+298070518
2139+298343759+298649613+299042700+299503440+299976102+300492133+301062695
2125+301614554+302134325+302672946+303230825+303781836+304321568+304856243
2112+305384927+305889503+306351820+306764604+307151495+307541280+307916453
2098+308285635+308681060+309077245+309435234+309800325+310239000+310712482
2085+311144670+311531269+311907757+312304117+312724966+313145874+313552725
2071+313956099+314330308+314649079+315002918+315487475+316002220+316450891
2058+316886030+317350248+317814026+318248494+318691320+319160563+319622969
2044+320071990+320511542+320935665+321331732+321713042+322116562+322516166
2031+322895079+323303479+323762466+324232878+324691601+325122738+325525848
2017+325978142+326504810+326989893+327410713+327833433+328247123+328637053
2004+329005154+329358497+329719643+330082483+330409232+330687938+331020386
1990+331481126+331857906+332108703+332368384+332653548+332952827+333252779
1977+333571258+333937780+334332241+334680703+334952308+335273183+335732315
1963+336164708+336525561+336915843+337298088+337597162+337836299+338041917
1950+338179238+338220941+338177514+338015206+337886242+337843225+337567909
1936+337038407+336428188+335833020+335342238+335073761+335174378+335747424
1923+336907660+338451018+339945748+341612167+343331597+344681348+345827411
1909+346946091+348037915+349020852+349901155+350740370+351526281+352234427
1896+352904554+353615477+354211493+354680824+355348818+356021517+356533924
1882+357074648+357608798+358121292+358679668+359279366+359786279+360055750
1869+360499394+361398108+362155701+362557438+362933634+363435433+364019759
1855+364592951+365099163+365550346+365960120+366331640+366549502+367085083
1842+368061065+368607196+368854428+369320749+369849317+370187814+370587330
1828+371332211+371852742+372251615+372911894+373396918+373689856+374102435
1815+374621417+375035078+375436610+376003519+376566162+376963194+377185702
1801+377478231+378091956+378747033+379037282+379085822+379561115+380420757
1788+380791342+380769717+381004821+381414478+381793859+382198664+382400541
1774+382370908+382657972+383426027+383895037+384131632+384288212+384313578
1761+384732966+385306889+385725196+386292602+386640012+386913077+387746506
1747+388656383+389175570+389460004+389734209+390245856+390811304+390635933
1734+390702768+391757302+392307612+392290458+392327806+392457471+392632403
1720+392435787+392095828+392562851+393291455+393424364+393131631+392726942
1707+392405920+392409603+392249106+391630413+391808853+391937407+391525500
1693+391394608+390714077+389722052+388787656+387563800+387082136+387382029
1680+386809743+385454380+384230437+383823615+383511097+382766392+382554696
1666+382541457+381934512+381521962+381793625+381984981+381517666+380572253
1653+381028813+382945211+383105824+382307493+382816042+383758826+384137418
1639+384355280+384700703+385932274+388124923+389651506+390425172+391593650
1626+393169183+394771660+396641826+398218791+399223587+401044657+403639189
1612+405434630+406652670+408067766+409606419+411033174+412371470+413686738
1599+414894433+415939645+416923809+417924601+418883341+419750815+420531816
1585+421239992+421915847+422571683+423006092+423122929+423809596+424999874
1572+425131001+424813544+425334718+425880499+425966796+425459766+424490273
1558+425191581+426937137+427031150+426321951+425826143+425607988+425350148
1545+424852850+424398364+424154669+424736920+425322006+424362624+423136196
1531+422824701+422262527+421230173+420435174+419548353+418490984+417979396
1518+417234281+416014107+414776194+413304843+411412497+408940325+407051748
1504+406075270+403963863+400339374+396155340+391795380+387171911+381331512
1491+373910056+366375358+360121766+355263690+351233927+347628638+344336159
1477+341090817+337419307+332694841+327167777+321533726+315724508+309725804
1464+303733413+297535170+291267083+287240009+288509104+293897180+299805437
1450+305081703+310090924+315007945+319245809+322302424+324208769+325021390
1437+325391215+325977178+326033083+325408603+324945993+324824101+324874454
1423+325250591+325761420+326573047+328373193+330457802+332178431+333927318
1410+335917564+337982096+340021934+342197428+344193460+345473192+345957339
1396+345052138+342619534+339333045+334582775+327560777+319403002+312386206
1383+308483362+309256210+314974396+324300531+335884833+349220507+363441131
1369+377330359+389606151+398593263+403807137+406375221+407352693+407391414
1356+407108266+406716495+406021294+404885518+403557772+402516154+402005500
1342+401745147+401465711+401482631+401938374+402674517+403783115+405406107
1329+407504656+409988079+412829813+415986432+419415737+423137599+427106430
1315+431204429+435450914+439893050+444361547+448732407+452980499+457034575
1302+460881135+464481953+467738867+470611987+473122004+475206818+476713588
1288+477542370+477589244+476594384+474368275+471158060+467680770+465017242
1275+464405825+466710254+471921030+479096394+486939459+494472637+501197577
1261+506962112+511789211+515738959+518900955+521355330+523120729+524295402
1248+525005010+525107877+524378865+523153577+522165351+521719281+521926769
1234+523255100+526047066+530098220+534843143+539694381+544241810+548267598
1221+551768997+554852557+557570062+559919641+561917076+563641445+565250556
1207+566842250+568313601+569607155+570868038+572177080+573417565+574500242
1194+575459419+576322627+577082090+577701631+578144369+578443327+578649821
1180+578760929+578683545+578360565+577855873+577137557+576051431+574547058
1167+572716315+570674519+568501041+566288287+564222235+562462505+560982738
1153+559691931+558506562+557259941+555720207+553732591+551318018+548537508
1140+545374226+541865053+538197781+534528872+530796489+526959077+523222428
1126+519706943+516136342+512059939+507110509+500941110+493065870+482813668
1113+469515517+452627916+431505432+405509179+374784807+340772806+305771965
1099+272027799+241506311+216429272+199119551+191095679+192623213+202736953
1086+219342327+239628737+260472165+278556327+290713646+294512016+289532515
1072+279273387+270244690+266444421+264783993+257086637+236567168+203057171
1059+163028567+125127881+95743221+77604594+71118776+76391178+94209222+125571247
1043+170346556+226006058+287370581+348081751+402884839+449097527+486425065
1030+515420773+536404152+548411963+548064845+532728405+507641853+487931017
1016+488388162+510445451+543416302+576606680+605653558+630323965+651162395
1003+668351263+681881099+691859271+698753123+703277641+705915950+706719775
989+705512547+702266095+697086617+689549728+678345099+661302350+635195192
976+596700376+546707115+496247972+465107221+468272724+503795206+556353132
962+609985084+655841097+691686092+718383507+737601137+751129687+760713282
949+767760617+773109592+777114339+780048273+782336483+784185169+785501226
935+786319020+786846272+787181935+787176382+786617159+785517883+784089141
922+782314331+779868197+776592755+772538854+767695682+762057627+755743337
908+749063343+742582011+736791526+731362887+724747536+714604601+698623955
895+674821606+641405738+597736470+546094764+491797740+441783556+405083975
881+394257558+420045944+480007967+556426249+628748637+685362509+724543262
868+749495619+763925192+770544050+771874543+771512696+773497506+779352225
854+787097303+794097764+799310089+802692256+804391259+804890983+804859772
841+804584544+803928999+802828438+801444641+799881645+798114141+796116356
827+793979116+791795702+789363420+786325566+782600840+778287667+773284933
814+767227929+759723244+750825177+741565146+734059526+730678762+732529786
800+738385791+745367081+751077260+754729628+756516769+756938233+756623903
787+755922712+754747805+753144305+751323323+749378081+747282865+744839010
773+742134890+739682969+737720895+735983492+734105699+731878041+729156094
760+725821153+722164460+719278451+718272867+718962603+720056793+720576799
746+720451546+719852170+718846585+717626089+716315585+714811212+713148388
733+711555116+710084466+708647482+707163916+705589522+703872751+702379541
719+700890130+699370268+698005758+696720153+695390653+694073369+692848899
706+691711925+690619312+689556917+688570094+687706126+686915510+686089885
692+685199792+684350728+683718855+683334039+683011001+682633256+682234061
679+681875838+681508673+680695262+679494581+679992668+682915030+683986310
665+681892730+681135195+682642608+684317881+685510789+686524498+687466259
652+688579094+690011227+691466914+692741298+694040814+695607902+697445191
638+699429416+701509671+703666959+705805894+707907423+710117898+712581800
625+715386625+718255216+720715786+722999262+725835297+729384565+733104323
611+736500926+739644511+742866532+746252089+749753254+753495398+757534336
598+761469238+765082681+768861880+773122392+777444799+781410737+785301220
584+789397319+793558296+797754106+801988843+806216858+810615131+814917257
571+818959527+823107703+827321048+831201478+834918196+839101616+843724443
557+848321436+852891543+857433536+861778446+866065961+870469435+874861161
544+879057965+883154883+887363143+891651067+895851963+899853670+903773084
530+907887361+912002924+915743606+919291704+922653064+925896535+929323297
517+932943578+936652640+940216753+943567709+946623916+949518106+952343329
503+954556551+956604835+958993574+961094752+962274919+962447280+962407361
490+962691590+962766753+962291226+962120560+963409029+965832369+968060203
476+969396424+969602742+968944276+967985624+966561323+965620089+966783657
463+970429479+975362076+979534157+982737241+984756243+984856655+984128169
449+982374050+978749970+973602404+967973116+962927541+957823343+952071316
436+947800868+946742622+948812531+954870822+965209672+977630647+990161561
422+1002330394+1013801718+1026479744+1038860975+1046640537+1051308368
411+1055204928+1058297138+1060394109+1062900560+1067431625+1071833170
399+1073741823
##END=
