##TITLE=36
##JCAMP-DX=4.24
##DATA TYPE=INFRARED SPECTRUM
##DATE=16/11/2015
##SAMPLING PROCEDURE=Instrument type and / or accessory
##ORIGIN=Default
##XUNITS=1/CM
##YUNITS=TRANSMITTANCE
##RESOLUTION=4
##FIRSTX=3996.3359
##LASTX=399.24785
##DELTAX=-1.9287336
##MAXY=1.0830541
##MINY=0.027362186
##XFACTOR=1
##YFACTOR=1.0086727e-009
##NPOINTS=1866
##FIRSTY=0.10988467
##XYDATA=(X++(Y..Y))
3996+108939869+108914304+108900085+109000128+109186128+109341622+109446001
3983+109552640+109661369+109732701+109781866+109867653+110006948+110136884
3969+110216289+110301552+110454068+110639271+110751043+110787688+110843855
3956+110935603+111054600+111181862+111256156+111248326+111225103+111325183
3942+111513406+111649961+111715819+111724114+111759141+111886477+112014087
3929+112079103+112132906+112198779+112242086+112310973+112447040+112583218
3915+112630551+112638240+112654749+112619087+112556951+112601470+112761100
3902+112954051+113140627+113206913+113129325+113065011+113113223+113121067
3888+113143877+113340292+113459872+113509997+113630914+113633928+113565485
3875+113565957+113610387+113751403+113815563+113768836+113817638+113858486
3861+113779199+113541996+113311137+113531448+114133589+114369840+114200799
3848+114032556+114034041+114119725+114161451+114239409+114384354+114440470
3834+114475629+114592026+114665027+114668794+114634513+114593703+114729201
3821+114860836+114825440+114956034+115095528+115019905+114939259+115030254
3807+115182069+115112532+115106409+115299064+115321371+115302668+115371201
3794+115373069+115313120+115256377+115247528+115285679+115284941+115253541
3780+115327140+115441557+115451027+115358134+115304124+115415904+115547155
3767+115587810+115540027+115461545+115487760+115535189+115466391+115359072
3753+115414390+115612784+115618627+115452534+115593941+115747278+115502141
3740+115271771+115297402+115444202+115559948+115601291+115487272+115364368
3726+115351848+115373823+115395126+115366348+115234934+115001143+114832243
3713+114868223+114901093+114696043+114304321+113904260+113612071+113311617
3699+112866484+112342425+111785518+111211076+110700187+110356419+110064348
3686+109680006+109317180+109021623+108717889+108478448+108432304+108329794
3672+108234752+108343319+108300492+108036933+107791058+107601143+107371452
3659+107161911+107075711+106934783+106744499+106713365+106718477+106549820
3645+106233005+105917519+105630198+105327765+104993783+104605607+104128164
3632+103703056+103529539+103287527+102748533+102164303+101697608+101310769
3618+100824603+100237633+99716743+99219564+98674808+98085630+97416322+96708036
3603+96016828+95352440+94725169+94129225+93505566+92781444+92012795+91315515
3587+90619085+89816650+88982187+88206736+87504204+86830930+86141775+85434390
3572+84698531+83969016+83271462+82492273+81632512+80823651+80058829+79274358
3557+78444446+77569380+76700511+75884345+75090028+74263469+73429908+72651568
3541+71892906+71076156+70229720+69420756+68631344+67831266+67043102+66229794
3526+65351640+64510146+63775771+63072478+62315471+61531307+60787181+60076450
3510+59370835+58667993+57949901+57195545+56439764+55711169+54981621+54258410
3495+53588752+52964196+52297005+51550800+50827771+50204810+49568399+48805054
3479+48035759+47385911+46785760+46144884+45446684+44734635+44130779+43662891
3464+43167086+42557898+41957348+41436262+40901640+40324288+39766975+39229934
3449+38708675+38220393+37768615+37339214+36859157+36281055+35703222+35256762
3433+34895170+34508309+34127282+33807856+33502471+33129818+32666975+32218055
3418+31916124+31697963+31414243+31077485+30783645+30528819+30237750+29871728
3402+29458289+29122734+28954700+28828891+28607990+28363792+28220726+28144824
3387+28056742+27962602+27896655+27847633+27754677+27631900+27543495+27444911
3371+27286887+27150635+27126923+27208283+27335946+27446929+27511168+27548442
3356+27584313+27603776+27599821+27656165+27832876+28055166+28241227+28380840
3341+28490493+28637542+28894799+29209338+29490408+29738674+29962262+30168535
3325+30426895+30739575+31025203+31301026+31617687+31949988+32277310+32565104
3310+32760928+32932361+33258750+33794017+34383122+34874292+35270324+35646752
3294+36019225+36389264+36823011+37359140+37952399+38523972+39041523+39543163
3279+40037144+40513867+41004664+41502338+42032727+42692288+43437067+44138099
3263+44806288+45486608+46129546+46730313+47375995+48107054+48881833+49645824
3248+50420626+51279353+52185502+53053407+53897494+54746157+55584427+56454792
3233+57425296+58445389+59424295+60390481+61412639+62449891+63444589+64449325
3217+65520644+66634745+67750147+68865703+69979228+71071192+72173630+73326452
3202+74518533+75727544+76936229+78118959+79266440+80415827+81603158+82805676
3186+83985990+85167597+86383100+87601359+88814654+90039597+91254872+92473692
3171+93709545+94907779+96058687+97217566+98392370+99549054+100684022+101817573
3155+102919028+103968749+105047986+106205793+107390591+108547386+109657152
3142+110713239+111737063+112804186+113922623+114989495+115963880+116918846
3128+117905050+118888454+119803740+120609750+121359570+122155586+123014668
3115+123918371+124845121+125701411+126443904+127150956+127877775+128625822
3101+129378376+130106317+130811848+131506181+132178635+132802293+133380495
3088+133950026+134501296+135032298+135561528+136062747+136534835+136997334
3074+137433671+137849945+138272484+138694358+139080288+139404084+139695778
3061+139994163+140256592+140424738+140536984+140675260+140821616+140884815
3047+140835340+140698232+140517676+140345717+140166122+139910090+139564032
3034+139149544+138677575+138130072+137452964+136636237+135708815+134668793
3020+133513157+132242691+130835012+129272512+127552369+125656501+123540056
3007+121148692+118439819+115378535+111918365+108047142+103778058+98998212
2993+93465347+87064152+79994086+72549641+64848042+57002506+49422944+42818450
2978+37861958+34882270+33964713+35065873+37840220+41705881+46251981+51325933
2963+56836501+62641209+68373030+73407911+77183619+79486004+80381398+79973773
2947+78410372+76009930+73246811+70742020+69070627+68382544+68416418+68851329
2932+69520149+70445805+71742937+73455110+75520470+77772923+79940268+81795370
2916+83196002+83980258+84109234+83739229+83014751+82020629+80816375+79523291
2901+78479931+77901699+77549783+77112974+76511061+75757252+74809761+73587669
2885+72140842+70767333+69996232+70381580+72147083+75063510+78753712+83005577
2870+87669359+92547195+97499273+102390567+107026487+111304877+115290067
2856+119085608+122754522+126325542+129785151+133068193+136100123+138867867
2843+141385887+143664362+145756875+147743391+149697214+151671246+153662120
2829+155626683+157548286+159413308+161185202+162846725+164391084+165824822
2816+167163791+168432648+169706645+171046264+172460029+173953185+175508859
2802+177083222+178616132+180027356+181313482+182552733+183729760+184747224
2789+185586303+186307434+186970197+187595717+188186313+188745266+189257654
2775+189699235+190049194+190307087+190520734+190731944+190926387+191086512
2762+191217135+191331095+191447920+191569472+191699047+191852627+192028884
2748+192231644+192472356+192750547+193054325+193379509+193764761+194220169
2735+194684456+195151461+195663362+196196299+196725928+197274318+197875905
2721+198593639+199441271+200353521+201267204+202115177+202864524+203536107
2708+204135050+204685552+205253399+205890176+206609859+207363964+208085759
2694+208779058+209463537+210114482+210727312+211325635+211904812+212434174
2681+212911520+213383017+213880292+214404085+214971754+215577611+216172137
2667+216717912+217211671+217693509+218195792+218668544+219066397+219445695
2654+219852559+220253721+220645103+221048436+221440040+221801743+222149249
2640+222480697+222775981+223043816+223312582+223601823+223906177+224194710
2627+224462146+224738165+225045696+225382093+225718682+226030526+226342384
2613+226687054+227020127+227274371+227466628+227658396+227873743+228107718
2600+228342624+228558813+228767925+228975915+229165217+229359866+229587755
2586+229815452+230008639+230187393+230404261+230673219+230937494+231159710
2573+231356132+231535344+231698823+231851591+231990029+232121154+232260597
2559+232371986+232410041+232435052+232503643+232573106+232632420+232712548
2546+232813020+232967191+233233992+233593997+233973634+234335367+234691648
2532+235071448+235491254+235941639+236391449+236814800+237225077+237621038
2519+237960316+238270417+238599797+238923119+239248318+239617009+240012025
2505+240390496+240763131+241185123+241663474+242156583+242646398+243141546
2492+243634448+244100818+244548693+245001959+245457220+245913618+246389073
2478+246895405+247427101+247943655+248417751+248904700+249444744+249984964
2465+250488961+250992131+251529367+252086281+252623429+253125712+253590974
2451+253994426+254339111+254670086+255001327+255320927+255634588+255940272
2438+256230119+256511545+256751577+256900194+256993146+257092628+257211344
2424+257337860+257440356+257516023+257625580+257823775+258105408+258407665
2411+258696330+259025621+259432529+259871495+260321305+260812597+261292219
2397+261721612+262133750+262570914+263004739+263361626+263582512+263654900
2384+263610020+263505309+263414927+263386445+263390552+263372056+263349069
2370+263386592+263484951+263634779+263915615+264373904+265002526+265810671
2357+266709522+267604738+268420978+268762413+268378491+267750519+267684158
2343+268397637+269345770+270139644+270736002+271105210+271295723+271548549
2330+272008168+272499076+272885834+273294722+273844722+274443946+274914822
2316+275200533+275395064+275637608+275989324+276414345+276868881+277323714
2303+277735882+278087391+278424955+278798713+279194246+279564016+279888195
2289+280186286+280469780+280726211+280958177+281185800+281420603+281641814
2276+281809429+281922384+282026770+282152488+282274543+282358011+282407264
2262+282450313+282518387+282655717+282913684+283323370+283868938+284482610
2249+285089841+285670776+286180151+286639385+287087747+287523818+287924758
2235+288286904+288625620+288965755+289315905+289677756+290058930+290430709
2222+290774152+291125662+291487276+291822358+292129431+292423030+292733087
2208+293086221+293430788+293720339+294009418+294372510+294793276+295202459
2195+295578610+295922054+296255009+296627496+297033016+297417292+297772318
2181+298141939+298533248+298916047+299294621+299692931+300110358+300523826
2168+300909698+301267294+301624772+301988396+302335887+302674042+303017456
2154+303346127+303639962+303913736+304183640+304452509+304724303+304982388
2141+305221741+305499858+305864221+306269681+306678717+307137627+307672470
2127+308262712+308878541+309478888+310057134+310632839+311202547+311767084
2114+312315607+312800872+313244831+313715707+314179344+314581998+314964738
2100+315376226+315796164+316194209+316582592+316980548+317388550+317811355
2087+318260219+318711180+319122019+319504640+319899996+320310805+320724125
2073+321151273+321585689+321991150+322377199+322785525+323200855+323629805
2060+324091433+324568011+325060485+325565161+326055567+326524670+326986889
2046+327427687+327842100+328267002+328690752+329087733+329490121+329901226
2033+330300068+330705204+331146209+331607216+332070765+332535318+332978863
2019+333432514+333931902+334406884+334854537+335323876+335797086+336235993
2006+336615365+336969829+337346217+337740834+338092373+338350045+338637824
1992+339063080+339449395+339751474+340036299+340326973+340646071+340944752
1979+341217935+341539869+341938416+342320299+342598446+342884600+343283590
1965+343689671+344064847+344425664+344774278+345124724+345444531+345677620
1952+345822573+345900604+345881636+345735648+345614362+345517273+345253781
1938+344866344+344345092+343688814+343022402+342463243+342135193+342194374
1925+342867463+344066797+345487107+347292697+349170439+350694603+352072218
1911+353421204+354693931+355812191+356815753+357773016+358655912+359426444
1898+360156085+360907294+361519134+362082400+362855207+363549747+364075313
1884+364633615+365193691+365745759+366290619+366821059+367270780+367579921
1871+368104393+368933870+369602586+370114088+370641426+371148437+371665848
1857+372234935+372791553+373265886+373660238+373979867+374231895+374894702
1844+375789978+376167134+376469361+377025861+377516562+377815864+378246764
1830+378945972+379408014+379856700+380494659+380969228+381418772+381931958
1817+382372549+382719833+383164236+383735273+384231027+384615658+384916555
1803+385268212+385791030+386257356+386442521+386593797+387200142+387958117
1790+388230000+388372412+388720671+389033860+389335378+389698440+389815649
1776+389774550+390155518+390911838+391296764+391508521+391641715+391753192
1763+392237984+392675916+392960504+393403636+393650257+393973669+394731585
1749+395449673+395965133+396391661+396809708+397358586+397710893+397514234
1736+397990635+399132059+399468826+399502331+399740620+399947472+399959586
1722+399563491+399309099+399827249+400384252+400422425+400220330+399989073
1709+399806774+399651361+399089277+398481868+398761788+398752658+398513985
1695+398525301+397793504+396850954+395807948+394704668+394538235+394523048
1682+393354796+391931326+390969069+390461349+389642184+388761888+388638622
1668+388403287+387696398+387443897+387565065+387266857+386452005+385779862
1655+386656139+388124638+387615500+387141818+388139559+389041896+389227505
1641+389330118+389668894+390995897+393106934+394404746+395159175+396426052
1628+397983781+399603881+401477929+402924092+403968605+405974961+408556460
1614+410330496+411820209+413551520+415252281+416789475+418277386+419736105
1601+421032026+422162577+423247923+424313561+425285804+426169498+427010970
1587+427815835+428568167+429146325+429350872+429462024+430374525+431416675
1574+431255708+431199363+431969777+432352044+432134585+431422082+430820967
1560+431817083+433033288+432703997+432324212+432195362+432035192+431655171
1547+431005482+430354168+430129677+430878168+431214491+430079065+429335804
1533+429232008+428466262+427415220+426546417+425516087+424605270+424009384
1520+422894315+421643039+420503240+418980465+417036362+414997830+413772318
1506+412525681+409676316+406260051+403075515+399584794+395119997+389322407
1493+382768969+375676846+368036733+361015373+355505916+351255063+347497008
1479+343806230+340249739+336567294+332049462+326026730+319297050+313288205
1466+307714189+301273410+293962972+287563232+284305600+285315485+289566840
1452+295309121+301239373+306905070+312042542+316294548+319380576+321157182
1439+322288383+323191311+323272179+322832326+322465748+322025659+321547486
1425+321355023+321364005+321822323+323033772+324273348+325353730+326681264
1412+328216892+329817374+331601927+333791853+336058983+338054732+339770709
1398+340308891+338844173+335900970+332293572+327898917+321618278+313355954
1385+305571655+301316784+302153735+308031662+317773092+330234033+344354133
1371+359125517+373839405+386820563+396343500+402303417+405230399+406117166
1358+406255294+406231893+405976911+405320663+404221105+402863404+401687825
1344+400970416+400662251+400611106+400659296+400918031+401606602+402806262
1331+404533555+406736097+409328056+412256043+415506319+419096108+422971371
1317+427020100+431272431+435754896+440349754+444987277+449594545+454043061
1304+458268712+462238080+465909682+469244075+472206395+474773447+476880761
1290+478410953+479252071+479222052+478056518+475589834+472059876+468203078
1277+465152653+464256254+466482078+471722312+478878756+486651768+494097202
1263+500719808+506384795+511103186+514953690+518050414+520389341+521961192
1250+523074961+524037218+524420549+523568913+522069331+521225731+521094842
1236+521224786+522201284+524724342+528713889+533603233+538761801+543745043
1223+548266479+552253191+555831634+559074494+561941231+564409688+566532219
1209+568459510+570330959+572094150+573687866+575196902+576662624+578021625
1196+579245128+580362443+581382669+582282761+582998249+583455267+583683954
1182+583825952+583957787+583962514+583704459+583185630+582399409+581239016
1169+579640100+577702114+575553169+573220801+570803282+568565167+566674454
1155+565074002+563671391+562381941+561011416+559316240+557175331+554583903
1142+551529844+548024556+544183802+540206250+536206834+532124570+527998756
1128+524025931+520211769+516284741+511814537+506377409+499643858+491104155
1115+480019855+465738847+447704453+425319901+398077471+366203576+331265663
1101+295639653+261527080+230849949+205734808+188340234+180022141+180970615
1088+190233945+205773646+224863190+244464590+261446686+272859892+276335132
1074+271411514+261450852+252493869+248067305+245692111+238370608+219317346
1061+187508305+149101048+112966637+85407607+68611297+62631267+67499980+84012870
1045+113412096+156010191+209717190+269715628+330091886+385832454+433757965
1032+472608399+502245154+523620264+536975682+538351525+523746544+498460124
1018+478433319+478996290+501711433+535752474+570305903+600895431+627099611
1005+649369908+667934714+682752486+693800650+701476544+706565738+709643789
991+710724053+709602307+706305378+700975206+693182310+681573833+663900492
978+636817907+596883132+544978237+492516871+460026053+462975373+499322396
964+553397097+608880140+656566860+693961440+721883134+742098502+756465046
951+766741290+774315131+779980828+784177317+787297796+789735643+791664234
937+793039840+793904713+794385960+794563177+794412196+793771047+792549021
924+790886936+788806242+786033520+782354619+777773618+772365977+766157932
910+759171880+751645135+744251820+737687213+731567038+724159068+713184355
897+696377896+671482134+636600507+591501137+538699518+483270869+432098510
883+394474829+383181786+409223670+470416611+548839969+623348086+681910422
870+722673314+748860358+764230582+771450462+773099428+773042109+775447219
856+781818476+790180430+797722125+803227801+806789285+808651515+809243323
843+809273106+809073729+808415797+807159556+805599760+804032813+802365292
829+800290625+797823705+795302479+792711642+789609777+785729904+781101097
816+775697711+769224047+761279402+751927359+742182294+734143043+730398668
802+732277444+738439515+745790520+751818984+755614828+757274195+757468785
789+757074463+756398094+755211760+753500983+751525414+749480530+747279465
775+744613464+741623932+738908589+736742034+734911536+733036719+730845287
762+728136325+724695625+720799738+717630981+716442874+717107897+718216584
748+718732045+718553409+717765238+716516680+715121632+713674879+712114787
735+710498557+708871987+707267576+705726334+704132264+702376104+700456850
721+698640357+697022887+695600775+694262751+692860908+691364517+689901277
708+688618032+687485826+686332938+685090585+683900232+682878293+681963310
694+681097669+680295375+679557786+678911968+678380316+677920697+677518280
681+677173831+676813251+676419047+676017812+675422931+674720798+674818300
667+675999611+676911876+677324103+677833182+678562438+679384469+680261160
654+681325765+682670938+684124192+685502871+686849817+688319853+689979338
640+691754053+693530068+695333087+697317402+699544585+701922690+704384706
627+706974183+709568506+712058236+714475696+717084910+720284159+723861658
613+727269325+730397782+733583972+737138365+740892194+744555258+748297032
600+752259693+756136198+759834008+763749277+768068263+772389495+776616475
586+780959513+785213793+789230878+793258954+797536221+801937937+806233760
573+810647235+815219076+819809473+824244871+828221124+831955275+836040552
559+840532679+845174368+849904458+854531492+858877130+863020258+867260888
546+871737946+876271910+880691413+884851441+889024648+893340325+897384179
532+901270906+905346669+909416228+913220049+916775211+920424328+924132302
519+927529215+930761437+934378941+938379480+941991488+944984624+947663271
505+950328446+953325009+956011161+958132038+960047155+961199453+961436767
492+961275327+961031276+960939211+961039490+961383347+962574586+964983537
478+967385279+968387718+968503361+967995050+966257682+964275849+963328602
465+964432207+967686353+972013494+976757058+980053750+981105886+981575905
451+981230866+979266052+975338846+969890727+964244058+958280005+951477079
438+945123609+940658310+939256289+942089049+949095547+959497067+972090787
424+985055488+997598507+1011434344+1024408027+1033426081+1041215728+1048069236
411+1052373627+1055584694+1059542332+1063670392+1066936652+1069951534
399+1073741823
##END=
