##TITLE=36
##JCAMP-DX=4.24
##DATA TYPE=INFRARED SPECTRUM
##DATE=16/11/2015
##SAMPLING PROCEDURE=Instrument type and / or accessory
##ORIGIN=Default
##XUNITS=1/CM
##YUNITS=TRANSMITTANCE
##RESOLUTION=4
##FIRSTX=3996.3359
##LASTX=399.24785
##DELTAX=-1.9287336
##MAXY=1.0889779
##MINY=0.027733594
##XFACTOR=1
##YFACTOR=1.0141897e-009
##NPOINTS=1866
##FIRSTY=0.096449308
##XYDATA=(X++(Y..Y))
3996+95099866+95152936+95194730+95222609+95272263+95337322+95438217+95599770
3981+95731688+95787601+95862578+96030486+96225252+96317911+96303806+96305606
3965+96369306+96423956+96469643+96573579+96735220+96906537+97008078+96991122
3950+96933064+96988558+97165179+97302019+97392372+97491731+97552419+97579564
3935+97575964+97567398+97643396+97794312+97945669+98099097+98251041+98309033
3919+98297382+98329295+98424863+98497981+98550941+98657705+98767952+98831909
3904+98923694+99023384+99054459+99098346+99145840+99121428+99101351+99175402
3888+99175475+99126269+99282790+99421408+99453350+99583954+99651268+99618320
3873+99672800+99771682+99900044+99937827+99836234+99824355+99885477+99917749
3857+99859272+99714094+99804689+100194258+100322518+100149791+100013332
3844+100061128+100207555+100289907+100368058+100566431+100720138+100719756
3830+100659237+100580558+100575988+100656122+100657944+100735375+100902004
3817+100922736+101009907+101118508+101031718+100884329+100888090+101041372
3803+101029522+101005088+101215245+101332007+101328687+101342101+101311864
3790+101268821+101267492+101317146+101405361+101460914+101468848+101505227
3776+101500767+101437310+101434489+101516555+101653299+101736636+101762297
3763+101746958+101672525+101712775+101874365+101936611+101859276+101870560
3749+102062799+102138084+101988439+102063592+102241521+102046924+101720665
3736+101658626+101874711+102090708+102160410+102084779+102012418+102003279
3722+101966231+101928508+101878193+101760798+101585845+101477788+101560537
3709+101680371+101625075+101376710+101069581+100870797+100727867+100498088
3695+100230446+99938297+99564273+99215520+99082118+99036365+98848277+98611915
3680+98440863+98283696+98227452+98445940+98549633+98401076+98344230+98254612
3665+98011022+97746319+97507379+97251587+97039586+96965058+96799207+96449469
3649+96200179+96028899+95698167+95232615+94820331+94489973+94151645+93812582
3634+93533069+93228034+92832772+92553310+92258266+91735993+91164786+90709489
3618+90393207+90045571+89538255+89011618+88506822+87988450+87515088+87017455
3603+86432701+85844465+85293453+84725992+84151656+83615799+83024992+82288235
3587+81582648+81060155+80562272+79952173+79281445+78638537+78035954+77438094
3572+76824051+76174634+75528421+74967036+74392178+73689824+72964490+72300631
3557+71640717+70932361+70239469+69633896+68997637+68228975+67445348+66778653
3541+66218120+65649301+64986455+64275749+63567907+62841993+62099352+61354900
3526+60627142+59995085+59471861+58897803+58178340+57419753+56749888+56166332
3510+55569097+54921686+54256413+53594008+52966704+52358813+51737111+51150891
3495+50624460+50075083+49443643+48790293+48192973+47639592+47063113+46478712
3479+45970357+45497363+44949645+44322665+43659213+43012714+42473052+42031184
3464+41553173+41020431+40508130+40002423+39504338+39056839+38628430+38181971
3449+37743957+37322034+36876097+36400543+35920875+35415623+34899550+34463927
3433+34125635+33833273+33563688+33280678+32948484+32589656+32260790+31980420
3418+31686060+31328642+30965245+30662050+30412759+30209102+30020090+29721221
3402+29305753+29016597+28967094+28957373+28804137+28547611+28366685+28327318
3387+28315925+28237017+28086889+27896290+27717880+27629160+27640670+27616859
3371+27472538+27345568+27396954+27570182+27677114+27659594+27648215+27749923
3356+27893204+27955433+27959915+28041835+28228364+28384965+28459767+28575029
3341+28787838+29036111+29285468+29523766+29747174+29951843+30103280+30247258
3325+30491615+30804237+31083061+31349921+31659286+31987642+32302216+32580814
3310+32790530+32974736+33291132+33805137+34360810+34807453+35157418+35474379
3294+35801952+36178614+36620301+37096370+37579083+38076063+38589575+39115250
3279+39626437+40067765+40442674+40836030+41329355+41937753+42606667+43259628
3263+43867548+44450623+45037717+45672914+46378971+47099728+47769941+48399713
3248+49054155+49758577+50469339+51200659+52023291+52876355+53631136+54328509
3233+55116856+56021157+56944562+57840393+58730417+59611426+60486331+61400374
3217+62362373+63329283+64273618+65223514+66223564+67247563+68237607+69194967
3202+70169819+71169545+72143971+73124023+74170340+75216246+76200405+77188664
3186+78234665+79305629+80352894+81356572+82346352+83361197+84389398+85406138
3171+86411734+87416816+88411672+89375952+90339623+91329483+92291383+93198171
3155+94091523+94995108+95941874+96953245+97967686+98925861+99814959+100619677
3140+101392438+102251277+103186025+104065954+104848141+105605115+106409231
3126+107241078+108017564+108722754+109410540+110117970+110861905+111634725
3113+112383919+113061016+113700016+114368767+115048333+115673095+116244831
3099+116817654+117399124+117950137+118471300+119002213+119550404+120063068
3086+120501130+120891963+121276176+121681400+122131760+122619322+123073671
3072+123427897+123718959+124019556+124334817+124647962+124966528+125268801
3059+125498888+125644228+125743492+125834836+125945883+126071859+126136697
3045+126099113+126038785+126017099+125984511+125879164+125717368+125533372
3032+125296923+124985879+124594863+124096796+123521298+122922197+122281795
3018+121536281+120643238+119626064+118530754+117338488+115979511+114377855
3005+112496436+110338669+107859699+104992298+101696621+97877561+93398102
2991+88177140+82199153+75502680+68228865+60673284+53320684+46850022+41956633
2976+39087290+38354845+39592174+42382181+46176601+50561326+55381298+60618734
2961+66140492+71516226+76167369+79654316+81762825+82477366+81939379+80401798
2945+78209438+75739393+73428008+71759177+70970217+70887394+71161008+71614784
2930+72348941+73510896+75107748+77047798+79158541+81173421+82856276+84082137
2914+84801586+85042803+84858256+84278777+83397165+82380858+81392062+80575561
2899+79992570+79533938+79043100+78425361+77642778+76692206+75550152+74255528
2883+73016598+72203557+72300066+73643946+76127251+79343235+82985917+86933493
2868+91076071+95239506+99241453+102956253+106363037+109548460+112576871
2855+115453579+118229393+120927798+123445396+125701148+127764646+129699994
2841+131474826+133104861+134660977+136178010+137683128+139199030+140720780
2828+142238563+143709681+145079715+146357640+147568169+148726202+149849795
2814+150918158+151920081+152930173+154048154+155280972+156562790+157851044
2801+159104315+160271707+161343155+162325052+163220409+164050516+164811215
2787+165463173+166023551+166532241+166985187+167398374+167791124+168150625
2774+168470308+168741520+168953682+169124823+169286339+169440759+169587216
2760+169744119+169893617+169997920+170070120+170161993+170300149+170474169
2747+170674151+170892014+171127067+171395032+171701683+172050458+172445323
2733+172871249+173306035+173728538+174145927+174596552+175095985+175647328
2720+176268563+176973327+177737111+178480384+179135722+179686286+180137086
2706+180543721+181007569+181569593+182180000+182800163+183422236+184021080
2693+184595799+185163392+185704553+186192496+186640535+187080933+187496031
2679+187872178+188272759+188732331+189237157+189769722+190276399+190743641
2666+191212631+191681489+192112029+192483107+192823507+193187004+193576595
2652+193929351+194206837+194459845+194746323+195074116+195425403+195758854
2639+196047712+196295797+196516158+196756016+197038498+197315381+197569359
2625+197832387+198124051+198444557+198772233+199086231+199371930+199624188
2612+199874875+200130733+200365199+200590805+200822582+201048158+201260085
2598+201460347+201652218+201844149+202034184+202203370+202372967+202579855
2585+202808884+203034006+203243817+203441125+203640549+203851227+204067665
2571+204265032+204442387+204624561+204797494+204937750+205061712+205177755
2558+205271509+205345781+205426561+205517832+205571916+205615597+205760437
2544+206000707+206238787+206459691+206737427+207102951+207494423+207876506
2530+208272885+208666781+209017466+209350152+209697193+210034831+210361684
2517+210692916+211001697+211283032+211579149+211901065+212238497+212598615
2503+212955147+213297442+213683962+214133294+214594409+215025257+215419021
2490+215801412+216208914+216637499+217048806+217441835+217853832+218306220
2476+218780440+219227157+219651643+220117107+220595985+221016445+221414955
2463+221851298+222326062+222826774+223327162+223775583+224141930+224460511
2449+224781473+225116789+225452091+225765765+226058766+226341982+226613047
2436+226873578+227111188+227300694+227444623+227585732+227749585+227895483
2422+228002916+228115021+228253014+228420379+228636552+228892969+229170440
2409+229479618+229833741+230221348+230639590+231087658+231499170+231866649
2395+232231321+232615255+232982631+233271445+233444172+233504573+233483298
2382+233426981+233382639+233397684+233515226+233704717+233858344+233971610
2368+234193542+234531489+234800938+234972137+235451309+236496149+237708809
2355+238483201+238539842+237943745+237258082+237263577+238109199+239143461
2341+239832606+240351228+240859756+241193207+241311130+241519590+241955522
2328+242372235+242634955+242926898+243374011+243810016+244060453+244220486
2314+244464766+244828792+245242405+245624959+245960407+246288965+246651742
2301+247042743+247425517+247783078+248114750+248425030+248751237+249103567
2287+249432624+249694859+249904612+250112043+250347420+250597783+250829839
2274+251015261+251155429+251287634+251419192+251510463+251560065+251632588
2260+251771522+251965377+252219355+252577063+253050960+253589388+254129432
2247+254649024+255093536+255485654+255861846+256243179+256630096+257014545
2233+257377483+257719999+258084671+258444319+258739818+259025972+259363757
2220+259695253+259983229+260301208+260672316+261016565+261314298+261633393
2206+261995127+262358594+262697613+263030461+263389638+263772911+264146311
2193+264480687+264787264+265108622+265471532+265858419+266232230+266596138
2179+266964925+267328715+267691154+268072165+268471629+268861367+269210494
2166+269513134+269818654+270172982+270535950+270863303+271167647+271471580
2152+271782741+272094784+272389431+272659776+272913254+273152099+273409720
2139+273715915+274048029+274406706+274805906+275230760+275686380+276189839
2125+276735554+277293611+277817405+278313224+278852328+279429456+279956248
2112+280394677+280779948+281163956+281581257+282023507+282427526+282780532
2098+283151317+283532357+283882219+284218475+284577652+284958663+285346344
2085+285747983+286149945+286523727+286898390+287308022+287722120+288112798
2071+288504593+288907819+289279309+289616036+290003158+290435475+290851190
2058+291258882+291684265+292155371+292660593+293145657+293587672+294001241
2044+294395152+294774987+295171131+295569185+295919958+296235145+296558472
2031+296938395+297379381+297838116+298296322+298767310+299228219+299643434
2017+300059560+300525818+300978999+301402765+301837727+302249180+302607417
2004+302948581+303323626+303724472+304099782+304411795+304647348+304928067
1990+305381189+305799078+306093695+306383729+306695860+307017835+307324530
1977+307618736+307926460+308275146+308650926+308994294+309357174+309819817
1963+310245757+310584571+310936137+311296166+311612882+311894158+312149958
1950+312371141+312545955+312632847+312557121+312469641+312425298+312155894
1936+311703124+311229902+310769346+310386513+310209849+310360948+310895879
1923+311928098+313305507+314632344+316112749+317647634+318849877+319892058
1909+320948696+321987380+322897239+323689321+324439029+325140869+325786054
1896+326418015+327090440+327653317+328108525+328770695+329453052+329969382
1882+330491001+331010535+331512701+332042225+332586060+333044618+333343996
1869+333862882+334758372+335443550+335797761+336170250+336665011+337195123
1855+337684448+338140332+338619284+339115867+339566873+339843242+340384873
1842+341282243+341752761+341962396+342405469+342941017+343329756+343785611
1828+344545134+345058437+345418702+346013637+346484920+346814212+347253288
1815+347780872+348209487+348613213+349141532+349659067+350059442+350347742
1801+350706155+351310465+351909074+352188293+352304718+352843028+353692706
1788+354054322+354064372+354312913+354707646+355084249+355519270+355797197
1774+355868750+356218582+356981397+357435048+357662755+357838832+357931308
1761+358387280+358948834+359341981+359861396+360193069+360501409+361333397
1747+362195592+362687621+363010948+363379176+363945138+364491353+364375604
1734+364570076+365634707+366114952+366053830+366096263+366260498+366499401
1720+366449240+366296407+366843092+367562034+367704171+367459420+367157250
1707+366995513+367130392+367074031+366634250+366989225+367231772+366862310
1693+366707684+366081188+365247820+364541925+363622339+363356931+363663303
1680+363086997+361868680+360859117+360589565+360359361+359717173+359562254
1666+359591345+359081392+358707022+358884862+358985331+358566619+357804980
1653+358342174+360116314+360208496+359436514+359853198+360617834+360851918
1639+360996788+361358463+362558766+364530435+365798413+366395641+367403529
1626+368819021+370301865+372064046+373597520+374682633+376524742+378953060
1612+380574955+381719632+383091957+384574096+385953150+387245606+388489811
1599+389649827+390736028+391793224+392787683+393661486+394469936+395285997
1585+396091596+396850120+397544114+398044870+398321856+399141355+400339190
1572+400491377+400253150+400820698+401399854+401570936+401292069+400708270
1558+401615366+403241464+403240024+402571478+402164843+402047302+401938929
1545+401679221+401516250+401508698+402128435+402669184+401834699+400810267
1531+400595812+400132347+399313054+398808331+398279541+397587134+397285582
1518+396645569+395565275+394549894+393410300+391980321+390092841+388702062
1504+387965635+386083856+382900659+379333923+375651850+371719444+366666897
1491+360176231+353537551+347963943+343627018+340098660+337012493+334223029
1477+331481200+328366000+324217817+319168238+313920513+308557158+303099034
1464+297625101+291870803+286011569+282260412+283446199+288392694+293734686
1450+298469489+302962098+307375161+311190438+313943963+315644317+316353767
1437+316711328+317318988+317426862+316887640+316497961+316412156+316478156
1423+316897191+317554982+318608741+320617905+322855071+324766206+326756035
1410+328990145+331296954+333546549+335772284+337604372+338647288+339095385
1396+338577674+336719315+333731001+329121497+322507207+315004803+308547167
1383+304862390+305383275+310374465+318662751+329052853+341058474+353840073
1369+366309777+377375008+385515896+390261395+392627298+393515441+393487378
1356+393175041+392835523+392281873+391344921+390194838+389241253+388757277
1342+388562981+388421696+388558749+389045958+389713652+390643023+392016671
1329+393879966+396161621+398786879+401680955+404781286+408098862+411651169
1315+415384784+419293036+423388884+427523667+431584253+435534820+439293794
1302+442837432+446151512+449192984+451923060+454295927+456248907+457729958
1288+458693915+458961175+458194746+456263629+453487683+450502543+448226236
1275+447804791+450058089+454920630+461508650+468725016+475730543+482056563
1261+487576396+492290982+496178017+499324953+501861850+503782182+505098822
1248+505895988+506167509+505868836+505151246+504397335+503996343+504312529
1234+505770278+508597619+512564994+517096627+521603811+525719170+529303302
1221+532368135+535012112+537340901+539365787+541056326+542483631+543797333
1207+545085587+546310251+547434240+548523673+549631794+550696308+551641870
1194+552469714+553234850+553980709+554624131+555032117+555256915+555432698
1180+555580036+555622057+555468078+555133203+554630713+553821382+552604299
1167+551069679+549368267+547555778+545680405+543951959+542571493+541507803
1153+540617132+539770717+538825860+537629465+536071865+534135018+531859534
1140+529247411+526321688+523237519+520130958+516975383+513779784+510719770
1126+507845706+504889716+501487245+497365244+492242202+485601142+476728205
1113+464981323+449808167+430575836+406636324+377956367+345784579+312296561
1099+279651903+249844254+225206253+208224208+200593111+202588480+213110787
1086+230029300+250632281+271867988+290447171+303238791+307792698+303602611
1072+294137119+286069811+283499004+282833955+275169638+253744396+218922122
1059+177341922+137621918+106449393+86992110+79925755+85455645+104210361
1045+136717452+182241180+237715876+297696890+355917148+407522968+450426258
1032+484950991+512025361+531670292+542495914+541694693+527444678+504495247
1018+486406565+486745113+506908255+536927978+566817289+592665232+614386591
1005+632540802+647437178+659218999+668052589+674367560+678785471+681729707
991+683225598+683093952+681312435+677899209+672319283+663268477+648626697
978+625251589+589982114+543766537+497058931+468139866+470808173+503469816
964+551929259+601083313+642559679+674363505+697527684+713857242+725199458
951+733203970+739080629+743556958+746950496+749461239+751479425+753234201
937+754605968+755601838+756384076+756965200+757232372+757043953+756381784
924+755405426+754138094+752374503+749951563+746820084+742986001+738493451
910+733412488+727973024+722679194+717973542+713532827+707956898+699191130
897+685145696+663876049+633557947+593408740+545316262+494134795+446549360
883+411457549+401081053+425485970+481847956+553145284+620130722+672170946
870+707961952+730729194+743962946+750057586+751363236+751279017+753287682
856+758563000+765460094+771776064+776537490+779658450+781306498+781942573
843+782125115+782080861+781671347+780776034+779628888+778544745+777441560
829+776013961+774224863+772287605+770264893+767874219+764798924+761055406
816+756734878+751520212+744898458+736921158+728596993+721880442+719015487
802+720961856+726451216+732906590+738264656+741755518+743464923+743986748
789+744005437+743679789+742814273+741544238+740208086+738830853+737165703
775+734991363+732536099+730370634+728692495+727205479+725622314+723843618
762+721633546+718736973+715528093+713073358+712330555+713123842+714222031
748+714757315+714773771+714434781+713743755+712748650+711559718+710318364
735+709047271+707677032+706313375+705124209+703946209+702507678+700870738
721+699608578+698493228+697376878+696377776+695353814+694177401+693038777
708+692124247+691336778+690507876+689648589+688810637+688017937+687341898
694+686785868+686246059+685687033+685182192+684788899+684534892+684494399
681+684589548+684548115+684181092+683251633+682030672+682610151+685746685
667+687273195+685523532+684713496+686024788+687600959+688743285+689761488
654+690899347+692328357+694003851+695537414+696741332+697951832+699488510
640+701294063+703182660+705117039+707162847+709332544+711636238+714101257
627+716625988+719146781+721634016+724018109+726659852+729945487+733472963
613+736680962+739667454+742820855+746218683+749589947+752839203+756307733
600+760142227+763957269+767544103+771282861+775484731+779728270+783510870
586+787255621+791350764+795438854+799492035+803740921+807929216+812004905
573+816000196+819975623+824148519+828398640+832359727+836027019+839962012
559+844473603+849012289+853091916+857052826+861320696+865852446+870489925
546+875039835+879299771+883223127+887044339+891256965+895810284+899921941
532+903455353+907071162+910799340+914294963+917815505+921363257+924875159
519+928516357+932265223+935993166+939417970+942584183+945529712+948325082
505+951168467+953755436+956298327+958884649+960954847+962097937+962354765
492+962679532+963523127+964021502+963773431+963868875+965473315+968105655
478+970584251+972363592+972920856+972178053+970866115+969446979+969100996
465+970978543+974928464+979501236+983044815+986192398+988756094+989360609
451+988745985+986942547+983610777+978983760+973671123+968894946+964405863
438+959660834+956240731+955152122+956490154+961577053+970585250+981888443
424+994473190+1007335511+1018936966+1030817934+1041793833+1048191730+1052182260
411+1056383190+1060887142+1065344547+1069004317+1071376185+1072672314
399+1073741823
##END=
