##TITLE=14
##JCAMP-DX=4.24
##DATA TYPE=INFRARED SPECTRUM
##DATE=16/11/2015
##SAMPLING PROCEDURE=Instrument type and / or accessory
##ORIGIN=Default
##XUNITS=1/CM
##YUNITS=TRANSMITTANCE
##RESOLUTION=4
##FIRSTX=3996.3359
##LASTX=399.24785
##DELTAX=-1.9287336
##MAXY=0.45602161
##MINY=0.0082274238
##XFACTOR=1
##YFACTOR=4.2470322e-010
##NPOINTS=1866
##FIRSTY=0.040513512
##XYDATA=(X++(Y..Y))
3996+95392524+95113388+95176262+95358938+95356622+95249022+95258627+95429268
3981+95665353+95876711+96026029+96109999+96158119+96209073+96305945+96482349
3965+96668551+96754231+96773257+96836578+96903505+96924293+97002316+97079795
3950+97021745+96969633+97073470+97243401+97317511+97308258+97290092+97224577
3935+97193912+97344887+97607156+97809207+97893484+97885651+97827128+97784700
3919+97766218+97831443+98048828+98272361+98304561+98172164+98069143+98102273
3904+98194444+98300009+98446265+98468404+98296912+98143253+98085466+97965060
3888+97923334+98099860+98117228+97922167+97836636+97862977+97933807+97941543
3873+97799717+97789603+97906326+97898028+97808909+97679012+97554088+97385122
3857+97141423+97210017+97746570+98038021+97785744+97397885+97213587+97252260
3842+97339624+97429208+97507485+97428866+97281961+97198956+97082558+97010342
3827+97071225+97113898+97159633+97150195+97012763+97006500+96997369+96813342
3811+96709040+96902364+97214271+97201561+97102820+97250129+97276470+97074777
3796+96821228+96564749+96416019+96424098+96506778+96600449+96625018+96529926
3780+96430860+96360890+96219818+96019687+95949497+96077307+96131576+95985276
3765+95729025+95494764+95481160+95621574+95603698+95388392+95313071+95473230
3749+95456258+95220874+95294099+95456582+95161605+94713880+94533529+94612964
3734+94661664+94515741+94233658+94016378+93899752+93785556+93676324+93524174
3719+93224100+92811839+92534826+92560833+92664548+92492416+91965283+91285762
3703+90678852+90069653+89296742+88415460+87473478+86497261+85634433+84992043
3688+84408149+83764864+83173945+82687170+82366518+82375255+82613077+82512546
3672+82086444+81793466+81526488+81130892+80699150+80275924+79876241+79583755
3657+79343223+78915366+78402013+78067231+77796340+77349423+76714146+76089140
3641+75616408+75228558+74767413+74176082+73545537+73109448+72949289+72580048
3626+71732816+70826411+70230497+69914148+69541793+68944220+68251292+67547058
3611+66912886+66377609+65786997+65095301+64401413+63759966+63208680+62736983
3595+62187417+61465228+60734122+60164596+59646349+58982223+58222469+57542199
3580+56960630+56328331+55597361+54916341+54360683+53872763+53359331+52732760
3564+52056130+51474802+51020214+50556197+49945835+49258464+48606635+47999585
3549+47458606+46963529+46382706+45696484+45050826+44507088+43995709+43480431
3533+42986060+42495478+42002290+41484789+40868695+40242817+39739064+39285748
3518+38808117+38348078+37916217+37521424+37194264+36879314+36536992+36146664
3503+35629529+35038070+34583291+34338537+34096974+33709723+33318619+32965469
3487+32496425+31983349+31611318+31312977+30953500+30568788+30221318+29853123
3472+29425619+29002097+28619183+28301883+28067378+27795299+27375293+26930336
3456+26599720+26321288+26018813+25702898+25406000+25165772+24957787+24728828
3441+24512656+24328889+24083896+23752223+23409634+23095136+22867217+22725026
3425+22564611+22396200+22267190+22095929+21799833+21452437+21244969+21236689
3410+21248019+21093380+20837894+20620440+20378157+20129474+20069841+20160891
3395+20177097+20059442+19909315+19806119+19781175+19780501+19683690+19580989
3379+19640111+19721473+19677166+19585166+19471573+19372172+19391998+19479494
3364+19552558+19666987+19810923+19893478+19931963+19968760+20028356+20135057
3348+20238830+20321096+20409439+20483964+20562631+20677599+20817406+21020725
3333+21284408+21487361+21626716+21803877+21990658+22117358+22195558+22293580
3317+22504607+22820636+23113381+23287340+23341381+23402904+23634507+24014948
3302+24423384+24790836+25080998+25306718+25475729+25590059+25775079+26140886
3287+26531743+26749072+26912350+27227037+27660610+28085540+28440516+28740715
3271+29058138+29412922+29754513+30086004+30470444+30933850+31435438+31893995
3256+32277135+32639866+33043612+33503994+33985052+34465845+34990995+35551300
3240+36061243+36522127+36995234+37510674+38098032+38684908+39181692+39707925
3225+40362004+41042507+41690617+42350327+43025202+43676851+44248645+44730679
3209+45241172+45869958+46579837+47319227+48031882+48679114+49312874+50011205
3194+50800347+51618659+52333678+52906480+53480878+54187897+54967523+55714097
3179+56425796+57097882+57745566+58470558+59259354+59943927+60483647+61036634
3163+61711238+62488815+63316899+64116343+64813525+65414817+66015341+66658179
3148+67266299+67815567+68383093+69039483+69795710+70567090+71233616+71794146
3132+72348896+72929641+73488465+74048368+74674435+75287652+75785049+76235010
3117+76730619+77253199+77713897+78110430+78558734+79060096+79529398+79987026
3101+80455117+80897982+81320603+81732978+82114267+82484004+82867942+83230723
3086+83538252+83803178+84047649+84298234+84600807+84943589+85236347+85475985
3071+85712632+85932261+86153558+86357548+86458535+86481858+86542487+86690462
3055+86848367+86962134+87064462+87115109+87033929+86832245+86594449+86399695
3040+86274666+86147207+85920973+85630109+85330676+84989446+84589150+84112848
3024+83503491+82767403+81980800+81163786+80282266+79323864+78296141+77189570
3009+75906552+74369511+72666938+70860331+68826765+66450228+63789271+60943489
2993+57799450+54205260+50207152+45895395+41370215+36912444+32818914+29256658
2978+26484530+24822348+24304412+24694830+25746245+27279852+29153458+31303370
2963+33869803+36967753+40305866+43298663+45467696+46736180+47252011+47003466
2947+45949503+44332452+42602784+41179557+40362583+40252610+40679608+41345607
2932+42086914+42992428+44172424+45570130+47076239+48573317+49958747+51206898
2916+52274181+53024645+53373888+53362156+53023781+52407183+51669688+51023416
2901+50627763+50429045+50184977+49767839+49209633+48498281+47584254+46436010
2885+45087662+43792706+42970319+43006243+44145987+46282829+48951615+51811089
2870+54816464+57912133+60980001+63950321+66740763+69268981+71586292+73830440
2855+76082062+78336464+80538342+82650154+84596421+86253957+87672311+89006546
2839+90295081+91557153+92824391+94049789+95204980+96339409+97483942+98615485
2824+99703565+100724806+101659674+102496082+103255020+104005247+104779746
2810+105587506+106471086+107417498+108392741+109385957+110314817+111126427
2797+111868638+112551886+113182067+113778547+114270989+114635279+114949623
2783+115245434+115529377+115847055+116187179+116413063+116489875+116568687
2770+116691760+116775467+116814614+116854331+116887146+116898820+116918398
2756+116959212+117026920+117119696+117199333+117235796+117230656+117223296
2743+117270952+117412331+117648574+117939833+118239739+118541339+118868710
2729+119208334+119500206+119745045+120066749+120533359+121048036+121573494
2716+122177886+122815944+123337761+123714112+124052122+124390746+124704977
2702+125032286+125415803+125838721+126270990+126686602+127060549+127392613
2689+127679853+127926921+128192654+128488394+128713533+128833255+128973169
2675+129216570+129501215+129808481+130203936+130622468+130933427+131183530
2662+131467569+131754415+132035866+132359448+132648285+132829355+133029600
2648+133333208+133609774+133751925+133852570+134012948+134186940+134331907
2635+134451006+134575764+134754264+134931422+135065889+135196874+135293537
2621+135358797+135463809+135582374+135685185+135793039+135869764+135895938
2608+135918340+135967733+136029589+136105410+136210590+136314918+136391537
2594+136406440+136315550+136186678+136154864+136219089+136271253+136319777
2581+136421045+136520540+136568625+136629254+136754301+136863348+136907021
2567+136922880+136912977+136897417+136920819+136964694+136955624+136874707
2554+136771510+136660919+136563047+136540276+136607658+136694128+136739968
2540+136789045+136916995+137117310+137309134+137476863+137681888+137929824
2527+138186066+138422590+138619554+138784415+138942232+139132477+139364966
2513+139584210+139739133+139849873+139993805+140205462+140457546+140745550
2500+141030993+141254842+141472823+141732126+141980930+142228375+142501844
2486+142746087+142981278+143258396+143502595+143698665+143943556+144236508
2473+144483575+144653207+144809138+145026102+145321000+145650783+145976758
2459+146298857+146616070+146889961+147070742+147201341+147378017+147610549
2446+147843837+148016249+148116753+148225380+148362794+148448562+148500981
2432+148566767+148588784+148595099+148681341+148782897+148768880+148692709
2419+148676025+148676832+148652728+148692972+148865841+149099760+149289172
2405+149472777+149700257+149914668+150103589+150290194+150491413+150705876
2392+150917007+151088771+151188292+151229957+151249412+151231553+151126172
2378+150935918+150683176+150333561+149925615+149670031+149669259+149758693
2365+149801288+149726046+149610525+149781183+150270687+150734612+150919603
2351+150877184+150886254+151212186+151755476+152034620+151854524+151705741
2338+151872821+152150931+152453355+152793427+153018697+153135446+153319735
2324+153596985+153910268+154270479+154657549+154962482+155144333+155276677
2311+155459581+155731410+156017063+156209177+156314663+156420395+156548617
2297+156668015+156780589+156904653+157013297+157076382+157118502+157173973
2284+157236848+157266881+157243268+157212130+157229339+157262846+157227795
2270+157103784+156952598+156851182+156815587+156785571+156722398+156679471
2257+156730644+156868321+157043822+157288986+157632618+157933236+158129981
2243+158284745+158439931+158570521+158659885+158720830+158809843+158961327
2230+159087830+159140845+159201316+159291645+159395394+159520353+159619875
2216+159695643+159814076+159941702+160019733+160078397+160140096+160184357
2203+160212251+160261196+160371629+160532428+160701683+160885359+161083315
2189+161233799+161359284+161551994+161764405+161909468+162021375+162148439
2176+162287801+162397901+162449443+162516124+162662520+162828197+162965664
2162+163099552+163244826+163402784+163568144+163717734+163851990+163964669
2149+164002545+164011667+164073524+164105049+164068278+164093839+164237955
2135+164433191+164658022+164936325+165240188+165528420+165756619+165921699
2122+166142619+166471586+166781167+166989526+167163237+167384244+167661845
2108+167911763+168059405+168184417+168373425+168580065+168762775+168918294
2095+169020675+169082374+169163177+169311135+169531300+169769657+169977384
2081+170175340+170369103+170487097+170505201+170505570+170555848+170682298
2068+170868395+171026545+171122856+171240219+171416492+171622903+171868751
2054+172160105+172445373+172665748+172843775+173047081+173237844+173359750
2041+173464921+173583336+173682893+173767012+173902900+174146380+174448401
2027+174706932+174903361+175082125+175289764+175574435+175886174+176094270
2014+176208475+176347012+176556213+176781308+176962299+177114958+177268618
2000+177420663+177551411+177653319+177765647+177898202+177996636+178081334
1987+178153435+178224643+178335532+178423703+178441018+178448860+178517927
1973+178639956+178783002+178957222+179118951+179209894+179303627+179416253
1960+179473338+179476759+179473601+179487021+179521283+179512599+179362378
1946+179089286+178837789+178586362+178223994+177817276+177383665+176919669
1933+176508741+176218317+176097638+176221913+176679891+177348807+178090193
1919+179027605+179964455+180717525+181455683+182182157+182794987+183311998
1906+183830430+184356492+184824277+185203645+185526384+185833879+186082744
1892+186320382+186618420+186848848+187037330+187269846+187485660+187676633
1879+187846801+187994285+188134612+188340970+188769406+189226735+189381658
1865+189432585+189626576+189912124+190162112+190321912+190468641+190640809
1852+190785591+190919445+191125716+191514680+191774088+191662304+191640446
1838+191841436+192029041+192232786+192610978+192991803+193075342+193170987
1825+193382556+193434922+193466306+193609475+193774748+193925741+194161080
1811+194451505+194642268+194747737+194874748+195087405+195294553+195328832
1798+195277747+195413249+195783442+195963135+195779793+195713516+195900717
1784+196046816+196114988+196154460+196083481+196064499+196323189+196591807
1771+196490567+196299944+196181511+196177073+196345152+196392834+196382484
1757+196518214+196661629+196983140+197460293+197668406+197629302+197598461
1744+197679721+197851678+197893254+197814556+198169505+198511085+198099490
1730+197599040+197386963+197270845+197125133+196918055+196950176+197192095
1717+196984684+196336995+195765952+195412425+195227363+195084616+194750386
1703+194458961+194435524+193987562+193342032+192725798+191798280+191058964
1690+190538849+190146008+190037592+189466742+188158277+187112011+186647559
1676+186349363+185724989+185119755+184888713+184489188+183967037+183850253
1663+183876182+183631720+183367066+183614738+184642426+185352779+184925571
1649+184941359+185675079+185990362+185980626+186324452+187150746+188462807
1636+189723150+190307140+190826502+191796789+192879124+193935793+195043811
1622+195883648+196646208+197902640+199156809+199871652+200604266+201562572
1609+202449600+203191670+203897689+204589113+205192926+205719217+206219772
1595+206671768+207053206+207408347+207741490+208028634+208294569+208528522
1582+208695041+208954450+209478548+209683503+209285890+209229244+209557842
1568+209504494+209245594+209119003+209445549+210384505+210558514+209530107
1555+208783300+208505453+208321831+208083456+207929358+208051738+208327427
1541+208437036+207702965+206523056+206082954+205970223+205411337+204833680
1528+204419068+203902812+203476779+203087605+202247224+201260042+200331139
1514+199381675+198598554+198082544+197687299+196474129+194256111+192328606
1501+190966898+189407779+187055312+183999632+180871587+177613794+173820500
1487+169963631+166648823+163899286+161497435+159414060+157701247+156026659
1474+153714576+150362963+146788501+144044745+141874751+139390439+136585317
1460+134436068+133972476+135560103+138637115+142425286+146240386+149608858
1447+152278048+154224166+155541753+156385362+157165623+157888150+158105526
1433+158075632+158142121+158159067+158177715+158439896+158896734+159568842
1420+160459870+161199379+161857453+162748779+163841570+164988866+166145233
1406+167326475+168381811+169301785+170184953+170589022+170067643+168650026
1393+166628368+164265813+161322479+157773787+154757807+153668333+155108650
1379+158855227+164137345+170215057+176458060+182504229+188317989+193401538
1366+197161447+199505494+200474676+200495061+200251441+200003207+199669100
1352+199182825+198537382+197859098+197506606+197694931+198256167+198868436
1339+199326748+199749500+200370962+201285427+202498545+203968475+205631362
1325+207461205+209437760+211509294+213624088+215745602+217892886+220093729
1312+222277099+224335195+226238210+228031721+229713992+231218746+232545191
1298+233728013+234797523+235819370+236770149+237523464+237999214+238124769
1285+237810907+236993700+235712866+234245865+233123971+232974083+234192166
1271+236685206+240011803+243679980+247245039+250374066+252941225+254988900
1258+256613437+257830151+258579554+258862927+258770826+258366214+257569251
1244+256303259+254787927+253447341+252577962+252394567+253150724+255003654
1231+257858273+261293373+264797716+268056561+270909110+273325242+275399108
1217+277200286+278749879+280073974+281196763+282162454+283029448+283854374
1204+284677774+285459754+286122495+286674802+287194427+287769890+288345600
1190+288850102+289284801+289618171+289866370+290079272+290227072+290287578
1177+290255439+290104692+289824705+289377551+288714179+287805468+286670767
1163+285428615+284192656+283027957+282001515+281139292+280359680+279540772
1150+278643691+277586233+276215245+274548078+272745023+270885585+268968904
1136+267083800+265336936+263659998+261972744+260333945+258741669+257081134
1123+255210451+252871597+249771305+245676938+240330279+233475200+224773191
1109+213846341+200679035+185814985+170273633+155224171+141528671+129750124
1096+120466844+114356976+112104135+114035123+119715354+128008794+137390613
1082+146120392+152335641+154331038+151029107+142887887+132967199+125814486
1069+123772056+124625288+123183137+115223461+100588049+82893405+66542856
1055+54314764+47238288+45685528+50048001+60872545+78777785+103843439+134690670
1040+168250642+200838396+229587630+253065395+270992861+283487392+290554408
1026+291442208+284083206+267374067+245664026+229158843+226787587+238952011
1013+259104898+280690033+300724873+318631112+334250127+347274141+357414362
999+364668791+369438143+372260466+373527178+373361010+371721053+368571307
986+363786201+356990382+347390065+333570510+313629630+286249313+253166741
972+221491347+201855172+201868014+221276322+253296734+289387147+323155073
959+351428225+373364449+389513438+401092468+409329025+415216255+419497280
945+422638044+424907936+426566384+427869515+428923220+429688482+430133267
932+430301014+430221193+429879665+429277624+428377140+427129655+425496084
918+423346466+420605543+417300226+413477390+409287343+405001581+401194183
905+398492135+396649556+394399487+390162740+382545768+370477287+353430095
891+331834417+307419433+282969592+261431612+246361765+243399870+257898288
878+288924187+327753382+363973280+391733508+410328136+421410277+426701149
864+427534408+425600114+423562912+424300281+428801331+435351196+441471818
851+445869960+448541062+450070042+450870109+451110028+451037610+450764290
837+450308803+449809212+449262010+448514116+447528268+446403900+445257428
824+444118535+442890523+441403611+439485666+437023818+434014978+430457077
810+426308010+422004214+418729597+417640702+419023689+422071825+425484961
797+428314512+430073972+430782009+430878565+430685592+430265156+429570592
783+428716633+427973721+427200705+426038619+424561005+423021534+421607987
770+420575440+420037570+419754075+419145367+417684138+415460068+413155791
756+411638039+411626074+413223788+415547643+417421765+418481258+419005093
743+419184277+419128771+418992252+418806576+418569850+418389227+418282215
729+418171448+418137310+418251023+418345019+418247936+417959002+417622071
716+417434220+417453938+417584669+417693646+417698032+417666349+417733995
702+417906584+418082610+418184079+418222218+418315196+418604586+419123263
689+419757724+420394185+421018752+421637530+422234273+422863507+423533019
675+423964612+424168813+425231359+427550372+429110930+429267905+430125127
662+432113595+434099851+435704968+437199529+438758403+440374782+442003021
648+443718834+445657970+447779940+449976082+452302217+454794239+457237562
635+459456229+461673036+464180602+466849703+469378215+472047878+475110084
621+478441470+481907060+485191220+488029331+490795691+493897123+497306260
608+500844548+504469815+508138378+511745892+515333792+519040353+522929397
594+526920225+530985120+535139309+539367355+543430215+547291365+551558777
581+556203680+560577332+564670542+568726981+573027514+577755185+582467628
567+586681148+590813548+595386946+600149387+604720889+609324741+614290752
554+619315496+624110216+628838905+633756777+638827624+643841281+648753610
540+653480754+658250704+663502736+669082050+674263699+678661596+683153594
527+688445624+693733023+698632510+703563294+708295631+712592971+716960764
513+721885092+727105196+732081732+736392545+740369690+744987506+749586376
500+753054141+755713945+757997697+760299412+762654388+764457320+765739926
486+767395637+769910044+773011161+776784877+781149933+785162164+788455762
473+790548295+790940206+791285102+793389353+798109901+805661824+815429431
459+826631497+837001041+844707483+850526716+854952120+858437990+860950222
446+861726536+861077865+860364846+860907627+862563970+864246136+867262554
432+874104265+884560822+898121373+914933067+932315472+947681410+963315757
419+978447812+989785871+999460220+1009356663+1020361896+1032038325+1041869509
405+1049936074+1057597535+1065172826+1073741823
##END=
