##TITLE=14
##JCAMP-DX=4.24
##DATA TYPE=INFRARED SPECTRUM
##DATE=16/11/2015
##SAMPLING PROCEDURE=Instrument type and / or accessory
##ORIGIN=Default
##XUNITS=1/CM
##YUNITS=TRANSMITTANCE
##RESOLUTION=4
##FIRSTX=3996.3359
##LASTX=399.24785
##DELTAX=-1.9287336
##MAXY=0.45773062
##MINY=0.0082971863
##XFACTOR=1
##YFACTOR=4.2629486e-010
##NPOINTS=1866
##FIRSTY=0.037821025
##XYDATA=(X++(Y..Y))
3996+88720339+88859023+88860291+88786544+88718067+88671857+88662899+88713200
3981+88795956+88846169+88914829+89112570+89348927+89447614+89409801+89336475
3965+89334735+89521981+89950355+90427911+90597006+90418430+90220785+90196736
3950+90288371+90398033+90379516+90239154+90267467+90519336+90706922+90687653
3935+90577938+90521932+90495340+90452633+90463897+90519782+90549197+90586293
3919+90674676+90800427+90931876+90997207+90960303+90882143+90867891+90993956
3904+91169028+91202113+91123831+91093744+91072413+90989455+90980577+91103811
3888+91239262+91383259+91443845+91276576+91058247+90873204+90638961+90533458
3873+90703969+90989656+91100726+90906795+90646284+90540816+90501011+90387049
3857+90227488+90338951+90938578+91420871+91238414+90775059+90461311+90305420
3842+90233089+90309728+90522482+90648312+90607580+90565494+90573814+90524894
3827+90352487+90102820+89994084+90101518+90117615+90059319+90206384+90371669
3811+90296262+90074533+89938069+89955616+90027475+90112014+90139392+90069735
3796+89969860+89820314+89640846+89572255+89637673+89707217+89698277+89678344
3780+89750570+89883827+89917664+89706640+89344042+89181921+89322064+89440413
3765+89353332+89183127+89096945+89090338+88932237+88611061+88538844+88869903
3749+89087245+88881237+88668108+88661230+88526024+88265093+88211490+88371531
3734+88433463+88236203+87917631+87673444+87516234+87332746+87177143+87175859
3719+87177930+86962598+86626426+86432906+86322571+86003807+85513353+85049018
3703+84626289+84137766+83530876+82829591+82012927+81109234+80288131+79666088
3688+79130935+78511051+77877377+77446486+77263837+77206554+77191384+77081834
3672+76820231+76632662+76519949+76217221+75739604+75270612+74840726+74409564
3657+74020357+73700938+73433112+73203960+72913322+72459137+71867860+71202145
3641+70537562+69955914+69462178+69053147+68787939+68605465+68292648+67712708
3626+66963604+66241140+65634988+65161500+64776868+64367112+63911411+63461618
3611+62986671+62387869+61635920+60866743+60247933+59795908+59375853+58889335
3595+58343058+57682927+56895564+56178474+55651680+55190771+54677692+54128168
3580+53600111+53096823+52576797+51990330+51328849+50701537+50170980+49621124
3564+48999038+48435960+47968742+47449777+46864079+46352066+45923141+45450641
3549+44862767+44234174+43662266+43134471+42629453+42211264+41863151+41412497
3533+40831666+40306912+39908643+39541427+39168793+38786975+38313980+37735789
3518+37183556+36783041+36506164+36214372+35826013+35346663+34841597+34400884
3503+34022482+33637457+33291507+33061459+32828599+32448419+31981830+31545764
3487+31169855+30804341+30402309+30032057+29765806+29567074+29367843+29080855
3472+28672489+28244206+27896034+27622921+27363942+27061657+26765590+26599544
3456+26492239+26251833+25864940+25464860+25184583+24989687+24704685+24316420
3441+23945212+23629367+23399656+23319987+23337062+23250699+22918504+22474299
3425+22158972+22043979+22043358+21996413+21849115+21681012+21487828+21216693
3410+20911127+20680838+20548582+20425317+20338685+20381715+20399313+20228640
3395+20004045+19911281+19949504+19967054+19866694+19751742+19735505+19811602
3379+19885663+19889906+19844071+19720374+19540974+19463491+19549358+19686889
3364+19764706+19796613+19838837+19904725+19997587+20095994+20189112+20335983
3348+20519630+20623892+20622616+20554600+20481269+20478350+20562039+20759710
3333+21046875+21292823+21459141+21632555+21868657+22106000+22266415+22424403
3317+22716396+23029255+23143127+23199261+23428773+23722582+23923429+24083877
3302+24287818+24495202+24635186+24756823+24986384+25328076+25663605+25963487
3287+26254090+26496036+26689125+26909600+27193459+27543532+27945795+28282484
3271+28498928+28753916+29138863+29544801+29909793+30282322+30657125+31011126
3256+31402199+31837553+32216392+32553195+32985923+33485588+33925032+34313636
3240+34719167+35173808+35646553+36084724+36515481+36975389+37455095+37985232
3225+38602766+39237904+39772065+40193632+40643591+41255689+41956839+42597355
3209+43189927+43813757+44425588+44934376+45415869+46049539+46832995+47570595
3194+48143417+48628632+49142161+49725395+50349915+50977109+51643034+52340584
3179+52977976+53562281+54167143+54789893+55386686+55982084+56623133+57240711
3163+57790842+58372162+58981673+59510452+60004450+60572072+61187067+61793353
3148+62416855+63057424+63642690+64171765+64722487+65314367+65909617+66454365
3132+66897373+67280004+67704468+68182356+68628937+69000619+69394138+69900689
3117+70471789+71064894+71634919+72056394+72331543+72643036+73073704+73514138
3101+73888751+74215022+74521910+74860371+75236697+75599268+75912815+76189406
3086+76478650+76788299+77093282+77384904+77647975+77879535+78114206+78377828
3071+78611835+78744795+78819477+78927479+79094590+79265975+79380129+79451237
3055+79530585+79607416+79632837+79621616+79615097+79580693+79485711+79390371
3040+79314982+79172453+78949134+78733085+78532260+78235063+77780306+77276630
3024+76855675+76474429+75992268+75346604+74545565+73622193+72617833+71553858
3009+70445136+69243036+67852022+66265342+64481428+62455935+60214075+57750661
2993+54929172+51676084+48085946+44305596+40388943+36400669+32563061+29193699
2978+26640236+25127961+24598595+24908251+25940421+27452236+29230312+31290393
2963+33734031+36542025+39507171+42281235+44437918+45666868+45970890+45577724
2947+44670103+43308114+41729989+40366305+39515849+39299875+39667715+40394199
2932+41216045+42035488+42983958+44144969+45418740+46734719+48063016+49247769
2916+50141504+50730493+51020725+51013262+50732332+50294634+49839864+49362815
2901+48861975+48427020+48095878+47799066+47407259+46846226+46075366+45029153
2885+43801387+42696947+42058314+42194634+43205355+44876631+46997048+49503645
2870+52253467+55000764+57622778+60144366+62583595+64903921+67043354+69005648
2855+70898971+72757059+74498079+76129624+77722631+79220289+80535980+81723709
2839+82871545+83994949+85079333+86079546+86988124+87905948+88900655+89902528
2824+90807200+91633231+92470921+93288965+94012780+94695163+95417029+96163643
2808+96893950+97594082+98280373+99025850+99847382+100643422+101340967+101939223
2793+102461338+102947231+103409171+103811608+104125208+104378868+104637955
2779+104907729+105143335+105356648+105563984+105716746+105784489+105783869
2766+105770839+105835628+105953147+105999655+105995705+106024220+106060171
2752+106080969+106128290+106224198+106296799+106293531+106303860+106407773
2739+106585152+106819465+107108386+107395087+107633655+107867138+108138704
2725+108450669+108810015+109232998+109723723+110228256+110691742+111135523
2712+111555386+111891723+112151133+112413148+112736054+113100478+113446996
2698+113768766+114120187+114509097+114875417+115198760+115485776+115742967
2685+115981657+116171454+116319917+116479749+116683485+116954255+117271805
2671+117614897+117953201+118240995+118522846+118836559+119145090+119414506
2658+119612229+119758035+119922237+120126497+120352857+120536782+120641455
2644+120794392+121061457+121301546+121458643+121610164+121752711+121858301
2631+121961139+122101956+122315321+122522238+122599305+122647543+122792397
2617+122946225+123026429+123084062+123179681+123269481+123326588+123421928
2604+123512916+123492538+123408558+123329717+123263923+123271665+123359158
2590+123448774+123555404+123679154+123712623+123650893+123619407+123659999
2577+123675615+123652518+123716827+123882033+124032829+124132224+124224794
2563+124298042+124304107+124251211+124159096+124073412+124022614+123935899
2550+123841319+123842910+123895132+123964108+124096753+124256515+124424885
2536+124621149+124774375+124884308+125061836+125313626+125530033+125648627
2523+125765079+125981897+126252021+126486298+126642443+126769120+126895858
2509+126949960+126995978+127164846+127393653+127614307+127858127+128096381
2496+128308637+128550622+128826076+129085862+129334611+129596984+129812342
2482+129937708+130065050+130283414+130584123+130895695+131164989+131407280
2469+131628825+131824242+132017665+132246105+132532457+132843347+133133003
2455+133384618+133576469+133720693+133877554+134067648+134264646+134457834
2442+134626108+134720583+134761113+134840365+134961056+135022944+135002014
2428+134990724+135065720+135195631+135273152+135239438+135157521+135119918
2415+135150407+135231023+135341917+135472029+135651838+135908487+136156318
2401+136301355+136409515+136555915+136747373+136938429+137092266+137193548
2388+137244023+137294734+137385486+137442358+137360100+137187754+137059294
2374+136978924+136856765+136703548+136530022+136284690+136124282+136067139
2361+135893797+135917033+136561499+137468400+137838154+137475382+137126172
2347+137493165+138242444+138511214+138216831+137988417+138131646+138542665
2334+139033381+139457526+139682234+139793863+140002432+140312168+140613953
2320+140829031+140928837+140970521+141080795+141304088+141547969+141688393
2307+141764149+141904633+142124265+142350817+142533064+142678835+142799334
2293+142866719+142899376+142969225+143086167+143196004+143263039+143276654
2280+143262034+143266229+143290593+143300948+143273736+143219800+143140242
2266+142994908+142812748+142706397+142723534+142802279+142893512+143035316
2253+143262821+143517294+143723424+143852836+144000128+144184594+144338947
2239+144434602+144534337+144624058+144694064+144812431+144991462+145181355
2226+145314648+145397028+145475266+145524212+145549764+145611477+145701993
2212+145791321+145897523+146000947+146055546+146067650+146073304+146145285
2199+146311496+146482304+146594186+146709328+146895813+147087769+147192827
2185+147255099+147386443+147606065+147834968+148025771+148165888+148243069
2172+148305638+148411307+148540833+148653756+148747086+148826801+148920568
2158+149061017+149202236+149314808+149461078+149625803+149701062+149695731
2145+149724656+149800876+149851001+149885607+149972575+150133159+150357448
2131+150597816+150783882+150928072+151102987+151322277+151555655+151824092
2118+152162317+152485669+152690226+152840515+153021949+153200395+153354407
2104+153506636+153667342+153834008+153981571+154127490+154288458+154428925
2091+154541568+154661499+154819356+155020732+155201205+155316976+155419779
2077+155551053+155678289+155770745+155873216+156015570+156142824+156209344
2064+156259382+156395514+156638784+156907012+157145073+157352234+157541376
2050+157730308+157950525+158206047+158419063+158536424+158622221+158723818
2037+158826953+158963802+159136078+159269869+159375678+159534024+159755884
2023+160004816+160257122+160496197+160718581+160930514+161127380+161308692
2010+161486177+161656740+161810962+161966494+162117290+162222540+162302150
1996+162431466+162634275+162818226+162889080+162919911+163005621+163105802
1983+163180448+163260146+163372754+163500252+163590122+163639863+163718878
1969+163871108+164053241+164176615+164234728+164328547+164492871+164609970
1956+164586987+164493570+164438026+164439005+164424691+164299342+164072099
1942+163806319+163473022+163074989+162707699+162386532+162071377+161799461
1929+161656163+161733099+162072006+162607430+163287323+164122609+165003057
1915+165761250+166416168+167037145+167614794+168167067+168715477+169196546
1902+169539263+169788440+170057157+170363782+170643580+170889664+171123531
1888+171345216+171573804+171802253+172017454+172245273+172462397+172631946
1875+172789226+172980133+173227388+173493291+173692832+173842580+174023000
1861+174254071+174517002+174763069+174946635+175092957+175246724+175405630
1848+175559520+175721274+175874220+175978141+176066822+176200019+176387780
1834+176635209+176914605+177147353+177325746+177499927+177632721+177706529
1821+177828889+178033691+178239821+178422234+178603493+178776835+178934308
1807+179082640+179220747+179348683+179477143+179621192+179791371+179967859
1794+180091687+180125524+180125349+180169987+180251817+180314526+180344028
1780+180371555+180442147+180606401+180850964+181022191+180991640+180869612
1767+180827596+180882109+180958101+181029654+181137263+181297689+181489925
1753+181701001+181902464+182055655+182171408+182275470+182351252+182387291
1740+182432558+182575419+182797279+182877203+182699055+182450699+182282198
1726+182177561+182092288+182063275+182125041+182132468+181914419+181558297
1713+181239279+181010656+180850300+180687444+180475721+180270884+180057187
1699+179709017+179194828+178559677+177905948+177332807+176863098+176511555
1686+176149998+175548316+174783045+174104498+173576834+173122523+172697557
1672+172355993+172090894+171805888+171531194+171371554+171292119+171221160
1659+171256307+171534689+171946408+172192648+172275754+172506440+172901712
1645+173195876+173369830+173663260+174230004+175061427+175997926+176807398
1632+177505293+178304925+179263899+180289218+181286521+182170115+182960921
1618+183800122+184699358+185538087+186326394+187113040+187858072+188558991
1605+189256921+189935940+190547095+191069533+191522306+191950855+192375436
1591+192783257+193158797+193481956+193750865+193990954+194221553+194467287
1578+194704684+194802838+194747958+194719697+194777530+194823426+194838894
1564+194933325+195216478+195594622+195701305+195386692+194936646+194583075
1551+194367403+194254830+194222986+194260230+194307612+194196420+193784510
1537+193267384+192850668+192431994+191945874+191519684+191189446+190879500
1524+190532326+190075603+189517511+188922383+188238505+187459340+186729950
1510+186149399+185502188+184414579+182997886+181657359+180400008+178892292
1497+176864619+174447180+171820639+168782398+165347522+162079329+159345057
1483+157034231+154969191+153172256+151658790+150108708+147958412+145094282
1470+142198247+139818000+137778870+135649924+133379934+131460185+130814145
1456+132221130+135198934+138648281+141970104+144916658+147317826+149091323
1443+150318438+151178699+151856758+152387707+152677625+152772807+152808689
1429+152854672+152987082+153289076+153778359+154423770+155138111+155833088
1416+156563473+157447277+158484603+159567808+160631316+161679041+162693629
1402+163634759+164415445+164767320+164352596+163151366+161474309+159401457
1389+156676448+153527382+150987093+150040143+151198222+154472235+159230509
1375+164645572+170186718+175609191+180787712+185310705+188622102+190614820
1362+191515752+191682365+191564654+191426441+191225782+190862197+190338588
1348+189787836+189487152+189653241+190181133+190739924+191164156+191580995
1335+192163294+192978516+194035679+195336986+196857671+198525219+200279316
1321+202121902+204038209+205954917+207823929+209683730+211596523+213508407
1308+215288826+216885206+218334984+219720148+221086035+222341376+223377706
1294+224260863+225102703+225864181+226410092+226622741+226421767+225745474
1281+224636594+223377408+222453162+222381976+223510797+225785305+228794027
1267+232092508+235309247+238143648+240458791+242276332+243706990+244832980
1254+245624065+246025454+246081592+245867213+245303982+244286562+243042564
1240+241982010+241296087+241172259+241948279+243739778+246336694+249368119
1227+252441123+255299066+257826316+259959746+261710470+263200132+264568553
1213+265839711+266932091+267847634+268699559+269502878+270220051+270916880
1200+271606963+272218222+272756757+273285907+273782583+274240058+274684861
1186+275082964+275374035+275584779+275777835+275912063+275925468+275821250
1173+275614281+275309682+274844885+274090625+273061391+271980021+270973106
1159+269999677+269131079+268492100+268020836+267524387+266826072+265853867
1146+264661673+263317843+261862507+260356363+258800968+257164722+255546198
1132+254105805+252849608+251601240+250216233+248706682+247058044+245097939
1119+242568958+239140531+234456868+228256872+220360804+210593627+198842576
1105+185407722+171193615+157306653+144585197+133545970+124720037+118869565
1092+116706363+118536382+124010773+132018067+141044442+149494530+155640957
1078+157809429+154888217+147305696+138054535+131503337+129847778+130846968
1065+129394682+121510219+107184640+89777232+73325022+60672519+53226472+51513967
1049+55893132+66914815+84980270+109738221+139570667+171439577+201896704
1036+228437590+249917909+266228358+277577322+284059422+285048021+278559384
1022+263555590+244063601+229249788+227181585+238356769+256811064+276448273
1009+294501844+310508813+324380762+335834346+344712441+351138369+355431165
995+358000327+359154228+359008361+357627636+354988983+350869635+344937692
982+336577281+324473743+306735170+282073958+252095068+223287958+205402242
968+205598637+223771509+253516777+286733012+317458158+342856922+362325176
955+376512140+386596639+393709539+398771171+402506853+405386590+407626650
941+409366329+410743942+411748026+412340130+412713310+413039930+413203135
928+413062197+412651964+412027981+411117437+409762299+407885283+405522426
914+402745316+399625508+396197255+392654525+389551530+387371977+385856816
901+383892691+380087868+373311655+362640960+347434986+327950303+305802884
887+283527808+263688244+249584962+246728505+260240050+288954092+324500658
874+357469814+382771298+399811469+410157921+415382688+416491707+414858222
860+412964707+413607670+417784275+423781025+429210804+433120422+435660746
847+437186534+438056286+438518112+438701067+438681807+438392519+437842256
833+437341350+436913046+436267566+435545988+434914735+434096962+432922402
820+431482778+429859430+427975317+425615781+422680850+419232708+415637685
806+412818560+411750473+412808073+415555960+418878998+421660721+423397323
793+424187273+424444857+424513893+424415215+424075871+423578146+422990691
779+422220492+421216862+420140106+419139273+418154065+417219087+416696928
766+416627752+416315569+415248845+413579636+411674900+410305571+410479158
752+412189753+414353367+416084411+417181336+417816958+418237957+418573735
739+418765848+418741555+418636410+418656998+418846140+418985331+418831109
725+418505258+418397737+418627217+418775426+418688633+418671295+418814715
712+419017000+419247739+419476904+419686075+419910417+420178137+420520627
698+421022896+421665440+422182950+422360976+422451440+422937280+423906793
685+424992288+425922407+426776708+427670195+428412186+428431830+428047430
671+429889421+434370764+436053291+434037818+433793447+436137148+438577955
658+440331301+441926055+443762070+445834555+447868310+449675347+451505594
644+453671654+456019830+458198089+460217058+462434852+465004747+467684052
631+470328053+473047277+475884159+478844608+481618921+484203463+487166953
617+490523512+493795725+497075698+500553271+504060522+507497827+510882526
604+514201543+517625426+521351530+525169706+528838904+532474264+536321593
590+540435523+544599335+548641223+552798673+557245725+561628355+565840369
577+570211080+574699274+578964316+583218521+587895123+592604128+596795449
563+600590310+604400901+608678072+613633161+618823008+623764255+628622938
550+633632207+638741238+643770013+648473845+652883215+657474772+662535425
536+667634809+672549350+677584696+682651431+687519622+692306018+697050678
523+701693409+706391997+711244948+716246807+721276839+726004581+730448976
509+735080032+739897259+744315718+748368197+752474438+756455679+759947549
496+762821414+765241702+767170033+768318237+769295720+771100100+773853230
482+777428993+781983217+787172645+792130740+796053816+798240604+798568623
469+798416358+800087000+805070893+813080285+822611410+832523755+842201832
455+850533719+857046965+862128312+865808450+867894079+868627016+868734678
442+868980482+869639245+870633856+872403910+875885713+882038572+891463854
428+903832841+918456499+934562461+950752315+966449512+981794153+995316377
415+1006413350+1016435943+1025582633+1033685285+1042340996+1052491455
403+1061973364+1068607345+1073741823
##END=
