##TITLE=14
##JCAMP-DX=4.24
##DATA TYPE=INFRARED SPECTRUM
##DATE=16/11/2015
##SAMPLING PROCEDURE=Instrument type and / or accessory
##ORIGIN=Default
##XUNITS=1/CM
##YUNITS=TRANSMITTANCE
##RESOLUTION=4
##FIRSTX=3996.3359
##LASTX=399.24785
##DELTAX=-1.9287336
##MAXY=0.45062149
##MINY=0.0078033311
##XFACTOR=1
##YFACTOR=4.1967396e-010
##NPOINTS=1866
##FIRSTY=0.032992974
##XYDATA=(X++(Y..Y))
3996+78615728+78546978+78445305+78465926+78545158+78565495+78579910+78603664
3981+78574531+78568522+78645127+78643147+78555322+78651926+78899797+79006956
3965+78999731+79038122+79086136+79120755+79232893+79451116+79669916+79754812
3950+79731626+79755496+79835128+79857302+79761825+79614011+79623829+79839051
3935+80047031+80114546+80050271+79929300+79855997+79813567+79762198+79767506
3919+79824307+79841821+79805125+79752602+79723922+79768420+79867572+79905129
3904+79850662+79847307+79973737+80114937+80163226+80192554+80330808+80485385
3888+80430341+80214986+80027848+79875898+79811632+79906487+80055943+80161424
3873+80141789+80007583+79911680+79905271+79924906+79883790+79804477+79826722
3857+79931404+80020756+80087517+80059680+79894140+79722812+79687270+79808471
3842+79951225+80009048+80018714+79961309+79803820+79684589+79700869+79742989
3827+79732496+79713802+79740627+79809696+79853680+79938443+80110809+80166395
3811+80009163+79814215+79767461+79778025+79669304+79513235+79419577+79433531
3796+79535080+79552381+79422232+79257410+79115455+79003299+78962440+79023431
3780+79168076+79292118+79277800+79166682+79090752+79089766+79107315+79142706
3765+79200413+79164570+79033275+78935091+78862542+78803069+78874508+79093530
3749+79206742+79026653+78789550+78681974+78526269+78306093+78145098+78034140
3734+77986738+78017638+78016999+77890711+77685617+77496402+77374003+77334502
3719+77300220+77165739+76943850+76752061+76615281+76380601+76026583+75722230
3703+75507638+75221944+74748988+74155363+73554220+72940175+72249964+71571261
3688+71047314+70658393+70331742+70065944+69906130+69832196+69714625+69445131
3672+69118417+68909537+68740899+68464046+68182825+67979080+67734569+67406156
3657+67112517+66839889+66458180+65995411+65532880+65077323+64669593+64354153
3641+64047381+63564492+62881600+62268717+61922316+61651636+61205577+60651200
3626+60156972+59743760+59424037+59155493+58751238+58157174+57543874+57003150
3611+56479198+55906939+55319985+54831380+54406833+53886046+53287770+52793452
3595+52407616+51933138+51333322+50748579+50192311+49616493+49090296+48664821
3580+48293574+47890828+47365229+46754925+46263706+45964715+45637850+45091032
3564+44472402+43981853+43603349+43226239+42777561+42269378+41727345+41142565
3549+40563707+40037523+39530490+39062136+38697019+38377460+37996581+37557219
3533+37097490+36600250+36079187+35624966+35304020+35079579+34828521+34423443
3518+33901881+33453068+33145293+32878634+32547631+32098066+31585553+31171128
3503+30962094+30886548+30731564+30367538+29917224+29542837+29240164+28952226
3487+28659665+28386609+28119183+27813472+27551420+27362217+27096988+26716698
3472+26315316+25921163+25568404+25355364+25279957+25164728+24903464+24626866
3456+24417100+24183789+23938224+23750190+23525079+23248834+23054258+22908774
3441+22738925+22530111+22258912+21998456+21822311+21730844+21637592+21391674
3425+21024115+20723517+20544238+20425282+20386844+20379985+20228975+19973655
3410+19850560+19890809+19867879+19651580+19377691+19238670+19217958+19104764
3395+18835382+18631295+18658127+18815730+18985200+19075717+18994285+18838483
3379+18743196+18724030+18769054+18786290+18697273+18593794+18600197+18703968
3364+18787202+18778184+18744355+18773947+18821506+18799239+18746403+18788143
3348+18944687+19120744+19263300+19357306+19391936+19415634+19501141+19647339
3333+19779115+19901275+20084684+20249993+20299050+20327677+20435375+20654865
3317+20990133+21284513+21403316+21435063+21485680+21578527+21724299+21912060
3302+22107086+22321452+22592154+22852577+23066623+23348678+23697780+23950223
3287+24047540+24082724+24185476+24415176+24692562+24933893+25165387+25411620
3271+25692945+26037087+26363488+26604193+26853387+27210152+27612376+27948306
3256+28245089+28580703+28918954+29180315+29394841+29696942+30120712+30517251
3240+30797053+31077406+31483936+31965979+32412922+32812233+33187244+33551336
3225+33939312+34372764+34899219+35533188+36063944+36321723+36525724+36911240
3209+37400498+37878842+38332673+38735428+39094647+39504801+39991870+40489627
3194+41032939+41644051+42185024+42572271+42934815+43459601+44079487+44583294
3179+44996767+45424931+45842719+46279262+46794919+47298779+47705741+48100054
3163+48584674+49162738+49760530+50297948+50718429+51030980+51397971+51936054
3148+52527815+53027751+53436866+53840651+54270643+54667455+55010799+55365988
3132+55754723+56141846+56542612+56973697+57390246+57780303+58212848+58705057
3117+59152040+59509075+59865299+60278444+60689618+60989058+61162627+61330879
3101+61615611+62024069+62440263+62775032+63061152+63310492+63498273+63697828
3086+63984619+64318154+64639958+64934431+65178343+65332504+65442126+65639258
3071+65931525+66178021+66330570+66500020+66742565+66949102+67052630+67143119
3055+67289885+67441378+67516084+67486054+67405596+67370609+67357374+67240740
3040+67055760+66985266+67080472+67166433+67043017+66715505+66336331+66013976
3024+65744371+65449644+65088121+64668670+64163563+63562815+62950651+62338577
3009+61567015+60580254+59542425+58493962+57220916+55600722+53782353+51833494
2993+49600018+46980356+44084605+41000109+37643576+34097142+30744644+27920451
2978+25772222+24405907+23867934+24088370+24924664+26174103+27692907+29439546
2963+31402468+33633687+36063414+38350222+40098044+41093451+41383633+41092661
2947+40305925+39209986+38032913+36930935+36112421+35796733+35957724+36407543
2932+37049467+37808246+38613587+39539362+40636482+41759478+42766802+43630370
2916+44308473+44778562+45052139+45076124+44846530+44466699+44056625+43712483
2901+43420784+43129785+42845556+42531359+42126380+41623381+40995205+40187094
2885+39291881+38499123+37935049+37839816+38503468+39857913+41556603+43433894
2870+45512845+47662379+49661036+51480546+53236609+54942209+56505606+57972194
2855+59446513+60866658+62187070+63450987+64595539+65595319+66571562+67544014
2839+68424425+69204823+69932844+70653755+71395326+72159404+72944942+73705105
2824+74394020+75043887+75657742+76223929+76795042+77381122+77950495+78539797
2808+79183876+79825559+80429756+81067657+81785838+82469010+82967575+83332342
2793+83714623+84177220+84700657+85147436+85406127+85593744+85822317+86035605
2777+86207891+86388220+86563400+86667993+86714019+86766666+86847985+86957416
2762+87077623+87180654+87237367+87225455+87180983+87176438+87252298+87370232
2747+87474062+87547037+87581647+87636647+87766299+87909576+88032926+88216317
2731+88533408+88921051+89238000+89427320+89571628+89825668+90256016+90776293
2716+91245804+91604411+91899737+92182182+92496885+92846678+93130197+93314840
2700+93499900+93769697+94136568+94548470+94920942+95213773+95433816+95575558
2685+95652021+95714859+95835155+96045691+96264216+96463629+96719685+97016430
2669+97310460+97584552+97796437+97971050+98180139+98416887+98629234+98807734
2654+98970008+99147159+99397071+99696516+99912519+100012941+100096976+100239810
2639+100461983+100694808+100856212+100954600+101003368+101029776+101090590
2625+101204380+101359454+101521089+101659067+101776354+101864996+101889247
2612+101885386+101979309+102155031+102242741+102231361+102249949+102323900
2598+102390839+102415472+102438702+102511721+102595534+102628280+102618986
2585+102615205+102648723+102731968+102828040+102872707+102894241+102966027
2571+103076674+103165298+103177743+103113175+103087468+103161978+103206876
2558+103159857+103105532+103073265+103035424+103000770+103016987+103072919
2544+103126303+103187898+103237350+103278617+103372159+103509223+103676610
2530+103903008+104151971+104335105+104447518+104575111+104753008+104935094
2517+105060024+105125569+105223753+105390146+105561473+105715092+105838735
2503+105948805+106133448+106381603+106606847+106808160+107008160+107182568
2490+107310649+107420666+107564068+107760126+107992525+108248651+108505629
2476+108721243+108897515+109055475+109208321+109368136+109512727+109668619
2463+109878010+110108642+110377116+110694384+110951097+111110441+111277357
2449+111474605+111621744+111720496+111829838+111935870+111994420+112037276
2436+112125155+112254940+112363519+112379293+112339659+112367700+112455437
2422+112484028+112425611+112339739+112303096+112398795+112614683+112844508
2409+113045076+113230153+113367794+113451608+113550875+113653453+113719913
2395+113798684+113933822+114104022+114266651+114395167+114494647+114591358
2382+114672393+114680888+114611117+114495117+114352293+114249306+114188457
2368+114021443+113732251+113503518+113370457+113249247+113243823+113465775
2355+113734692+113858787+113998701+114447592+115199016+115776601+115763828
2341+115410875+115134643+115090899+115377002+115860556+116214973+116338856
2328+116373616+116432477+116572258+116795674+117029040+117181070+117227167
2314+117248231+117326523+117495835+117751491+118021989+118243248+118407155
2301+118502339+118568541+118714251+118945158+119147998+119263847+119320276
2287+119346666+119383664+119466003+119552799+119591333+119580903+119548023
2274+119530137+119540185+119546577+119522388+119482514+119444123+119403645
2260+119366567+119341047+119333103+119379501+119530155+119767862+119984656
2247+120141542+120262974+120363076+120463834+120590184+120723582+120821758
2233+120896916+120983410+121061906+121132688+121244072+121413918+121614139
2220+121772152+121838833+121846804+121849299+121877269+121923924+121976536
2206+122017031+122031021+122103002+122284351+122440553+122486064+122560068
2193+122756677+122957013+123082759+123199150+123362560+123546040+123665368
2179+123712521+123759389+123807394+123858364+123972952+124149233+124320144
2166+124444071+124565450+124728318+124864290+124931034+124999543+125099823
2152+125178496+125255909+125393195+125494833+125458980+125419133+125528706
2139+125685804+125748616+125804050+125954012+126147052+126360526+126609746
2125+126808219+126892449+126988423+127226601+127518172+127747837+127955727
2112+128133899+128212297+128267989+128389040+128525554+128666293+128872976
2098+129101958+129265634+129396058+129515529+129628564+129755002+129887681
2085+130009202+130115402+130198363+130258769+130315624+130388661+130498047
2071+130642905+130798974+130969352+131135709+131247812+131325997+131418518
2058+131533116+131686388+131888793+132117207+132353547+132570403+132736378
2044+132854792+132927607+132970331+133047593+133169522+133273317+133385855
2031+133572690+133789306+133984503+134155165+134302837+134472194+134719639
2017+135013669+135234262+135325052+135386230+135527146+135714186+135852483
2004+135925662+136002392+136155576+136362073+136527214+136613397+136666435
1990+136743031+136849080+136959142+137051832+137108358+137139604+137207341
1977+137341467+137488650+137608405+137717543+137832957+137949188+138056107
1963+138146986+138223902+138302371+138384498+138457765+138515162+138548032
1950+138539697+138490050+138432307+138352764+138185049+137923801+137635887
1936+137391673+137181173+136948685+136736640+136643622+136716730+137003054
1923+137515254+138105754+138645693+139184406+139774116+140368682+140905549
1909+141367240+141747444+142057629+142370912+142709591+143026646+143327697
1896+143620697+143875820+144104340+144335088+144560102+144753231+144919348
1882+145098159+145301505+145508614+145704300+145891215+146087841+146289030
1869+146465923+146616737+146761240+146923789+147138825+147403340+147642414
1855+147817053+147983303+148146260+148264621+148394744+148558154+148649104
1842+148672192+148760008+148944660+149179038+149454338+149744799+149974118
1828+150109682+150175671+150207609+150291103+150493863+150740367+150938812
1815+151114392+151288836+151446698+151615070+151802686+151967401+152094958
1801+152208490+152344143+152535026+152733578+152809740+152725714+152654541
1788+152763084+152996451+153192926+153294634+153365914+153487754+153674661
1774+153838932+153866751+153785015+153729678+153759557+153834263+153898228
1761+153948558+154031057+154196109+154478173+154803519+154999480+155046491
1747+155116509+155278969+155436689+155507987+155580473+155786872+155994479
1734+155956913+155754792+155625708+155625762+155716072+155850234+155998633
1720+156103484+155989863+155602771+155232864+155103993+155121285+155097726
1707+154973010+154850157+154769149+154544038+154093460+153606044+153202708
1693+152911359+152728838+152603482+152430086+152000440+151272467+150625556
1680+150283948+150059937+149739864+149375532+149082035+148770190+148429043
1666+148237654+148193591+148160152+148162158+148321281+148616775+148804152
1653+148719939+148669555+148881236+149144207+149302086+149555496+150077744
1639+150748036+151307033+151679567+152093875+152755752+153618223+154487281
1626+155237427+155923679+156658824+157424167+158123592+158775243+159494658
1612+160288850+161059466+161749979+162371521+162946975+163488077+163988576
1599+164455647+164914214+165360779+165772726+166155610+166517688+166848112
1585+167148514+167441301+167757682+168074134+168278616+168344729+168444325
1572+168625603+168730774+168744124+168849667+169178298+169638480+169835026
1558+169502384+169073483+168938931+168975289+169016512+169076856+169181920
1545+169279349+169246648+168939694+168477470+168203839+168100764+167946257
1531+167777211+167715926+167669306+167508497+167204508+166756132+166248762
1518+165772371+165315100+164901058+164606212+164365691+163818394+162744108
1504+161642607+160905599+160219737+159115094+157507181+155725180+153877119
1491+151591387+148837093+146232477+144181159+142563508+141166442+139939106
1477+138838963+137575260+135710440+133307172+131065841+129335058+127814678
1464+126161867+124379617+122765997+121977868+122821627+125182704+128112613
1450+130883897+133251516+135204774+136701400+137750600+138482735+139012164
1437+139370265+139605647+139787112+139928543+140068945+140282792+140583443
1423+140969772+141472251+142088342+142798579+143594032+144460240+145401944
1410+146410107+147410414+148341804+149221984+150042095+150659287+150882464
1396+150598518+149808303+148647604+147128857+145014293+142475070+140397149
1383+139615500+140521528+143070550+146765758+151019750+155417125+159725522
1369+163859066+167496035+170140134+171679626+172379743+172609879+172666955
1356+172657848+172558483+172343296+172000693+171618395+171444306+171635171
1342+172054521+172489653+172899736+173335596+173849766+174501417+175332554
1329+176349372+177516098+178807204+180220292+181750037+183360223+184945908
1315+186463634+188008132+189606707+191166703+192644502+194012249+195235821
1302+196370042+197473531+198521754+199448865+200241868+200983741+201706760
1288+202275148+202531878+202441124+202013785+201286860+200412920+199749126
1275+199784544+200790035+202663998+205122700+207835735+210473976+212815312
1261+214789137+216405376+217717466+218759990+219520256+219994037+220179062
1248+220090650+219725164+219068844+218289263+217641162+217251301+217283115
1234+218014780+219573374+221764019+224202199+226587970+228796902+230783936
1221+232538295+234050730+235316964+236398919+237380194+238269952+239027342
1207+239706830+240424239+241137050+241747833+242343100+242951913+243500346
1194+244008001+244555369+245094802+245557257+245977867+246393506+246772006
1180+247070367+247286815+247448281+247533727+247493161+247353265+247079208
1167+246572885+245960114+245399342+244851156+244297042+243808277+243452874
1153+243209530+242968565+242628413+242116143+241397562+240486109+239463397
1140+238423163+237408795+236469523+235590506+234707512+233826507+232965722
1126+232142202+231321913+230324215+228965079+227133173+224647113+221220557
1113+216580405+210558304+202948778+193482598+182345287+170360789+158459537
1099+147343769+137539443+129621862+124393021+122560299+124299958+129257645
1086+136577136+144908314+152702421+158485403+160895142+158876827+152639131
1072+144725811+139118098+137980212+139215528+137949126+130478536+116758294
1059+99860165+83687550+71110040+63599630+61796836+66141191+77035270+94444249
1043+117504579+144336189+172095087+197825276+219629687+236954897+250032250
1030+259263199+264758401+265814702+260900333+249365615+234249460+222698018
1016+221305524+230508636+245255398+260567939+274505295+286893999+297624548
1003+306466097+313358587+318391494+321828027+324041894+325286575+325691598
989+325257531+323811599+321222428+317310853+311451709+302544402+289108931
976+269825731+245585183+221729063+206764220+207037087+222404770+247025931
962+273818954+298035465+317693471+332544995+343285540+350986832+356550668
949+360549377+363441809+365627697+367402383+368958030+370364231+371561830
935+372448818+373097487+373685155+374193857+374464168+374466902+374339221
922+374131579+373677024+372761950+371333736+369546267+367554138+365378512
908+363134145+361205892+359941115+359125281+357917527+355297821+350388796
895+342420530+330747442+315302782+297216844+278704012+262135073+250238152
881+247595260+258768327+282717491+311919578+338488751+358784170+372625996
868+381113793+385517312+386875578+386218317+385234289+386057224+389592537
854+394517646+398878024+401997307+404135474+405576790+406544734+407192088
841+407603609+407863552+408050281+408184460+408211232+408100523+407890715
827+407693156+407540975+407221097+406621073+405921665+405191261+404177017
814+402581958+400418474+397977011+395642102+393937470+393452877+394572397
800+397089135+400066427+402527135+404137214+405044477+405541923+405888538
787+406176389+406352395+406362017+406251059+406020373+405602106+405026510
773+404386008+403846061+403634477+403795038+404047418+404036660+403608309
760+402723202+401614582+400988603+401447879+402896687+404728469+406325552
746+407440279+408221351+408875736+409502000+410104866+410683764+411208905
733+411591168+411934090+412302471+412558508+412835956+413298961+413808195
719+414060611+414232037+414642315+415311115+416006084+416513224+416896552
706+417396733+418076292+418819230+419526236+420120686+420606522+421171253
692+421965711+422866760+423676451+424461678+425412968+426523612+427613059
679+428567119+429470582+430394817+431489554+433370334+435715717+436723250
665+436835770+438046969+440226075+442288222+444071928+445836637+447745539
652+449803958+451854530+453811543+455880330+458222340+460627658+462871315
638+465006961+467205418+469597457+472176011+474832787+477595194+480538649
625+483578681+486532575+489426569+492483041+495580452+498432230+501317241
611+504522130+507851079+511193414+514706784+518346557+521926999+525416367
598+528823714+532335380+536178996+540055775+543589952+547202279+551342481
584+555663375+559734517+563536662+567364619+571559004+576067871+580418804
571+584371248+588265034+592438755+596800446+601079408+605312140+609699893
557+614196155+618649666+623075483+627672512+632568008+637758422+642928242
544+647630512+652035096+656623816+661433671+666167684+670916823+675876374
530+680582550+684799659+689144094+693995137+699029464+704000874+708948636
517+713880492+718600870+722972149+727341155+732044064+736777438+741128691
503+745360073+749685833+753702472+757367455+760836158+763935593+766512301
490+768405011+770003443+772427331+776053115+780213343+784569424+789179733
476+793730390+797788075+800874160+802509803+803453779+805781586+811078662
463+818914879+827413791+835813071+844373621+851983094+857583750+861679072
449+865252164+868553702+870861697+872067640+873169336+874977115+877715946
436+881145237+885287640+891090257+899488614+910808163+924674950+939426701
422+953000062+964818761+975540878+986397137+998145747+1009910690+1020765956
409+1030292852+1037908077+1045263962+1054665804+1064776498+1073741823
##END=
