##TITLE=14
##JCAMP-DX=4.24
##DATA TYPE=INFRARED SPECTRUM
##DATE=16/11/2015
##SAMPLING PROCEDURE=Instrument type and / or accessory
##ORIGIN=Default
##XUNITS=1/CM
##YUNITS=TRANSMITTANCE
##RESOLUTION=4
##FIRSTX=3996.3359
##LASTX=399.24785
##DELTAX=-1.9287336
##MAXY=0.4541254
##MINY=0.0080694323
##XFACTOR=1
##YFACTOR=4.2293724e-010
##NPOINTS=1866
##FIRSTY=0.035348598
##XYDATA=(X++(Y..Y))
3996+83578826+83604871+83761788+83875360+83882134+83896033+83922845+83965494
3981+84082158+84191423+84197712+84142229+84107358+84168865+84375205+84680345
3965+84904178+84897378+84774900+84775957+84919680+84984622+84919953+84949381
3950+85116040+85220874+85136616+84969094+84939507+85031587+85069004+85023730
3935+84976889+85033278+85212841+85352239+85305274+85205830+85295188+85560745
3919+85803815+85897586+85879934+85862565+85856831+85783723+85657194+85584404
3904+85580634+85620262+85742334+85871910+85886778+85880313+85989772+86077941
3888+85964889+85765156+85606785+85502770+85567166+85780253+85943908+85998175
3873+85957050+85871329+85831789+85840227+85852753+85812684+85698522+85569950
3857+85477006+85445226+85489144+85530419+85447393+85265126+85148189+85215854
3842+85387824+85496102+85494217+85437308+85376708+85347773+85369608+85426932
3827+85450317+85395998+85361963+85375959+85266994+85063957+84933570+84834303
3811+84737025+84763300+84935799+85034203+84935904+84816484+84748379+84655806
3796+84558229+84467796+84405452+84418831+84461014+84474790+84473891+84489226
3780+84526960+84501690+84315450+84053373+83950556+84103932+84268521+84210387
3765+84058305+83989699+84001616+84025856+83986616+83893620+83872595+83973897
3749+84047049+83995459+83985938+84055522+83938665+83634881+83399219+83320677
3734+83258553+83089155+82916092+82874844+82871171+82731271+82518405+82397337
3719+82326387+82192151+81993757+81843226+81781322+81610867+81213778+80706456
3703+80186450+79642301+79073110+78540244+78041914+77417215+76528473+75527367
3688+74738959+74269714+73929112+73559699+73271950+73212081+73304954+73317629
3672+73129448+72846019+72537215+72189047+71825935+71486016+71211277+70990558
3657+70742803+70412788+70023517+69654139+69337345+68987460+68534571+67984371
3641+67341619+66668470+66081791+65641542+65333235+65068154+64719150+64248562
3626+63758217+63279472+62708405+62042559+61417498+60923960+60535186+60114510
3611+59587598+59040542+58493257+57860797+57158353+56505665+55982783+55550704
3595+55083868+54552918+54054351+53591193+53087697+52508139+51883906+51330835
3580+50877607+50397476+49823493+49235616+48699566+48187870+47676500+47159995
3564+46635466+46097267+45538531+45065063+44769255+44481515+44022897+43469279
3549+42888202+42259891+41674973+41211123+40831162+40480902+40074798+39527553
3533+38914639+38419018+38035564+37619490+37206930+36894989+36592718+36171101
3518+35679376+35263334+34953085+34680432+34386099+34002491+33526763+33056647
3503+32661436+32338770+32009453+31615113+31233928+30871821+30468161+30143542
3487+29997408+29900417+29687522+29336505+28929412+28545818+28217840+27915241
3472+27588675+27248436+26963420+26801161+26726820+26556766+26185388+25764938
3456+25445678+25180423+24908148+24664687+24458350+24256111+24055529+23831752
3441+23545901+23202838+22827307+22451525+22145277+21966034+21907803+21934835
3425+21946825+21861796+21692598+21457445+21205380+20999647+20875025+20795359
3410+20615788+20337979+20183766+20137783+19962264+19771735+19796748+19908611
3395+19888566+19734086+19616905+19593698+19550670+19442409+19351232+19343848
3379+19356779+19345903+19364539+19375298+19293466+19157605+19079503+19106713
3364+19189277+19289002+19424855+19574084+19699369+19811279+19918842+20047606
3348+20178893+20215625+20188595+20222588+20308919+20392546+20477220+20552477
3333+20631951+20765337+20920600+21022440+21130842+21343417+21579092+21757840
3317+21949261+22152863+22277846+22359991+22518520+22761585+22990460+23144785
3302+23311081+23601901+23919600+24096234+24190371+24320635+24448720+24595420
3287+24907618+25366978+25777996+26059112+26292764+26594696+26997505+27339045
3271+27505497+27666723+27966299+28313714+28581579+28804376+29130319+29601991
3256+30100353+30491155+30758616+31005724+31323095+31690709+32096000+32584834
3240+33060914+33391961+33706273+34202568+34790205+35226292+35520979+35871312
3225+36341504+36900831+37515197+38102264+38626366+39115015+39547710+39964710
3209+40457728+40993989+41530207+42064469+42585532+43156471+43768619+44260651
3194+44614183+45016887+45586602+46231415+46809907+47358967+47964509+48556072
3179+49086767+49642719+50275932+50907533+51392452+51746530+52230313+52941641
3163+53615388+54093371+54513964+55020111+55629704+56242024+56755433+57199905
3148+57639850+58072950+58531920+59067931+59601242+60079352+60572625+61055651
3132+61429464+61728218+62071062+62497569+62994538+63543752+64075926+64499602
3117+64814687+65174389+65670292+66157228+66518688+66845879+67197787+67500042
3101+67770038+68108302+68522284+68945313+69252316+69409502+69580036+69839075
3086+70134812+70448862+70740222+71014882+71312099+71572217+71747842+71912731
3071+72180305+72521823+72763831+72823792+72843355+72985360+73147584+73205669
3055+73272201+73377815+73438248+73475995+73468953+73360084+73237422+73191990
3040+73190092+73142854+72996621+72786274+72556205+72308199+72036727+71722634
3024+71346319+70892436+70388879+69930979+69495192+68886448+67998006+66901529
3009+65749658+64669965+63572440+62238817+60653682+58916717+57007769+54804373
2993+52275886+49370019+46117094+42686526+39111505+35376792+31723816+28558193
2978+26199387+24750172+24181098+24440434+25371349+26775214+28514659+30441664
2963+32568737+35085621+37852439+40294900+42003931+42992186+43341984+43080039
2947+42298083+41134532+39786658+38588737+37899831+37814837+38126913+38590459
2932+39120520+39822410+40818756+42037071+43302523+44527471+45685469+46725516
2916+47521437+47959136+48115339+48108037+47870535+47405320+46944095+46587920
2901+46268982+45982360+45700509+45370195+44949787+44363627+43582768+42645181
2885+41624621+40671167+40054311+40096515+40955784+42478570+44419330+46664168
2870+49090621+51530797+53882610+56105287+58168334+60035082+61756100+63431752
2855+65101053+66778660+68428759+69970404+71382093+72640244+73684545+74583002
2839+75492804+76456872+77434778+78380905+79220364+79987307+80833381+81734278
2824+82585364+83404706+84170600+84838768+85450820+86060642+86652646+87220762
2808+87868390+88646527+89470617+90240466+90909109+91506495+92078002+92613079
2793+93084693+93498130+93862760+94190863+94526216+94883289+95203958+95453299
2777+95656529+95791012+95856245+95965272+96118692+96171559+96152586+96218621
2762+96333074+96377836+96389454+96455242+96574029+96700998+96813734+96880464
2747+96896918+96890928+96858320+96873136+97051606+97360834+97682621+97973264
2731+98249170+98499312+98683244+98800929+98991097+99360449+99793774+100237396
2716+100753412+101300371+101822324+102256301+102526121+102701588+102919677
2702+103206312+103508730+103815394+104146598+104489182+104830189+105149035
2689+105401996+105603420+105780658+105922081+106051940+106196296+106356058
2675+106563516+106851040+107211707+107588669+107906608+108175609+108463133
2662+108764521+109017499+109218704+109432222+109659304+109831962+109964418
2648+110131280+110307337+110434236+110585084+110799545+110985000+111141979
2635+111300701+111401361+111462701+111543973+111643796+111790055+111996853
2621+112179128+112281954+112361950+112453079+112536166+112619535+112690714
2608+112749746+112838180+112903281+112921786+113004715+113132398+113156981
2594+113080421+113028541+113078378+113198741+113260063+113210614+113170889
2581+113216401+113286637+113313405+113314392+113343318+113373107+113384883
2567+113441299+113558633+113672980+113711463+113678335+113684950+113758516
2554+113776854+113718941+113651162+113574910+113527425+113569414+113687804
2540+113839788+114006342+114188001+114354298+114462806+114543206+114655105
2527+114801752+114968067+115131987+115246889+115323916+115459130+115700023
2513+115949311+116114244+116252338+116448610+116660481+116809144+116945124
2500+117140234+117376547+117640263+117910902+118157988+118400529+118636939
2486+118814987+118925450+119043910+119250919+119504012+119694163+119860478
2473+120097302+120352994+120576139+120789675+120976892+121151196+121401488
2459+121735167+122050710+122288838+122466595+122597748+122678061+122744536
2446+122866934+123051984+123263828+123475321+123603893+123617123+123649211
2432+123760370+123857788+123918423+123978283+124031475+124052782+124056552
2419+124089644+124119442+124104680+124090252+124105887+124209594+124467320
2405+124775085+125002132+125158653+125277299+125365089+125456289+125571693
2392+125733058+125949465+126163926+126305253+126363827+126375022+126376784
2378+126408766+126484031+126569664+126607874+126519608+126174223+125505016
2365+124722615+124154684+124074935+124568631+125269891+125773725+125926952
2351+125865577+126125989+126969193+127730595+127673016+127057027+126590804
2338+126619545+126920008+127115857+127303479+127597468+127773570+127815822
2324+128023483+128424227+128701886+128833109+129094033+129505919+129811526
2311+129950501+130084887+130273540+130463584+130629389+130756569+130837736
2297+130913055+131018400+131138913+131254449+131366330+131472284+131545603
2284+131572291+131597236+131669877+131777406+131859692+131847079+131729050
2270+131570547+131432656+131334551+131274655+131259629+131275756+131269511
2257+131263989+131346072+131534090+131794961+132038841+132191415+132269922
2243+132379099+132540720+132679774+132757682+132841104+132977269+133121731
2230+133226856+133297251+133374216+133477906+133594253+133717426+133815610
2216+133847284+133869049+133946067+134040834+134121305+134175317+134182680
2203+134199724+134313261+134513188+134684410+134769091+134863074+135016926
2189+135162912+135288208+135422840+135570579+135732878+135894842+136053106
2176+136219369+136379571+136524659+136666567+136797694+136885132+136932256
2162+136982700+137059709+137156255+137252564+137360278+137514729+137662582
2149+137705628+137677433+137695146+137808648+137973448+138097960+138158807
2135+138211929+138301675+138466096+138699107+138905904+139038757+139188628
2122+139436436+139749152+140054468+140299924+140461897+140581248+140766131
2108+141015172+141209171+141347494+141474604+141595276+141763934+141944572
2095+142075601+142164775+142283755+142446010+142608142+142762046+142927851
2081+143085393+143209870+143319073+143427660+143518806+143564582+143594142
2068+143681493+143802455+143913147+144072882+144295992+144518010+144719761
2054+144930055+145166184+145405193+145603631+145758655+145902967+146042488
2041+146163045+146263290+146362303+146471374+146572395+146682576+146836894
2027+147002258+147175347+147430554+147748792+148022461+148232059+148411851
2014+148545629+148645936+148788293+148981315+149162199+149315179+149461429
2000+149597797+149705538+149795909+149897573+150007129+150124294+150259059
1987+150384593+150460501+150463707+150448364+150527108+150662419+150737218
1973+150822322+150996882+151159744+151242012+151297134+151393741+151575788
1960+151804888+151941854+151927937+151864783+151829850+151791517+151713300
1946+151608519+151484958+151290968+150982524+150642319+150398703+150206052
1933+149911173+149550708+149363289+149497578+149858553+150333294+150962072
1919+151735937+152512322+153197666+153797447+154327468+154814294+155297192
1906+155766155+156178217+156528799+156830213+157101803+157380510+157668625
1892+157928905+158130013+158316111+158557066+158814264+159035560+159227295
1879+159385296+159540337+159764715+160063135+160339605+160494892+160564671
1865+160654179+160790335+160972752+161211311+161475591+161718431+161911277
1852+162060909+162222186+162424862+162595193+162661378+162730751+162931876
1838+163187083+163383698+163558927+163760757+163940372+164073270+164202608
1825+164330397+164458696+164626562+164804099+164962487+165153764+165363310
1811+165510018+165608194+165736158+165916179+166090157+166196736+166285293
1798+166443487+166649245+166783111+166787604+166800058+166931846+167083716
1784+167153406+167190012+167279115+167446646+167673209+167886507+167976562
1771+167910571+167797263+167785760+167903965+168019915+168048295+168076182
1757+168195514+168440627+168781432+169030931+169061196+169041131+169150651
1744+169342352+169492830+169617518+169813323+169958675+169814204+169521544
1730+169400785+169434344+169454884+169425818+169438290+169510341+169453493
1717+169141614+168769893+168545092+168466083+168434232+168335564+168170059
1703+168045529+167873418+167460387+166846125+166176953+165648834+165376011
1690+165260713+165114638+164651841+163758097+162895322+162461045+162279492
1676+161993051+161560889+161187336+160844206+160458656+160217260+160150071
1663+160061867+159999593+160240566+160787376+161188815+161105297+160978829
1649+161195756+161452725+161525550+161693486+162209784+163012083+163826131
1636+164412982+164884623+165531475+166387873+167296467+168166870+168995346
1622+169816036+170708952+171646402+172444473+173082534+173754049+174524568
1609+175311469+176027201+176641164+177210029+177791683+178354083+178847057
1595+179281650+179673577+180005468+180286923+180574227+180889928+181203005
1582+181520944+181862928+182117713+182156063+182132017+182227779+182317886
1568+182307528+182379068+182727976+183307728+183679695+183374687+182728046
1555+182341809+182259858+182271520+182295214+182414952+182652173+182736573
1541+182285702+181473521+180984792+180900992+180787208+180513469+180258561
1528+180052697+179855642+179619865+179156821+178456433+177751676+177133081
1514+176630946+176309978+176057660+175426750+174112893+172665222+171632221
1501+170738777+169428953+167527029+165403774+163266303+160714233+157605153
1487+154555423+152059496+150029942+148283798+146840329+145639824+144282296
1474+142232237+139518960+136934308+134937326+133188937+131275422+129289477
1460+127630508+126941791+128013186+130694754+133941135+136978833+139594489
1447+141791328+143486974+144681216+145558983+146243622+146654125+146770842
1433+146784759+146821568+146913261+147125590+147496351+147997005+148584209
1420+149211542+149875958+150638214+151512493+152474306+153532446+154665507
1406+155765978+156744193+157602229+158286428+158556749+158164452+157140735
1393+155733635+153931771+151449814+148520737+146167572+145372259+146589333
1379+149681263+153953158+158696077+163555580+168379939+173045294+177177579
1366+180241878+182022127+182732926+182860750+182812323+182730742+182583751
1352+182283799+181814079+181324187+181097307+181309443+181821988+182339325
1339+182720859+183068534+183602184+184436068+185490719+186680523+188036677
1325+189578965+191240303+192958313+194680868+196346047+197958218+199590701
1312+201303426+203063856+204747391+206239156+207556201+208820011+210067490
1298+211221127+212236547+213156399+214012603+214738376+215236283+215427701
1285+215212712+214570616+213647312+212662826+211927346+211891286+212927881
1271+215045763+217875272+220915683+223801547+226393324+228638572+230457981
1258+231835944+232873191+233648025+234116354+234227231+233994238+233433952
1244+232567548+231533948+230631237+230126513+230186232+230986787+232628254
1231+234989170+237770393+240619421+243209384+245387778+247241381+248875290
1217+250305274+251549125+252609360+253491742+254289812+255098734+255909929
1204+256642185+257258191+257862500+258493268+259089103+259655255+260240715
1190+260773960+261189810+261548512+261872493+262132985+262358297+262557890
1177+262689554+262723289+262660857+262442803+261967463+261308684+260604385
1163+259843626+259019731+258232001+257592618+257098658+256629536+256126274
1150+255583482+254927222+254073608+252991739+251711053+250337089+249012609
1136+247824286+246736656+245629103+244433786+243228956+242109899+241003896
1123+239668142+237909068+235692095+232798938+228780911+223355133+216328633
1109+207476241+196760082+184467372+171325381+158363428+146434679+136040194
1096+127656228+122060302+120077449+121969649+127241232+134882390+143575769
1082+151714815+157598441+159792743+157297802+150370746+141761574+135663531
1069+134194501+135142627+133640698+126009387+112091417+94866959+78408368
1055+65746152+58253341+56470741+60876770+71990916+90012573+114276161+142880516
1040+172871104+201096435+225315736+244730391+259463132+269725602+275572269
1026+276506654+270881635+257644022+240198762+226895987+225183139+235470641
1013+252212008+269851364+285998305+300263809+312562263+322746304+330664152
999+336372144+340239023+342590232+343667891+343693575+342644314+340395984
986+336902535+331890457+324646361+313995276+298307803+276346997+249319432
972+222953464+206448085+206775448+223741458+251117438+281343097+308968224
959+331542570+348827840+361512442+370526903+376898500+381522738+384983562
945+387621283+389620096+391113675+392316233+393408231+394378218+395081249
932+395441678+395608504+395712687+395651382+395324389+394703133+393709540
918+392305910+390476811+388187188+385513143+382587431+379622893+377088756
905+375412602+374369683+372953017+369922630+364156364+354655094+340921442
891+323309320+303091363+282437245+264047135+251251462+248855120+261358309
878+287776862+320353097+350364755+373289700+388663990+397901686+402615273
864+403899465+402860915+401456756+402122229+405915542+411403507+416378908
851+419935881+422286597+423791133+424695483+425245075+425580067+425702147
837+425631471+425376458+424982064+424568469+424195497+423828269+423391772
824+422810153+422053393+421122126+419942082+418422643+416506414+414067018
810+411064393+407935953+405570898+404782041+405943447+408628273+411688926
797+414206398+415865287+416749589+417237208+417539257+417516567+417126860
783+416565253+416084399+415759519+415356882+414734604+413974708+413183984
770+412620580+412476620+412522986+412234255+411266945+409791124+408268161
756+407363988+407836527+409643922+411758228+413399643+414532334+415282541
743+415818005+416302876+416687510+416958131+417202257+417402625+417514206
729+417558952+417638084+417855011+418119361+418532146+418769155+418881758
716+419117887+419434945+419745661+420064586+420391614+420733264+421113248
702+421574301+422112619+422600343+423010697+423494510+424063129+424683821
689+425505479+426557911+427533677+428220500+428840523+429629485+430462418
675+430954617+431414050+433822019+437859107+438622772+436548913+436949754
662+439886952+442571497+444423249+446099967+447804060+449568401+451502210
648+453521600+455535775+457624396+459877694+462332523+464936455+467547576
635+470124450+472665739+475110033+477559400+480167279+483016959+486073348
621+489147917+492144024+495111063+498119712+501266614+504542995+507905309
608+511318252+514826569+518481242+522140496+525673687+529148005+532833754
594+536865415+540954964+544811485+548671071+552763438+556879024+560862205
581+564685960+568589586+572970367+577692834+582221944+586402569+590617052
567+595047476+599370511+603415702+607616903+612252733+617018711+621816047
554+626716755+631513315+636170566+641120530+646449313+651600243+656356356
540+660937575+665490256+670129821+674927720+679819690+684743299+689726452
527+694701712+699457614+704022696+708722156+713439021+717908482+722339681
513+726914699+731739657+736789610+741737882+746419585+750928084+755092572
500+758537682+761313444+763755836+766373051+769318282+771855096+773798736
486+775899935+778692115+782315361+786531923+790842204+794785643+798038102
473+800320678+801706727+803213483+806032228+810789681+817728733+826574290
459+836559761+846302127+854163075+859808317+863956951+867486971+870683621
446+872975711+874478520+875810452+876523700+876894981+878938399+883798660
432+890694869+898973182+909551898+922951404+937884301+953354354+969405533
419+984554194+995906829+1004247081+1013166626+1023381813+1032433057+1040272301
405+1049587297+1060002041+1068275139+1073741823
##END=
