##TITLE=14
##JCAMP-DX=4.24
##DATA TYPE=INFRARED SPECTRUM
##DATE=16/11/2015
##SAMPLING PROCEDURE=Instrument type and / or accessory
##ORIGIN=Default
##XUNITS=1/CM
##YUNITS=TRANSMITTANCE
##RESOLUTION=4
##FIRSTX=3996.3359
##LASTX=399.24785
##DELTAX=-1.9287336
##MAXY=0.45070511
##MINY=0.0077871201
##XFACTOR=1
##YFACTOR=4.1975184e-010
##NPOINTS=1866
##FIRSTY=0.042442914
##XYDATA=(X++(Y..Y))
3996+101114300+101029154+100857609+100763659+100877684+101085980+101192329
3983+101213106+101328534+101537096+101729878+101917779+102086635+102144065
3969+102008339+101782791+101806913+102180195+102553139+102615442+102478172
3956+102449843+102577474+102665692+102628372+102624059+102824430+103047600
3942+103021286+102849111+102806351+102925773+103015845+103039568+103146556
3929+103311613+103381477+103399653+103490701+103559331+103542478+103537543
3915+103548646+103529929+103578874+103729270+103815774+103778375+103771710
3902+103804290+103731870+103601896+103511895+103516199+103654888+103855427
3888+103881165+103814381+103968779+104084473+103963738+103846765+103796107
3875+103800882+103751359+103463029+103188916+103101995+103085913+103100903
3861+103097060+103160720+103289692+103330561+103371111+103452086+103316397
3848+103070950+102911786+102884061+102925400+102902813+102907482+103018579
3834+103012703+102910934+102913543+102931169+102890743+102819433+102709694
3821+102788131+102935615+102773620+102571164+102484083+102374219+102264489
3807+102280091+102476663+102564428+102546536+102556964+102366161+102101403
3794+101958844+101795544+101586574+101463806+101480012+101548660+101556674
3780+101569330+101721775+101851758+101776179+101611033+101518156+101426114
3767+101135636+100824861+100697283+100642311+100724129+101011138+101245464
3753+101219496+101122465+101197406+101237183+100989474+100764653+100653458
3740+100460321+100311123+100174608+99880119+99536470+99361198+99233425+99027632
3724+98783650+98519619+98300665+98155621+98020907+97793823+97494958+97224653
3709+96922566+96527887+96013919+95303920+94473834+93670577+92866735+92011382
3694+91109124+90137970+89105934+88200109+87539624+87046725+86720144+86537310
3678+86312152+86034853+85914668+85682285+85225792+84915682+84715897+84441288
3663+84071272+83606471+83097669+82691656+82464625+82148889+81576452+81011142
3647+80634098+80290024+79797959+79186996+78566919+77985430+77440347+76904795
3632+76310401+75646801+75103262+74624758+74050032+73458346+72913852+72434213
3616+71950278+71342630+70639039+69866783+69068283+68355377+67724002+67106756
3601+66487340+65848781+65128207+64318241+63532193+62847692+62216157+61615538
3586+61018105+60280337+59395262+58521901+57718382+57014250+56503859+56108407
3570+55602795+54953510+54295626+53623341+52896995+52233563+51639645+50976063
3555+50248305+49579433+48997434+48395306+47688529+46944997+46298969+45796255
3539+45304265+44692713+44095595+43631376+43115894+42433617+41796717+41342668
3524+40872490+40213602+39475843+38873542+38498769+38247634+37940497+37508428
3508+37004448+36496502+36048029+35629773+35128565+34587411+34111954+33677189
3493+33252896+32858846+32467710+32028385+31588208+31218319+30864325+30456531
3478+30037110+29638317+29197452+28716643+28306302+28004522+27756916+27529526
3462+27294188+26966752+26523713+26087255+25771225+25556497+25332049+24989013
3447+24545231+24183462+23974261+23744295+23405526+23079483+22847260+22644664
3431+22393540+22127364+21907027+21727908+21619961+21566043+21391548+21057569
3416+20737661+20500646+20261121+20018005+19894769+19893824+19868186+19712696
3400+19466125+19316233+19314316+19248695+19087696+19003002+18971014+18921720
3385+18887478+18823017+18700092+18626689+18679535+18796960+18850585+18766457
3369+18620679+18551723+18602596+18727431+18821151+18808131+18800885+18947826
3354+19134491+19183315+19216492+19370158+19514931+19561640+19597306+19723475
3339+19961482+20202706+20322876+20378311+20513060+20718092+20899330+21092150
3323+21339629+21531480+21631519+21780328+22025674+22252159+22380301+22476779
3308+22656850+22919445+23218843+23582863+23956507+24188823+24304963+24486964
3292+24787596+25131437+25507958+25930873+26306624+26558179+26763586+27018653
3277+27345270+27724569+28053070+28292164+28592218+29016210+29483271+29975449
3261+30485452+30962658+31419562+31934887+32464837+32858030+33138950+33459605
3246+33886121+34407198+34976894+35550129+36122313+36712044+37284463+37816345
3231+38404135+39062477+39658015+40183653+40756383+41406102+42089520+42757132
3215+43392581+44040326+44731354+45448204+46142410+46812249+47504866+48188346
3200+48858971+49595657+50353341+51021937+51684189+52520895+53477800+54332559
3184+55085180+55920173+56814869+57582844+58254720+58976336+59714233+60434154
3169+61208962+62020055+62798014+63547702+64250951+64882521+65543472+66324599
3153+67171131+68003467+68789564+69539092+70269227+70953622+71592194+72252555
3138+72967493+73691137+74390445+75082903+75784186+76477713+77096663+77634176
3123+78178372+78708369+79203939+79795465+80465251+81034484+81510804+82025278
3107+82525543+82933552+83411932+84050558+84678117+85168770+85562455+85976722
3092+86454666+86899472+87252305+87535391+87777119+88026443+88313283+88646396
3076+89020663+89349792+89584438+89802904+90028249+90218342+90401371+90597455
3061+90770198+90928971+91089759+91219565+91310045+91341223+91283393+91198105
3045+91128099+91007381+90815966+90586051+90305148+90035952+89812534+89465841
3030+88971931+88525182+88100851+87479647+86630844+85722036+84828352+83893621
3015+82847465+81589188+80114574+78560032+76945859+75175149+73192212+70918353
2999+68261795+65285241+62075178+58549423+54601817+50295316+45696131+40934579
2984+36334485+32117748+28408748+25491049+23661500+23038567+23526376+24758552
2968+26346118+28232981+30523916+33266312+36495614+40025750+43285895+45680383
2953+47019019+47443509+47094713+46045020+44436274+42585610+40954907+39971559
2937+39788224+40174579+40828146+41693257+42779160+44049347+45517327+47144968
2922+48809355+50362300+51688906+52720937+53329473+53495595+53415312+53170052
2907+52675538+51972705+51290419+50829834+50565036+50261760+49772375+49203320
2891+48553583+47589134+46268089+44814846+43495730+42686869+42849166+44120210
2876+46221002+48856868+51889383+55207233+58625468+61961969+65168469+68217256
2860+71062362+73716098+76204834+78638043+81139865+83661186+86046142+88164529
2845+89987468+91601837+93130961+94593229+95948058+97268877+98623057+99961973
2829+101237086+102476876+103742653+105007320+106175596+107237071+108253709
2816+109213414+110096262+110974131+111892958+112890497+113955637+114952289
2802+115867228+116801116+117743604+118629034+119426664+120138145+120754477
2789+121277284+121751395+122186624+122595503+122987529+123288684+123518182
2775+123784822+124030606+124146708+124181809+124214726+124257211+124319779
2762+124406302+124471888+124485484+124485679+124485174+124468950+124491262
2748+124556839+124598702+124662079+124826337+125044084+125249531+125450088
2735+125718264+126131563+126585971+126946943+127286695+127642635+127993490
2721+128429127+128991659+129646340+130349221+130991654+131503563+131913037
2708+132269776+132662689+133117878+133565355+134003433+134417779+134787573
2694+135214282+135713793+136137262+136412280+136632069+136898106+137166663
2681+137341154+137461800+137643453+137918152+138260336+138660535+139114357
2667+139602837+140074968+140434112+140682434+140956751+141279614+141553442
2654+141751319+141941084+142181454+142434196+142664253+142898934+143136721
2640+143341059+143516935+143701978+143880001+144026430+144154167+144286751
2627+144451745+144629130+144785383+144914567+145008766+145117875+145299004
2613+145445850+145447643+145436931+145537821+145621992+145593743+145584956
2600+145684880+145780792+145776754+145719004+145715392+145817552+145938092
2586+145969376+145919783+145864785+145857596+145891818+145931959+145963874
2573+146021579+146128753+146221914+146270078+146316219+146338167+146314409
2559+146278767+146239912+146196256+146148473+146106051+146067205+146011453
2546+145966572+146000270+146156168+146360790+146500091+146618927+146825200
2532+147104930+147337153+147472710+147637704+147917275+148232843+148496687
2519+148669599+148773099+148922988+149171008+149387860+149510406+149671415
2505+149906851+150115466+150336134+150660816+151017626+151291810+151489189
2492+151706147+152006849+152343868+152618389+152808615+152992824+153236691
2478+153534056+153873844+154237097+154535669+154749592+155006611+155334666
2465+155640551+155937331+156263096+156577235+156863879+157111118+157293251
2451+157482927+157754483+158040986+158247755+158380383+158525027+158685877
2438+158789253+158879139+158993324+159049006+159048758+159082056+159145459
2424+159199402+159222530+159167682+159079270+159039865+159029996+159054367
2411+159160405+159350809+159583777+159814633+160050193+160292746+160486718
2397+160633989+160829434+161102500+161375938+161600209+161786778+161926985
2384+161997133+162031533+162089185+162190785+162286813+162265708+162066234
2370+161730351+161090909+159910075+158639355+157940964+158005787+158855922
2357+160084237+160927804+160850148+160228349+160297485+161543213+162687536
2343+162508492+161706797+161309677+161425371+161894361+162458224+162916990
2330+163196853+163336617+163520329+163885410+164358660+164718540+164891940
2316+165042211+165331145+165720952+166104227+166401894+166581576+166701087
2303+166864990+167084788+167269317+167377716+167478056+167631025+167784492
2289+167869833+167931763+168040144+168182393+168266013+168211378+168073958
2276+167975570+167934852+167884282+167808596+167733496+167634984+167509048
2262+167411476+167339323+167252277+167237083+167408885+167715498+168008443
2249+168199344+168356165+168559278+168812215+169099072+169340329+169478815
2235+169564831+169637552+169672378+169687607+169777014+169967010+170134463
2222+170206758+170278628+170406854+170535275+170629634+170701716+170740447
2208+170734980+170749357+170840734+170969403+171081370+171183290+171308410
2195+171461929+171653061+171894922+172133109+172305621+172432409+172579361
2181+172765718+172934644+173044747+173144502+173305299+173494247+173632555
2168+173752474+173880824+173968704+174036544+174125241+174257780+174450740
2154+174623482+174713031+174788947+174896157+174978073+175019413+175052623
2141+175066415+175101329+175220236+175374891+175539664+175780176+176096002
2127+176421199+176734006+177035507+177319471+177581177+177843841+178130840
2114+178365459+178509553+178685313+178933351+179133109+179259631+179423907
2100+179630463+179794988+179926000+180089460+180289502+180533546+180785400
2087+180945292+180997477+181066560+181252579+181502996+181724569+181877733
2073+181950615+181985955+182029495+182096501+182232679+182437585+182642171
2060+182838557+183041208+183242368+183477218+183778808+184100561+184350179
2046+184517295+184671720+184801064+184892423+185012182+185150383+185298116
2033+185490650+185678640+185845223+186072529+186388070+186724201+187009781
2019+187230519+187388458+187520412+187710833+187997815+188296263+188497778
2006+188633831+188788167+188947438+189056955+189127600+189250483+189445005
1992+189607932+189717130+189806873+189907178+190001874+190044279+190046711
1979+190069697+190153512+190256640+190325048+190378280+190459433+190587606
1965+190745083+190870451+190977448+191085723+191154717+191184093+191181040
1952+191125660+191013001+190858825+190688922+190402615+189944631+189444171
1938+188964957+188530491+188120307+187678298+187255032+187022117+187139799
1925+187605913+188395574+189409097+190338378+191186294+192069408+192944765
1911+193751839+194422219+194998809+195510718+195969253+196451555+196965150
1898+197388238+197655127+197906875+198226907+198533413+198816294+199028868
1884+199200031+199437649+199685457+199901403+200150683+200493240+200890697
1871+201149083+201260553+201423569+201605683+201757073+201946678+202173256
1857+202374133+202537929+202698850+202886130+203165621+203561428+203760636
1844+203704493+203714024+203787740+203924610+204213242+204641265+205021895
1830+205208571+205386586+205513391+205554092+205653084+205750762+205863616
1817+206088952+206391606+206600080+206685759+206782319+206958363+207205567
1803+207392563+207425240+207459569+207677733+208008753+208157355+208106963
1790+208095639+208076983+207998795+207985323+208025260+208076628+208277310
1776+208614967+208775161+208642000+208470660+208270352+208179117+208257394
1763+208283238+208321347+208382656+208474032+208797809+209128829+209272000
1749+209394688+209504702+209582660+209665747+209731103+209931926+210377965
1736+210456135+210052590+209735096+209449020+209149845+208919965+208802779
1722+208961375+209152773+208917711+208337713+207665752+207046136+206615558
1709+206368620+206212474+206256600+206322914+205885058+205239651+204309713
1695+203064802+202159837+201517271+201149012+200955786+200189005+198896329
1682+197833124+197049303+196385294+195664894+195056532+194545901+193866219
1668+193314249+193015481+192681196+192386618+192406498+192857773+193624039
1655+194013296+194033992+194479569+194773527+194685788+194790655+195224997
1641+195951166+197019980+198042502+198874763+199832923+200826549+201840586
1628+203053211+204267166+205276642+206397730+207636003+208567433+209398628
1614+210440054+211423793+212299540+213158301+213963564+214708033+215416754
1601+216094980+216737174+217334833+217841488+218210314+218494207+218782289
1587+219054591+219267786+219515008+219980749+220568007+220742294+220583822
1574+220679938+220729780+220501746+220332003+220334488+220776356+221528031
1560+221652600+221179635+220681145+219989340+219381208+219018204+218901001
1547+219011264+219257509+219367985+218748280+217774783+217225528+216655595
1533+215901612+215366095+214948119+214524072+214195041+213725360+212838376
1520+211839142+210759234+209639176+208781373+208308212+207984488+206804222
1506+204532049+202358495+200651286+198945975+196777356+193973447+190960053
1493+187765379+183875634+179386295+175021827+171287216+168144053+165446289
1479+163236223+161429223+159496376+156615770+152856079+149241210+146206454
1466+143471504+140769675+138116454+135796499+134774970+136305665+139934921
1452+144057155+147908746+151332013+154244055+156458896+157992581+159130177
1439+159922020+160362486+160665513+160775297+160651331+160537731+160603761
1425+160885435+161412219+161988880+162507054+163224295+164102439+165043010
1412+166111824+167255880+168426401+169627826+170910793+172186465+173167666
1398+173513648+172729969+170925880+168859501+166428980+162997912+158980864
1385+155765192+154550881+156024678+160122719+165934697+172440929+179171059
1371+185879534+192285443+197959912+202180268+204573318+205507782+205644404
1358+205477306+205209033+204791571+204139615+203281209+202461249+202067165
1344+202300488+202937570+203562795+204033683+204477006+205130187+206150012
1331+207471035+208997301+210715551+212641174+214771525+217041532+219368180
1317+221739078+224135767+226506666+228835497+231081914+233192048+235122197
1304+236857806+238473106+240016839+241432931+242644579+243671645+244603572
1290+245417337+245950705+246067944+245660493+244616884+243018517+241276287
1277+240006348+239803786+241074914+243811391+247487657+251442438+255232943
1263+258607850+261419640+263643462+265357789+266589584+267279188+267449161
1250+267285542+266891085+266035270+264484562+262645737+261262588+260483897
1236+260207797+260829968+262756070+265886809+269741179+273695534+277286937
1223+280364373+282974133+285226905+287235065+289027173+290553847+291822987
1209+292935484+293964166+294885158+295683516+296419216+297162638+297875619
1196+298478798+298990565+299459093+299887364+300277722+300625301+300876996
1182+300997447+301024463+300996702+300929181+300772023+300378009+299700493
1169+298850944+297873347+296697784+295300294+293807345+292438414+291300056
1155+290329523+289432866+288510134+287451082+286184498+284648238+282800858
1142+280684423+278404546+276092666+273880062+271843467+269959503+268117731
1128+266261156+264406515+262452866+260236445+257615556+254281030+249799466
1115+243845630+236180290+226514138+214551088+200239238+184108442+167340867
1101+151308530+136969141+124801194+115274459+109048055+106699646+108513391
1088+114204456+122657442+132237675+141150136+147490859+149498992+146023585
1074+137547515+127359745+120152283+118095443+118804066+117120606+108905594
1061+94176913+76704140+60762927+48944548+42160556+40607394+44640541+55014872
1045+72555370+97481113+128577215+162936248+196921432+227470915+252777839
1032+272208122+285655939+293226548+294347494+286674539+268877501+245762911
1018+228223070+225667163+238626235+260177852+283299348+304860337+324239855
1005+341203887+355383234+366481790+374550001+379959232+383158379+384517885
991+384270699+382509085+379109790+373818845+366307272+355812925+340795212
978+319130421+289409329+253675668+219752573+198960087+199118079+219749023
964+253674904+291981512+328017651+358429980+382202899+399741426+412265766
951+421148452+427477699+432012886+435345620+437884184+439783750+441155574
937+442168529+442851725+443152445+443152054+442975797+442598610+441848071
924+440648741+439106837+437222394+434771089+431543506+427558035+423038326
910+418255137+413498643+409287499+406207703+404101812+401628034+396866677
897+388288936+374923709+356181201+332552625+306142949+279970643+257068147
883+241126815+238051332+253518225+286454581+327599710+366225054+396216603
870+416444179+428452350+434257937+435405721+433512794+431189572+431624197
856+436273446+443401477+450024734+454663723+457493742+459050201+459726439
843+459878627+459790481+459512268+458903728+458017863+457147085+456339107
829+455386963+454219832+452903743+451426662+449720322+447816994+445676277
816+443056453+439783146+435807154+431176401+426377521+422551516+420986324
802+422150757+425235381+428796628+431707409+433530970+434340120+434374484
789+433988031+433505658+432898680+432018105+430968975+429843130+428469922
775+426789462+424946341+423194845+421963033+421306853+420736759+419810211
762+418248072+415912851+413226820+411366979+411435565+413276165+415598038
748+417287196+418177463+418558058+418573110+418389610+418220879+418077424
735+417847207+417503319+417209912+417029147+416796551+416466615+416046154
721+415852324+415512377+415008952+414698292+414597259+414538507+414437865
708+414323093+414307331+414346346+414265158+414074168+413987406+414155569
694+414513196+414846256+415081585+415347657+415689450+416049704+416501937
681+417167135+417925271+418405940+418045723+417440520+419928497+425442914
667+426382065+422728057+422302022+425359560+428076583+429644153+430873019
654+432195143+433820472+435750887+437724967+439673132+441727052+443887293
640+446194292+448683795+451099246+453244116+455373402+457925244+460931839
627+463934494+466871652+469831778+472821937+475955587+478979258+481734656
613+484674654+488015198+491527490+495145785+498976050+502914731+506803358
600+510771931+514698898+518402037+522279233+526453989+530473505+534284955
586+538203969+542319192+546660301+551207984+555732557+560184603+564806623
573+569364140+573540600+577757530+582454561+587283617+591857818+596514415
559+601380959+606096272+610771329+615695880+620699879+625594254+630456041
546+635422623+640475612+645548481+650663027+655649631+660517026+665611550
532+670774447+675756365+680895406+686227993+691228584+695616943+699917121
519+704559234+709400146+714342660+719451384+724701326+729627155+734029927
505+738263223+742381427+746312264+749998505+753319666+755762132+757396904
492+759350749+761460865+762761227+763659234+765563876+769303226+774199518
478+779122790+783550626+786879099+788700742+789317305+789425012+790743905
465+794959167+802582209+812749957+823532635+833846430+842372519+848342755
451+852942339+856376176+858594425+859722684+859300448+858007327+857084826
438+857034771+858354729+861437543+867222967+877073417+891106539+908419997
424+926926750+943847791+958421223+973359096+988077864+999609023+1009483683
411+1019334985+1029346675+1040096551+1052303486+1064303386+1071677289
399+1073741823
##END=
